Time,J,A,S,tau
0.0,100.0,100.0,0.6137822463777594,37.03703703703704
1.0,99.71530700970254,36.78881599513069,0.6120632729179365,38.03348929648741
2.0,99.43413769579927,13.533704370325397,0.6103640305694088,39.03018515277296
3.0,99.15632285457485,4.978720025469576,0.6086836460868691,40.02707835966222
4.0,98.88168515803723,1.8315512684715873,0.6070212149007597,41.02414789168328
5.0,98.61005199995932,0.6737850349943015,0.6053758415554342,42.02137492520207
6.0,98.34125524006905,0.24787114668230312,0.6037466406743148,43.01874255947119
7.0,98.07513095756364,0.09118777842439371,0.6021327376548268,44.01623557276261
8.0,97.81151921346076,0.033547719357237174,0.600533269136198,45.013840208710796
9.0,97.55026382132515,0.012343272726770448,0.5989473832769358,46.01154398865347
10.0,97.29121212593127,0.004542601787259131,0.5973742398734161,47.00933554632387
11.0,97.03421478944634,0.0016728590284003845,0.595813010346477,48.00720448173323
12.0,96.77912558473777,0.0006170916371423341,0.5942628776190155,49.00514123149727
13.0,96.52580119543022,0.00022864847810240182,0.5927230359043149,50.00313695321254
14.0,96.27410102235623,8.570467542201464e-05,0.5911926904220481,51.00118342178935
15.0,96.02388699606388,3.308063859858973e-05,0.5896710570565726,51.999272935900635
16.0,95.77502339505818,1.3688993545511358e-05,0.5881573619701537,52.99739823291926
17.0,95.52737666947748,0.0,0.5866508411821545,53.995552410894575
18.0,95.28081526991555,0.0,0.5851507401238629,54.99372885626473
19.0,95.03520948111299,0.0,0.5836563131775009,55.99192117611956
20.0,94.79043126026882,0.0,0.5821668232071503,56.99012313392507
21.0,94.54635407974332,0.0,0.5806815410886919,57.98832858768947
22.0,94.30285277385164,0.0,0.5791997452448292,58.986531429605805
23.0,94.05980338972415,0.0,0.5777207211924714,59.984725526229646
24.0,93.81708304114524,0.0,0.5762437611020815,60.982904658465245
25.0,93.5745697691145,0.0,0.5747681634042809,61.981062459378045
26.0,93.3321424007757,0.0,0.5732932323906005,62.979192350746644
27.0,93.08968041470322,0.0,0.5718182778718511,63.97728747575378
28.0,92.84706380871013,0.0,0.570342614875181,64.97534062742155
29.0,92.60417297063303,0.0,0.5688655633914255,65.97334417147593
30.0,92.36088855194903,0.0,0.5673864481805482,66.97128996236395
31.0,92.11709134412021,0.0,0.5659045986440708,67.96916925099795
32.0,91.87266215757573,0.0,0.564419348774486,68.9669725826285
33.0,91.62748170325429,0.0,0.5629300371929635,69.96468968304099
34.0,91.38143047617368,0.0,0.5614360072886656,70.96230933054761
35.0,91.13438864303974,0.0,0.5599366074784692,71.95981921253106
36.0,90.88623592903049,0.0,0.5584311915930007,72.95720576149196
37.0,90.63685151197622,0.0,0.5569191193995345,73.95445397604007
38.0,90.38611391426416,0.0,0.5553997573411111,74.95154720565829
39.0,90.13390089671118,0.0,0.5538724794610054,75.94846690800358
40.0,89.88008936117949,0.0,0.5523366685143,76.94519238430459
41.0,89.62455525056261,0.0,0.5507917173910649,77.94170046282582
42.0,89.36717344886803,0.0,0.5492370308740558,78.93796512907878
43.0,89.10781769422798,0.0,0.5476720276189091,79.93395713192253
44.0,88.84636047804611,0.0,0.5460961427418454,80.92964347999508
45.0,88.58267296777571,0.0,0.5445088306134878,81.92498692536108
46.0,88.31662490973531,0.0,0.5429095684894616,82.9199452948823
47.0,88.0480845577038,0.0,0.5412978604275471,83.91447079672946
48.0,87.77691858738767,0.0,0.5396732421817163,84.90850915586826
49.0,87.50299202191893,0.0,0.5380352867868994,85.90199864551556
50.0,87.22616816154955,0.0,0.5363836110495671,86.89486897274463
51.0,86.94630851544181,0.0,0.534717883124075,87.887039986131
52.0,86.66327273564302,0.0,0.5330378313831026,88.87842016994102
53.0,86.37691855902817,1.0575079855424647e-05,0.5313432545852629,89.86890492691136
54.0,86.08710175547638,1.1653413935927537e-05,0.5296340335012241,90.85837461945644
55.0,85.79367607482835,1.2873178197784516e-05,0.5279101445533355,91.84669226945147
56.0,85.4964932042469,1.4254436582207582e-05,0.5261716752460652,92.83370095806876
57.0,85.19540272998074,1.5820142273569476e-05,0.5244188418574848,93.8192208388747
58.0,84.89025474493103,2.6380522584867813e-05,0.5226520096387457,94.80304571796978
59.0,84.58089802130534,4.649700883609664e-05,0.5208717152752287,95.78493924012557
60.0,84.26717511047654,6.874995446363079e-05,0.5190786928676485,96.76463045237966
61.0,83.94892789360809,9.34359363072959e-05,0.5172739022352613,97.74180894744406
62.0,83.62599623163814,0.00012089290933005386,0.515458560792794,98.71611935532047
63.0,83.29821800487026,0.00015150539069061684,0.5136341779327528,99.68715535486183
64.0,82.96542916367588,0.00018571010680350843,0.5118025926551842,100.65445305734248
65.0,82.62746379778622,0.00022400191435647407,0.5099660133441863,101.61748393124202
66.0,82.28415422359464,0.00026693989561462825,0.5081270590992729,102.57564734514601
67.0,81.9353310905657,0.00031515346248192806,0.5062888016420685,103.52826286890371
68.0,81.58082351105294,0.00036934813818387317,0.5044548058179177,104.47456264469407
69.0,81.22045921354295,0.0004303107045397059,0.50262916677699,105.41368412592773
70.0,80.85406472251535,0.0004989131959165778,0.5008165406425084,106.34466370588963
71.0,80.48146556628933,0.0005761151992209513,0.4990221653356698,107.26643178232722
72.0,80.1024865151627,0.0006629636921690593,0.49725186672878424,108.17781007972539
73.0,79.7169518525315,0.0007605896881502511,0.4955120456256529,109.07751199891784
74.0,79.32468567889171,0.0008702008499839725,0.4938096401935386,109.96414694163613
75.0,78.92551224439214,0.0009930693449934863,0.4921520589807785,110.83622948785317
76.0,78.51925632337905,0.0011305141113325758,0.4905470796570484,111.69219433362395
77.0,78.10574361151971,0.0012838772909583476,0.48900271087296554,112.53041755650246
78.0,77.68480114853085,0.001454494958023752,0.487527017894293,113.34924424511979
79.0,77.25625777514698,0.0016436621959357992,0.4861279124592499,114.14702238878515
80.0,76.81994457969472,0.001852594917039421,0.48481291928689646,114.92214144712861
81.0,76.3756953974872,0.0020823883129611215,0.4835889211051917,115.67307481767854
82.0,75.92334725303141,0.0023339767699290842,0.4824619073088789,116.39842255028105
83.0,75.46274083379092,0.0026080969213627494,0.48143674034551265,117.0969516529679
84.0,74.99372093626218,0.002905256717965017,0.48051695520689347,117.76763130919988
85.0,74.51613688049585,0.003225713957909288,0.4797046140861582,118.40965925593304
86.0,74.02984318571644,0.003569454281383855,0.47900015606110036,119.02248870293806
87.0,73.5346990252973,0.003936217133232447,0.4784025244889999,119.60580992960944
88.0,73.03056990515613,0.0043254795020139175,0.47790907129304433,120.15956767504579
89.0,72.51732723492448,0.004736495788061854,0.47751576636215576,120.68392801137952
90.0,71.99484875128977,0.0051683255799290576,0.4772173526905597,121.17925351773458
91.0,71.46301891412887,0.00561986606937791,0.47700752559362963,121.64607388632578
92.0,70.9217295035504,0.006089891874174711,0.47687916363488037,122.08504772054552
93.0,70.37087983653944,0.006577097015895633,0.4768245751123067,122.49692151157087
94.0,69.81037711315751,0.007080129070012186,0.47683569795917125,122.88249601442139
95.0,69.24013692771557,0.007597621275903547,0.47690428733202905,123.24259440073503
96.0,68.66008401674857,0.008128221394372408,0.47702209026695913,123.57803258833114
97.0,68.07015255473193,0.008670612972732805,0.4771809773576114,123.88959700921573
98.0,67.47028661018646,0.00922353074443409,0.4773730376956627,124.1780283872046
99.0,66.86044080439623,0.009785773544296454,0.4775906581960858,124.44400798859421
100.0,66.24058121406942,0.010356212088518883,0.477826576861908,124.68814837963878
101.0,65.61068569721475,0.010933790072236228,0.47807389731761296,124.91099111597019
102.0,64.9707444694947,0.011517524259422556,0.47832609528540787,125.11300562259486
103.0,64.32076068383822,0.012106505138921506,0.4785770241680049,125.29458801111386
104.0,63.660751840302346,0.01269989234843713,0.4788208994386802,125.4560637228425
105.0,62.99074945375263,0.013296906219410425,0.47905225612448443,125.5976954137148
106.0,62.31079964413817,0.013896827401675112,0.479265944186024,125.71968337720352
107.0,61.62096586886519,0.014498989809047133,0.47945710229785754,125.82216995846206
108.0,60.92132505939115,0.015102768342294983,0.47962108688017396,125.9052534693782
109.0,60.21197483742137,0.015707585937018112,0.47975351709978786,125.96897813295406
110.0,59.49302598747871,0.016312891295291305,0.47985015619504656,126.01335825091452
111.0,58.764611693724355,0.016918170260665617,0.47990697554333056,126.03836408934741
112.0,58.02687938512869,0.01752292498834744,0.4799200486615968,126.04394420517838
113.0,57.280000670885414,0.01812668508683289,0.47988560829038357,126.03001256741929
114.0,56.52416003629932,0.018728988199304356,0.4797999490369534,125.99646989400203
115.0,55.75956954683436,0.019329388524433843,0.4796594828481139,125.94319145698171
116.0,54.98645294475682,0.01992744484926368,0.4794606631468899,125.87004376125694
117.0,54.20506429297801,0.020522722171917706,0.479200024883394,125.77687704006567
118.0,53.41566866703365,0.021114788970241504,0.47887413229444215,125.66353568866556
119.0,52.61855930857819,0.021703209799217825,0.47847959855327354,125.52985721546492
120.0,51.814047885846605,0.022287550525986823,0.4780130680835328,125.37567506296172
121.0,51.00246477805228,0.022867370210717865,0.4774712105725133,125.20082168638865
122.0,50.1841685604013,0.023442221931865938,0.4768507293654231,125.0051305826498
123.0,49.35952954608875,0.02401165412238407,0.4761483420378788,124.78843675325801
124.0,48.52894618626647,0.024575202694228238,0.4753608005507828,124.55058040498209
125.0,47.692806155140254,0.02489072494782482,0.5819687979641193,54.78151767637416
126.0,46.850960766797364,0.026665270429137265,0.5986097007531294,46.54552845843817
127.0,46.007215404567965,0.02947250783871023,0.6035546514619989,42.93562556728833
128.0,45.16430071935215,0.03323509241465963,0.604942507703666,40.57883092195823
129.0,44.32488704972436,0.037985841527743466,0.6046051620011915,38.80145862353532
130.0,43.49177219195882,0.043778853209003085,0.6032702312572178,37.353525057663234
131.0,42.66791136944038,0.05067147763367549,0.6013027036981484,36.11599618844174
132.0,41.85640856049012,0.058717270287015864,0.5989111783579769,35.023741341688535
133.0,41.060489177408456,0.06796225494873509,0.5962250684414024,34.037827450906065
134.0,40.283468217967105,0.07844253622734103,0.5933292788708543,33.13348316566458
135.0,39.52870010746277,0.09018296328762725,0.5902815869802455,32.294247692834055
136.0,38.79953336929636,0.10319622490884985,0.587122464298863,31.508760062117393
137.0,38.09925858487825,0.11748240588868883,0.5838807754658075,30.768951333097842
138.0,37.431054105561024,0.13302891253693191,0.5805773862246363,30.068936200653987
139.0,36.79793094215495,0.14981063693793495,0.5772275109958879,29.404315293251678
140.0,36.20268928642355,0.167790441815568,0.5738423329623977,28.77171137585532
141.0,35.64786915862611,0.18691971575207667,0.570430066473179,28.168475811611614
142.0,35.13569913155305,0.2071392238833663,0.5669967362389865,27.592483197015152
143.0,34.6680805984097,0.22837966964683604,0.5635467316861065,27.041985722518973
144.0,34.24653818698603,0.250562942221801,0.5600832210510841,26.515516123921685
145.0,33.87220263832939,0.27360303350129594,0.5566084483355365,26.011816992987796
146.0,33.54579475342852,0.2974070895518669,0.5531239583080553,25.529790589922477
147.0,33.26761679557418,0.32187649533535256,0.5496307671926893,25.0684625861098
148.0,33.037551091520754,0.3469079677155207,0.5461294939335717,24.626955620058443
149.0,32.85512838219196,0.3723100693664081,0.5426204649959366,24.204470268270168
150.0,32.718646238930056,0.3986641338434649,0.5391037883895408,23.800269056269336
151.0,32.628812070494064,0.4295821959473756,0.5355794252362291,23.41366698080209
152.0,32.594029032447104,0.4677463925818235,0.5320472418743757,23.044022668063736
153.0,32.627629002470485,0.5156897807573105,0.5285070539912463,22.69073183951684
154.0,32.74685996733759,0.5759062883735495,0.5249586645118969,22.353222213391057
155.0,32.971856355950614,0.6508105284704108,0.5214018961966773,22.03094943203827
156.0,33.32431180794766,0.7426687344854802,0.5178366201655635,21.723393737755263
157.0,33.82584971185637,0.8535249203254053,0.5142627812913102,21.430057262008315
158.0,34.496189469732805,0.9851332027048735,0.5106804207552039,21.150461725901984
159.0,35.35125947229713,1.138901130895828,0.5070896963845388,20.88414650763136
160.0,36.40145110443118,1.3158491302203612,0.5034909007111499,20.630666944578124
161.0,37.65018598693924,1.5165826200414034,0.49988447748454,20.38959291912225
162.0,39.09288404380672,1.741283344214818,0.49627103818568735,20.16050762633195
163.0,40.716709378671304,1.9897151795268764,0.49265137362336825,19.9430063633252
164.0,42.50091737492961,2.2612405196063334,0.4890264636660765,19.736695497599435
165.0,44.417668136629274,2.554847960311853,0.48539748857875814,19.541191642904916
166.0,46.433419515295164,2.8691910493025525,0.48176583662005235,19.356120835737283
167.0,48.51065517019884,3.202631554364635,0.4781331109786123,19.181117839353814
168.0,50.60982363862933,3.5532728499551793,0.4745011336125913,19.015825480101153
169.0,52.691108862062734,3.919107096771996,0.47087194819524386,18.85989408003116
170.0,54.71232481895626,4.302331286363317,0.46724781924918846,18.712980933825644
171.0,56.62958698959345,4.710122295272883,0.46363123335501133,18.574749908296358
172.0,58.3981251048272,5.15261168400097,0.4600248954158517,18.444871025323128
173.0,59.97111572674028,5.641764127366746,0.4564317241785052,18.323020129262428
174.0,61.29866088749202,6.190184843264461,0.4528548465107168,18.20887861712239
175.0,62.32783682735538,6.809815075347193,0.44929758889534843,18.102133195018066
176.0,63.00446279189481,7.510630747200535,0.445763468084729,18.002475685702183
177.0,63.27691185711006,8.299446547746594,0.442256180788673,17.90960290043969
178.0,63.101538244390625,9.179014547434983,0.43877959045558584,17.823216513067184
179.0,62.44894057885763,10.147444486233441,0.4353377150259461,17.74302303067327
180.0,61.30916196269451,11.198120081382148,0.43193471157341573,17.66873373239133
181.0,59.69447681873325,12.32000761961865,0.4285748598526989,17.60006469479723
182.0,57.639413607996616,13.498316872045164,0.4252625475119966,17.53673686225725
183.0,55.19719579017171,14.71549107798041,0.42200225175410344,17.478476082096634
184.0,52.43436678355529,15.9522962123438,0.4187985223260069,17.4250132607849
185.0,49.42434629444536,17.188964826559822,0.4156559631623067,17.376084463834033
186.0,46.24149109842058,18.406238221162273,0.4125792140447168,17.331431115669513
187.0,42.95618134602341,19.58633971051612,0.4095729323520497,17.290800177492528
188.0,39.631369862134655,20.713836738756566,0.4066417743883487,17.253944367334313
189.0,36.321609455470046,21.775235140607464,0.40379037719262917,17.220622422304174
190.0,33.07407986785895,22.7578009503774,0.40102334053452315,17.190599326962218
191.0,29.930166828369234,23.648390970710466,0.3983452088151917,17.16364664964887
192.0,26.92703476944533,24.432742344366613,0.39576045427234374,17.139542786171717
193.0,24.098433388970612,25.095517926137727,0.3932734594235553,17.118073338719114
194.0,21.47458488302116,25.621279136407615,0.39088850136062,17.099031398504454
195.0,19.081136395147155,25.99628476187993,0.3886097355445596,17.082217925619908
196.0,16.937615153104684,26.21066092650925,0.38644118071490946,17.067442092200608
197.0,15.05607101674056,26.26034991820501,0.3843867050474408,17.054521617408952
198.0,13.440319619468982,26.148294300661032,0.3824500103474096,17.04328322226724
199.0,12.086451143794344,25.884345646084906,0.3806346205346286,17.033562902886196
200.0,10.984256154268488,25.48419564022543,0.3789438690801178,17.02520631320982
201.0,10.119255283602454,24.967545275518027,0.3773808854814015,17.018069188999327
202.0,9.47494334760332,24.356004206923366,0.37594858529048814,17.012017632682948
203.0,9.034706665442123,23.671217337559952,0.3746496579388692,17.00692851589372
204.0,8.783214803980515,22.93344347600044,0.37348655731424035,17.0026897712556
205.0,8.70721417908798,22.160661135148413,0.372461491718775,16.999200709978357
206.0,8.795785664296472,21.36817127006597,0.37157641408385983,16.99637233744666
207.0,9.040138942071092,20.568627555380306,0.3708330142532439,16.99412757272356
208.0,9.433170086577487,19.772293379259775,0.37023270960519017,16.99240152283971
209.0,9.968873805814866,18.98741863356809,0.36977663881035416,16.991141630749606
210.0,10.641766925627698,18.220612043235214,0.36946565277728693,16.99030791369182
211.0,11.446345674061142,17.477199494099548,0.3693003099033126,16.989873004120824
212.0,12.376600489055129,16.761517521914996,0.36928087031326307,16.989822231736195
213.0,13.425613340545594,16.077157985685755,0.36940729037918213,16.990153668033415
214.0,14.58525943513712,15.427173008401496,0.3696792178664626,16.990878115158388
215.0,15.845973599239809,14.814242628211005,0.3700959896746477,16.99201898419325
216.0,17.19659831079089,14.24080884266487,0.37065662975811275,16.993612150622365
217.0,18.624302471914138,13.709179316218961,0.37135984798740057,16.995705761298684
218.0,20.11460269774214,13.221601895601196,0.3722040392485528,16.998360011398177
219.0,21.65147434495222,12.780308509470853,0.3731872856217669,17.001646796878074
220.0,23.21751859399461,12.387527850919058,0.37430735980662777,17.00564932320897
221.0,24.79419742755852,12.045471901816837,0.3755617296526342,17.01046167158491
222.0,26.362111799896187,11.756300484090785,0.37694756369083776,17.016188330794876
223.0,27.90134695940754,11.522071869593198,0.37846173886344464,17.022943650554677
224.0,29.391781523058324,11.344679013687198,0.3801008510940455,17.030851218881057
225.0,30.813395779396767,11.225777154854464,0.381861226857968,17.040043219732148
226.0,32.14655310377919,11.166703301762627,0.383738936367755,17.050659756698508
227.0,33.372311254903494,11.168393901757108,0.38572980815651925,17.062848146169575
228.0,34.47270713755764,11.231303997400124,0.38782944688458637,17.076762140429324
229.0,35.43105650306327,11.355330783348354,0.3900332522376046,17.092561146576063
230.0,36.232282985130325,11.539745738506127,0.3923364392711015,17.110409432195123
231.0,36.86336832398076,11.783142322637254,0.39473405954876933,17.130475330351736
232.0,37.31374937465495,12.08339725988192,0.39722102487764616,17.152930412079144
233.0,37.57582349592118,12.437656919147798,0.39979213140215675,17.177948674858566
234.0,37.64536550449969,12.842340313376644,0.4024420847068374,17.205705740197303
235.0,37.52184690360574,13.293160358939629,0.40516552551039914,17.236378066364598
236.0,37.20864141957656,13.785170785765438,0.40795705575406616,17.270142180773814
237.0,36.71304868051014,14.312831909905508,0.4108112648934309,17.307173933169622
238.0,36.04603352616169,14.87009583279489,0.41372275551615345,17.347647812074513
239.0,35.221895413290184,15.450499659083775,0.4166861689525746,17.391736258359536
240.0,34.25768585639957,16.04727022792061,0.4196962099557262,17.439609045072608
241.0,33.17254867733448,16.653428646678105,0.42274767042440015,17.491432695583224
242.0,31.98701779658245,17.261891057697405,0.42583545190214145,17.54736994909442
243.0,30.722340853294305,17.86556373392721,0.42895458638682915,17.607579284873253
244.0,29.399858710501167,18.457429681105445,0.43210025572994765,17.67221448741953
245.0,28.040485617599504,19.030632165917773,0.43526780877921145,17.741424278618236
246.0,26.664290061339084,19.57856028768542,0.43845277702285584,17.815351987922075
247.0,25.29016099518428,20.094941043570152,0.4416508885922031,17.89413526304696
248.0,23.935572799084667,20.573941378914743,0.4448580789153871,17.977905866904354
249.0,22.61641787571346,21.010282319294223,0.4480704996694497,18.066789509960454
250.0,21.3468948842509,21.399362319848496,0.4512845257845651,18.16090572409565
251.0,20.139432858861454,21.73738247981727,0.4544967610932224,18.260367760544543
252.0,19.00467184373713,22.021455211720347,0.45770404055762964,18.365282567451388
