Time,J,A,S,tau
0.0,100.0,100.0,0.6196747911971835,30.13647114239205
1.0,99.74325361317618,89.30858986630568,0.6183858098056663,31.105542378648757
2.0,99.4900912664755,79.7614155829187,0.6171056889963626,32.07600037837103
3.0,99.24031332145589,71.23803879865658,0.6158346881002705,33.04753664598066
4.0,98.99372867946485,63.62817011802436,0.6145725991686759,34.020060441162954
5.0,98.75015190590835,56.83347815710785,0.6133191785012083,34.993487209954694
6.0,98.50940289456094,50.766282677731155,0.6120741511450642,35.96773800752406
7.0,98.27130654134218,45.348376563032254,0.6108372149644763,36.94273896073488
8.0,98.03569243284386,40.51000481593001,0.6096080442852918,37.91842077330828
9.0,97.80239454733743,36.18894538900531,0.608386293167002,38.89471826796879
10.0,97.57125096729293,32.32969368860678,0.6071715983417303,39.8715699618132
11.0,97.34210360325856,28.882734265848395,0.6059635818542659,40.84891767194581
12.0,97.11479792470895,25.803879894467133,0.6047618534477006,41.826706145275914
13.0,96.88918270137363,23.053700203757828,0.6035660127073381,42.80488271334544
14.0,96.66510975378468,20.5970069527503,0.6023756509959783,43.783396968582956
15.0,96.44243371206056,18.402396489695803,0.601190353208795,44.76220045897971
16.0,96.22101178287872,16.441842283991953,0.6000096993722985,45.74124639889829
17.0,96.00070352165724,14.690323200188644,0.5988332661136896,46.72048939219373
18.0,95.7813706119639,13.125502493557928,0.5976606280156247,47.6998851672562
19.0,95.5628766515786,11.727438691926759,0.5964913588785286,48.67939032153343
20.0,95.34508694431221,10.47832810680005,0.5953250329108271,49.658962073107894
21.0,95.12786829744745,9.362276046225725,0.5941612258669469,50.63855801717991
22.0,94.9110888231095,8.365087289178932,0.5929995161482559,51.618135885288
23.0,94.69461774446043,7.474085086959441,0.591839485883049,52.59765330595755
24.0,94.47832520650775,6.677948324184592,0.5906807220038691,53.57706756465022
25.0,94.26208209080795,5.966566216773732,0.5895228173386632,54.55633536088245
26.0,94.04575983375656,5.330909428670855,0.5883653717355986,55.53541255999536
27.0,93.82923024785978,4.76291175151198,0.587207993231052,56.514253938461394
28.0,93.61236534617146,4.255367711875453,0.5860502992783375,57.492812920706015
29.0,93.39503716973913,3.80184063413496,0.5848919180577113,58.47104130478637
30.0,93.17711761760529,3.396580447630883,0.5837324898837228,59.44888897480096
31.0,92.958478278862,3.0344508658063716,0.5825716687340826,60.42630359663509
32.0,92.7389902670055,2.7108624658624576,0.5814091239078604,61.40323029643171
33.0,92.5185240564961,2.4217145915945495,0.5802445418322927,62.379611319292664
34.0,92.29694932113358,2.1633433369140853,0.5790776280471663,63.35538566407543
35.0,92.07413477413937,1.9324749537468606,0.5779081093848418,64.33048869193077
36.0,91.84994800928527,1.7261845969511638,0.5767357363784701,65.30485170380847
37.0,91.62425534391288,1.541858427379544,0.5755602859074447,66.27840148628827
38.0,91.39692166390927,1.377160560074816,0.5743815640988731,67.25105982331218
39.0,91.16781026975883,1.230003580830279,0.5731994095293461,68.22274296709068
40.0,90.93678272398316,1.09852208703747,0.5720136967472592,69.19336106557338
41.0,90.70369869922638,0.9810492599453451,0.5708243401587876,70.1628175400248
42.0,90.46841582817318,0.8760953828923083,0.5696312982891213,71.13100841159537
43.0,90.23078955595649,0.7823289938116202,0.5684345784279172,72.09782157595882
44.0,89.99067299347172,0.6985601483465683,0.5672342417247566,73.0631360155991
45.0,89.74791677239692,0.6237253712510216,0.5660304087510852,74.02682094756035
46.0,89.50236890120915,0.5568743247218614,0.5648232655774029,74.9887348990627
47.0,89.2538746234836,0.4971576232568662,0.5636130703754938,75.94872470961697
48.0,89.00227628013292,0.44381606417177977,0.5624001605188981,76.90662446375674
49.0,88.7474131731448,0.39617111489139245,0.5611849602674216,77.86225434013124
50.0,88.48912143216506,0.3536163436382542,0.5599679890263907,78.81541937789568
51.0,88.22723388339494,0.31560981949531897,0.5587498702102207,79.76590815479959
52.0,87.9615799219755,0.2816671978831707,0.5575313406959076,80.71349137788762
53.0,87.69198539087625,0.2513555562571233,0.5563132607441184,81.65792040404592
54.0,87.4182724629068,0.22428798230159508,0.5550966244662856,82.5989256756085
55.0,87.1402595277993,0.200118689532008,0.5538825707451338,83.53621508254056
56.0,86.85776108416852,0.17853867903510767,0.5526723945505055,84.46947225666605
57.0,86.57058763727754,0.15927181410847938,0.5514675585459924,85.39835480966174
58.0,86.27854560720563,0.1420712881534179,0.5502697046563411,86.32249256060037
59.0,85.98143724315783,0.12671654324571105,0.5490806655821431,87.24148574904382
60.0,85.67906054648756,0.11301048413264707,0.5479024759733668,88.15490327106609
61.0,85.37120920271171,0.1007770003487017,0.5467373829840727,89.06228097292299
62.0,85.05767252326204,0.0898587352824915,0.5455878558821728,89.96312004299546
63.0,84.7382354030397,0.0801150629473133,0.5444565940364278,90.85688559656262
64.0,84.41267828897213,0.07142033135137336,0.543346533029599,91.74300548073778
65.0,84.08077716267825,0.06366227294290244,0.5422608482909705,92.6208693804402
66.0,83.74230353813755,0.05674058892246182,0.5412029556221231,93.48982830838717
67.0,83.39702447508328,0.050565680157619995,0.5401765079627794,94.34919456425833
68.0,83.04470261534738,0.04505748902859712,0.5391853873909147,95.19824230630641
69.0,82.68509623721428,0.04014449708323547,0.5382336918516061,96.03620879775387
70.0,82.31795933135143,0.035762818127054126,0.5373257158213118,96.86229643575923
71.0,81.94304169662263,0.032442496800930705,0.5364659241857795,97.67567565745708
72.0,81.56008909011578,0.03193300908937675,0.5356589183629304,98.4754888902983
73.0,81.16884401776552,0.03142740526589386,0.5349093978892745,99.26085644517718
74.0,80.76904356139251,0.030925670579470058,0.5342220989480856,100.0308783936635
75.0,80.36042292995035,0.03042779170556542,0.5336017805123786,100.7846461109069
76.0,79.94271416577196,0.02993375689519926,0.5330530856906129,101.52125069320283
77.0,79.51564356840547,0.029443560924300633,0.5325804119711292,102.23979707399243
78.0,79.07893779510232,0.028957197676037202,0.5321881730947149,102.93938749287814
79.0,78.63232162242495,0.02847466198450614,0.5318802996576714,103.61916680812021
80.0,78.17551453449498,0.027995956263561685,0.5316600437629999,104.27834552214793
81.0,77.70823614097125,0.02752108269270844,0.5315306474570232,104.9161350148198
82.0,77.23020783837275,0.027050041645157973,0.5314947281537126,105.5318122048467
83.0,76.74114745121538,0.02658284166359062,0.5315535384715445,106.12479842840095
84.0,76.24077221246635,0.02611949243693823,0.5317082128065258,106.69452763098447
85.0,75.72880361612185,0.025659999311620198,0.5319595306833799,107.2404741529239
86.0,75.20496473154647,0.025204375713597335,0.5323060236089932,107.76235407959786
87.0,74.6689777209941,0.024752638667388745,0.5327457141704274,108.2599375207551
88.0,74.12056579395099,0.02430480415111622,0.5332765811957333,108.73299997364977
89.0,73.55946328731153,0.02386088478206798,0.533895140298805,109.18147444517062
90.0,72.98540835600421,0.023420901495101756,0.5345961863534349,109.60547039151668
91.0,72.39813906361516,0.022984876099396548,0.5353744181531909,110.0051068867087
92.0,71.79740513579263,0.022552826042436025,0.5362237165369558,110.38058657507104
93.0,71.18296923651269,0.022124775501944853,0.5371361947624719,110.73227857057982
94.0,70.55459455169978,0.021700750893745152,0.5381037493964838,111.06057114220546
95.0,69.91205658733418,0.02128077460734155,0.5391177681979858,111.36589802610726
96.0,69.25515195915973,0.02086487249148342,0.5401683483466058,111.64879630400416
97.0,68.58367980358854,0.020453072769361796,0.5412453669125326,111.90981869511202
98.0,67.89746105414609,0.020045400302877346,0.5423381281324633,112.14955436032922
99.0,67.19633529322422,0.019641885175974764,0.5434352897770829,112.36862513375824
100.0,66.48014916994367,0.019242555941638262,0.5445253973902837,112.56765782782261
101.0,65.74878472517717,0.018847440029364487,0.5455965003543518,112.74728720788967
102.0,65.00213584419956,0.018456569518866612,0.5466364526766575,112.90814531081566
103.0,64.24011727341151,0.018069971807354864,0.5476329908474314,113.05085998947058
104.0,63.462684108671496,0.017687677315517066,0.5485736439318744,113.17603200952531
105.0,62.66979883645807,0.017309717652998227,0.5494459137539096,113.28425546005272
106.0,61.861466670454334,0.0169361195484806,0.5502372688623146,113.37609680625398
107.0,61.0377252078991,0.016566914965486353,0.5509351998143462,113.4520870386422
108.0,60.19862630293038,0.016202132872842525,0.5515272107425208,113.51274919847985
109.0,59.34428296085124,0.01584180033826801,0.5520009572474123,113.55855657050927
110.0,58.47482580864832,0.01548594882951871,0.552344174258937,113.5899607856321
111.0,57.590422949286406,0.0151346032192967,0.5525447105204048,113.60739268399875
112.0,56.69130320699939,0.014787791445924459,0.5525907109274996,113.61123249226709
113.0,55.7777092456859,0.014445542456519076,0.5524704001287584,113.6018492459523
114.0,54.849943109908885,0.014107879448130774,0.5716432270492429,96.77425388660882
115.0,53.90834986085404,0.013774826384129569,0.6139725099744375,62.407279248744125
116.0,52.953319130004225,0.013446406432914405,0.6295319877322106,51.10246551068062
117.0,51.98528771217988,0.01312264155272252,0.6359241457058219,45.486264419432665
118.0,51.00474058507216,0.012803552397096171,0.6382322525966297,41.93523582226145
119.0,50.01221174184002,0.012489158224842532,0.6381971626967726,39.41103608078473
120.0,49.00828480522905,0.012179476813959514,0.636617298834678,37.489696557665255
121.0,47.99359342989662,0.011874524377353016,0.6339275232937913,35.95991005846571
122.0,46.96882142457759,0.011574315483422366,0.6303928318892399,34.70213626626911
123.0,45.9347026557436,0.01127886297369422,0.6261880351455619,33.6426000613306
124.0,44.892020565386666,0.01098817790605888,0.6214355972990752,32.73276560691976
125.0,43.84160757322251,0.01070226946924895,0.6162254146978864,31.939136957773062
126.0,42.78434383433714,0.010421144917317285,0.6106261314288581,31.237680146226758
127.0,41.7211561117532,0.010144809525153254,0.6046918074448744,30.610653799418518
128.0,40.65301583589885,0.009873266525023666,0.5984662622346555,30.044613176768845
129.0,39.58093708593819,0.009606517056641017,0.5919858541039897,29.529169462596354
130.0,38.50597418116609,0.009344560113804499,0.5852813837169336,29.056160650325264
131.0,37.42921884732635,0.009087392518178795,0.5783794327169828,28.619082046657994
132.0,36.35179708071662,0.008835008890077668,0.5713033159992419,28.212688237841512
133.0,35.27486568308008,0.00858740160744274,0.5640737756469825,27.83270721527587
134.0,34.19960828814813,0.008344560738744646,0.5567095015338088,27.475628495554762
135.0,33.12723060902302,0.008106473945473572,0.5492275353154101,27.13854083444395
136.0,32.05895698367572,0.00787312693472659,0.5416435650996525,26.819019186052756
137.0,30.996025821533745,0.007644502984196972,0.5339721069208808,26.515043821709185
138.0,29.939681080078767,0.007420582459985177,0.526226757584559,26.224900624269676
139.0,28.89117295084401,0.007201344574886789,0.5184203277619921,25.947140782363757
140.0,27.8517468498492,0.006986765268776757,0.5105648572781349,25.680550029245616
141.0,26.822638510800783,0.0067768182770961615,0.5026718727938078,25.424068098978253
142.0,25.80507573875905,0.0065714762147656754,0.4947522664694473,25.176819395231536
143.0,24.802211572423587,0.006370708777363649,0.4868165374617761,24.938027428704693
144.0,23.824690639786894,0.006174482421690737,0.47887467691658164,24.70703792775179
145.0,22.864369784480353,0.005982762291585875,0.4709362988012506,24.483283710869845
146.0,21.9190651119392,0.005795510653016242,0.4630106340165956,24.266273770075895
147.0,20.98986905092313,0.005612689522491944,0.45510656141729877,24.055586560220245
148.0,20.077811022948335,0.005434256522380012,0.4472326026214875,23.850852469007435
149.0,19.183893158893923,0.005260169943464263,0.43939698762693175,23.651750163320116
150.0,18.30903561204177,0.005090383515331733,0.43160756801047184,23.458000811697026
151.0,17.45412082155481,0.004924851017002802,0.4238719450904946,23.269356421076843
152.0,16.61995109250725,0.004763523461338927,0.41619734424983845,23.085603679402126
153.0,15.807262870208838,0.004606349914045954,0.4085907346363834,22.906549833065526
154.0,15.016732212756251,0.00445327913320635,0.4010587444177327,22.732028335785447
155.0,14.24893460062012,0.004304256092908198,0.3936077043079255,22.561888315717667
156.0,13.504404021703174,0.0041592268904754245,0.38624365348612205,22.39599695654462
157.0,12.783547087236254,0.00401813313484133,0.3789722803835124,22.23423479998616
158.0,12.086753987033381,0.0038809188095606595,0.3717990344048683,22.0764943976454
159.0,11.414262667855748,0.003747522752602049,0.36472897705206975,21.92267908785441
160.0,10.766296035819114,0.003617885933957192,0.3577669505657576,21.77270047941123
161.0,10.14292003503073,0.0034919447257093154,0.35091738406329176,21.626479047278256
162.0,9.544233234869193,0.003369639591761036,0.34418453051817144,21.483941247977086
163.0,8.970096112373133,0.003250902716889008,0.3375722154782699,21.345019311337964
164.0,8.420484686515843,0.0031356744455200386,0.3310840275322357,21.209652203324513
165.0,4.3525320678871795,5.519238790687578,0.32472333901777056,21.077781125382824
166.0,5.138692984492923,7.5288721188354994,0.3184930849575067,20.94935241064898
167.0,8.024390975914411,7.2630188424689335,0.3123959756279902,20.824315648143347
168.0,10.805728523291329,7.0050307296194605,0.3064344413985058,20.70262345890383
169.0,13.476850307603897,6.754764959023757,0.3006106390881269,20.5842311494223
170.0,16.032261476166216,6.512077117894797,0.2949264600975558,20.469096395894777
171.0,18.466915545631437,6.276821346301493,0.289383537695607,20.357178992735758
172.0,20.77629309999034,6.048850537236862,0.2839832562022449,20.24844062873223
173.0,22.956470149834658,5.828016540682469,0.27872676094369103,20.14284469386425
174.0,25.004176148772853,5.6141703614555345,0.27361496823313075,20.040356116545336
175.0,26.916844776941122,5.407162324807885,0.2686485749016357,19.940941227632283
176.0,28.692670396979832,5.206842048271401,0.2638280673053372,19.844567669344645
177.0,30.330666325470002,5.013058076611841,0.2591537361247552,19.751204374983047
178.0,31.83043717557356,4.825659402957506,0.25461687878435163,19.661418832897752
179.0,33.19279498234093,4.644486783772959,0.2501822355823833,19.577546912034226
180.0,34.418421691150435,4.4693951174037165,0.2458447916350081,19.499843178062765
181.0,35.509853783020134,4.3002307501917585,0.2416056740277678,19.428140153348973
182.0,36.46914244732448,4.136850458001712,0.23746658483441938,19.3622352664448
183.0,37.30003822193379,3.979102967378391,0.23342902437010296,19.30193654655848
184.0,37.7887161039521,4.051007234611378,0.22949445240990074,19.247056620897506
185.0,37.68331026761454,4.709439184908714,0.22566423106435488,19.197412509874802
186.0,37.61933109989612,5.286881009649889,0.2219396580003919,19.15282539992128
187.0,37.48721289162405,5.84852820597805,0.21832195724419476,19.113120437931848
188.0,37.26393332258499,6.392864373718404,0.2148122789010601,19.078126534803484
189.0,36.93950042700842,6.918493367333546,0.21141170030189055,19.047676211518752
190.0,36.513132171967804,7.42415467636571,0.20812122791377444,19.021605421941757
191.0,35.99036088214176,7.908735922524893,0.2049417996107466,18.999753383538103
192.0,35.380747397038036,8.371277944739997,0.20187428883596345,18.981962421735517
193.0,34.69642397316567,8.810989752373859,0.19891950476321021,18.968077845847
194.0,33.95066768626534,9.227243497721267,0.19607819921286604,18.95794779250389
195.0,33.15705755032846,9.619576127592513,0.1933510705230253,18.951423095266286
196.0,32.32884566859953,9.987686416263758,0.19073876870414055,18.948357155481425
197.0,31.47805304449374,10.331888110685313,0.18825103892088835,18.948003650603603
198.0,30.614137260250747,10.653887476914454,0.18592201843213563,18.948006542451825
199.0,29.7467263933103,10.954021625897603,0.18375553491509464,18.948006542451825
200.0,28.884574399660178,11.232464495007711,0.18174996604219795,18.948006542451825
201.0,28.035293955358217,11.489494101434628,0.1799037946558611,18.948006542451825
202.0,27.205395818278834,11.725483032577191,0.1782155760930326,18.948006542451825
203.0,26.39895975808603,11.942181253315777,0.17668394835054757,18.948006542451825
204.0,25.605460015868402,12.153445771519554,0.1753076415665903,18.948006542451825
205.0,24.833773209893696,12.35225026091259,0.17408548762715978,18.948006542451825
206.0,24.09436818179801,12.531456062740185,0.1730164264162908,18.948006542451825
207.0,23.395211795872278,12.68701198467931,0.17209951339492408,18.948006542451825
208.0,22.74213709204659,12.816982042573537,0.1713339255283962,18.948006542451825
209.0,22.139112969995544,12.920936822103704,0.170718966122202,18.948006542451825
210.0,21.58850210272493,12.999501932658763,0.1702540685713067,18.948006542451825
211.0,21.091284678059377,13.05402297140848,0.16993880386799207,18.948006542451825
212.0,20.64745732897987,13.086282057782228,0.16977287601817853,18.948006542451825
213.0,20.25605167969989,13.098335676047082,0.16975612518133906,18.948006542451825
214.0,19.91552571919564,13.092376556002822,0.1698885375761494,18.948006542451825
215.0,19.623810302550904,13.070629241824921,0.1701702367300331,18.948006542451825
216.0,19.378472629571984,13.03527860334233,0.170601484056149,18.948006542451825
217.0,19.17688436482331,12.988368676817627,0.1711826774139266,18.948006542451825
218.0,19.01630733270247,12.931796111439464,0.1719143511685328,18.948006542451825
219.0,18.89391602219114,12.86734476201469,0.17279717183663992,18.948006542451825
220.0,18.806838734696967,12.79667968260028,0.17383193258536384,18.948006542451825
221.0,18.75219627283397,12.721344514118494,0.1750195484094627,18.948006542451825
222.0,18.727127046262435,12.64276737426643,0.17636105117071516,18.948006542451825
223.0,18.729317828339656,12.561797531134642,0.17785758437316368,18.948006542451825
224.0,18.756687002888317,12.479120483652354,0.17951039468853539,18.948006542451825
225.0,18.806847614226978,12.395746373420826,0.18132081986910054,18.948006542451825
226.0,18.877179378681557,12.31288090510886,0.18329028390732655,18.948006542451825
227.0,18.964914298240064,12.231792071362028,0.18542028777403954,18.948006542451825
228.0,19.06719853377266,12.153736610140461,0.187712393928245,18.948006542451825
229.0,19.181164887373512,12.079915426650787,0.19016833957137236,18.947999604478255
230.0,19.30493663646949,12.010508570909042,0.19274847413000648,18.95029429671384
231.0,19.436449090656616,11.94602872239561,0.19543368736749714,18.95597319181188
232.0,19.573384246232855,11.88724324361751,0.19822188401201052,18.96514328836509
233.0,19.71352463713671,11.834794163663101,0.20111089752464703,18.977909622451104
234.0,19.85476698026529,11.789206629895617,0.20409849081978682,18.99437529728957
235.0,19.995152416887066,11.750893726187144,0.20718235563771675,19.014641405813215
236.0,20.132882868573603,11.720162190654841,0.21036011020733283,19.03880688961509
237.0,20.266279509095686,11.697229578693563,0.21362930272417335,19.066968666082083
238.0,20.393825649328292,11.68223263618632,0.21698741560560214,19.099221593822698
239.0,20.514203293754676,11.675227415667218,0.220431863425927,19.13565819025008
240.0,20.626191615269207,11.676203746727241,0.22395999669566288,19.17636895957819
241.0,20.728821817940375,11.685088850694282,0.22756911560091306,19.221442166582758
242.0,20.821216834484822,11.701755069191565,0.2312564533194088,19.270963705640213
243.0,20.90270275585416,11.726057991452164,0.23501921070158224,19.3250175686453
244.0,20.972700449759063,11.757813116341303,0.2388545245290288,19.38368500888098
245.0,21.030873826532105,11.796813506734873,0.2427595200721662,19.447045540518605
246.0,21.076919611783413,11.842784998472494,0.24673125476117846,19.515176102974763
