Time,J,A,S,tau
0.0,100.0,100.0,0.6137822463777594,37.03703703703704
1.0,99.71530702703527,36.78881598423521,0.6120631681753016,38.03350228146595
2.0,99.43413772926166,13.533704356130837,0.6103638283534424,39.03021029134528
3.0,99.15632290311495,4.9787200106933485,0.6086833527550918,40.02711492601221
4.0,98.88168522071464,1.8315512540456031,0.6070208361359873,41.02419523731034
5.0,98.61005207593323,0.6737850212009034,0.6053753824386123,42.021432470827065
6.0,98.34125532858775,0.24787113357121207,0.6037461057480712,43.01880978796742
7.0,98.07513105795533,0.09118776596529504,0.6021321309789376,44.016312022982845
8.0,97.81151932512554,0.033547707495194506,0.6005325943359968,45.01392547009957
9.0,97.55026394372798,0.01234326140199196,0.5989466435855475,46.01163769654922
10.0,97.291212258596,0.0045425909418249305,0.5973734381685785,47.00943737786857
11.0,97.03421493195029,0.0016728486082612294,0.5958121491825966,48.00731415231935
12.0,96.7791257367071,0.0006170815924314648,0.5942619592550225,49.005258491691315
13.0,96.52580135653605,0.00022863876290810234,0.5927220623277918,50.00326158610383
14.0,96.27410119231108,8.569524726607627e-05,0.5911916633700424,51.00131524071983
15.0,96.02388717461879,3.307145805228404e-05,0.5896699780334383,51.99941178253879
16.0,95.77502358200024,1.368002380144325e-05,0.5881562322627206,52.99754397564677
17.0,95.52737686462763,0.0,0.5866496618724684,53.99570494347993
18.0,95.28081547312688,0.0,0.5851495120997013,54.993888096802586
19.0,95.0352096922694,0.0,0.5836550371408347,55.992087066219305
20.0,94.79043147928357,0.0,0.5821654996806795,56.99029563813567
21.0,94.54635430656023,0.0,0.5806801704205762,57.98850769315184
22.0,94.30285300843568,0.0,0.5791983276116051,58.9867171459274
23.0,94.0598036320916,0.0,0.5777192566005159,59.98491788557574
24.0,93.81708329130265,0.0,0.5762422493868056,60.983103715881555
25.0,93.57457002711196,0.0,0.5747666042283193,61.981268293334956
26.0,93.33214266672505,0.0,0.5732916252402274,62.979405063894674
27.0,93.08968068874115,0.0,0.5718166220511561,63.977507195947474
28.0,92.84706409098372,0.0,0.5703409094984834,64.97556750900961
29.0,92.60417326129753,0.0,0.568863807373726,65.97357839688146
30.0,92.36088885117694,0.0,0.5673846402258527,66.9715317439819
31.0,92.11709165212129,0.0,0.5659027372313807,67.9694188334426
32.0,91.87266247462713,0.0,0.5644174321412054,68.96723024537128
33.0,91.62748202977204,0.0,0.5629280633155994,69.9649557434845
34.0,91.38143081271527,0.0,0.5614339738619696,70.9625841472525
35.0,91.13438898975303,0.0,0.5599345118906497,71.96010318855862
36.0,90.88623628643515,0.0,0.5584290308896507,72.95749935068369
37.0,90.6368518810084,0.0,0.5569168902514193,73.95475768799514
38.0,90.38611429520986,0.0,0.5553974560127962,74.95186160956715
39.0,90.13390129014671,0.0,0.553870101756629,75.94879264187234
40.0,89.8800897681753,0.0,0.552334209724922,76.94553016323175
41.0,89.62455567181551,0.0,0.5507891722451463,77.9420510857893
42.0,89.3671738854417,0.0,0.5492343934597436,78.93832949163743
43.0,89.10781814710174,0.0,0.5476692913155082,79.9343362363179
44.0,88.84636094859756,0.0,0.5460933001212598,80.93003845088626
45.0,88.58267345720004,0.0,0.5445058733518234,81.92539902290429
46.0,88.31662541975058,0.0,0.542906487235354,82.92037593589247
47.0,88.04808508984306,0.0,0.541294644686726,83.91492157189333
48.0,87.77691914379994,0.0,0.5396698801470641,84.90898185703978
49.0,87.50299260483811,0.0,0.5380317651736903,85.90249529096954
50.0,87.2261687733256,0.0,0.5363799148979743,86.89539183813584
51.0,86.9463091588006,0.0,0.5347139955653528,87.88759164147325
52.0,86.66327341390853,0.0,0.5330337333655116,88.87900352306792
53.0,86.37691927567936,1.053610519478777e-05,0.5313389245879597,89.86952326827783
54.0,86.08710251454352,1.1610460734440634e-05,0.5296294471780434,90.8590316789918
55.0,85.79367688087363,1.2825725371298512e-05,0.52790527433537,91.84739227979928
56.0,85.49649406244136,1.4201888436290463e-05,0.5261664898855137,92.83444872747707
57.0,85.19540364619068,1.5761818175092086e-05,0.5244133059050374,93.82002183499121
58.0,84.89025571608079,2.6283319761267915e-05,0.5226460828446446,94.80390616421278
59.0,84.5808990324081,4.632564423277986e-05,0.5208653519125028,95.78586622490322
60.0,84.26717614966716,6.849654557223455e-05,0.5190718409519979,96.76563205550424
61.0,83.94892894671587,9.30915050811818e-05,0.5172665026370025,97.7428943846076
62.0,83.62599728191407,0.0001204472281094291,0.5154505462337148,98.71729914180919
63.0,83.29821903162032,0.00015094682327159367,0.5136254719296399,99.6884414778941
64.0,82.96543014299021,0.00018502539361503964,0.5117931081355689,100.65585920467208
65.0,82.6274647006093,0.00022317597643131898,0.5099556513343984,101.61902570678777
66.0,82.28415501486988,0.00026595559956851415,0.508115707176614,102.57734252505357
67.0,81.93533172870671,0.0003139913487061572,0.5062763321519068,103.53013169834821
68.0,81.58082394638708,0.0003679861568901509,0.5044410741214211,104.4766281288271
69.0,81.22045938629651,0.0004287239208565154,0.5026140092655286,105.41597236213094
70.0,80.8540645609303,0.0004970734905502507,0.5007997727295256,106.34720421939024
71.0,80.48146498452606,0.0005739909395626703,0.4990035792282694,107.26925790248606
72.0,80.10248541130575,0.0006605194405163781,0.49723122945745585,108.1809592689645
73.0,79.71695010442926,0.0007577859163012559,0.4954890969973672,109.08102619922745
74.0,79.32468313961225,0.0008669937084745759,0.4937840910763829,109.96807286201118
75.0,78.92550874141186,0.0009894104327473254,0.49212358972195225,110.84061887181396
76.0,78.51925165005726,0.0011263504128290137,0.49051533925892415,111.6971040851281
77.0,78.10573752432396,0.0012791511349910742,0.48896731647817826,112.53590984018254
78.0,77.68479335853897,0.0014491441673990324,0.487487555302962,113.35538636823085
79.0,77.25624794386685,0.0016376203280905445,0.4860839373455843,114.15388658910963
80.0,76.81993231173004,0.0018457917235017427,0.4847639596796801,114.92980445915815
81.0,76.37568022761033,0.0020747504178845245,0.48353448104571406,115.68161722982732
82.0,75.92332864665013,0.0023254283574877413,0.4824014711087432,116.4079280542695
83.0,75.46271817335463,0.0025985607416601324,0.48136977832291017,117.10750604885601
84.0,74.99369351439252,0.002894655155900216,0.48044293012388334,117.77932139070244
85.0,74.51610389045301,0.0032139703099836416,0.479622988884341,118.42257148817815
86.0,74.02980370419094,0.003556493378515517,0.47891039709064565,119.03670859949459
87.0,73.534652046384,0.003921967966151984,0.4783041197000446,119.62141914848135
88.0,73.03051427852138,0.004309875179788832,0.4778015279214419,120.1766442582673
89.0,72.51726169796987,0.004719474680299762,0.47739861915541393,120.7025450782365
90.0,71.99477192139098,0.0051498327155182315,0.47709017289824024,121.19947782006729
91.0,71.46292926995467,0.0055998541656880965,0.47686992790212834,121.66796472532333
92.0,70.92162539434592,0.006068321733743466,0.4767308088561195,122.1086565603445
93.0,70.37075949147747,0.006553938302485232,0.4766651758123171,122.52229115048127
94.0,69.81023863383594,0.007055360887893775,0.47666502282792833,122.90965997946523
95.0,69.2399782911888,0.007571232612940568,0.47672216453861277,123.27157651093644
96.0,68.65990309598727,0.00810021160560092,0.47682841132629955,123.60884644427718
97.0,68.06994711771992,0.008640992148388352,0.4769757004162209,123.92224559648473
98.0,67.47005431446077,0.009192320028423198,0.4771561904470263,124.21250374413609
99.0,66.86017923607949,0.009753005870244304,0.4773623429585292,124.48029047318923
100.0,66.24028791232845,0.010321932568667347,0.477586974419367,124.72620619319163
101.0,65.61035814383072,0.010898056474048273,0.4778232709109682,124.95077979615937
102.0,64.97038006618972,0.011480407547587215,0.4780647950726952,125.15446746378723
103.0,64.3203568732583,0.012068090684099968,0.4783054955683524,125.33765075578864
104.0,63.66030630149141,0.012660281477333396,0.47853969332689783,125.50063889390196
105.0,62.99025938416977,0.013256215198860891,0.4787620244188346,125.64367954661016
106.0,62.310262889507875,0.013855191167027731,0.47896746392595585,125.76695363930735
107.0,61.62038005889709,0.014456560774109815,0.4791512712127503,125.87058549917879
108.0,60.920688170742224,0.01505972048124451,0.47930894581881944,125.9546513100529
109.0,60.21128510239658,0.0156641143212971,0.47943625389690286,126.0191730201486
110.0,59.492281523294835,0.016269215009618535,0.47952911984652424,126.06414017769823
111.0,58.76381200519641,0.016874534699163224,0.4795836975315419,126.08949467668796
112.0,58.02602311078737,0.017479604459601783,0.47959624931754424,126.09515574883088
113.0,57.2790875065104,0.018083982664194347,0.4795632145880269,126.08100548767152
114.0,56.523190124467696,0.018687241452182375,0.4794811158980968,126.04690844914371
115.0,55.75854387302966,0.019288969827396963,0.47934661039283766,125.99270144685642
116.0,54.985374460896395,0.019888768209863805,0.4791564238748783,125.91820696375129
117.0,54.203933048749406,0.020486241533672622,0.4789073669894716,125.82323153417562
118.0,53.41449098412987,0.021081005341575136,0.47859632942266955,125.70756663571781
119.0,52.61733667706323,0.021672673333932396,0.4782202446741237,125.57099700326208
120.0,51.812789327790746,0.022260864562333987,0.4777761368854643,125.4132941648509
121.0,51.00117593631406,0.0228451978277526,0.4772610507960387,125.23422704002438
122.0,50.18285711863455,0.02342528642257924,0.4766721135159242,125.03355755149671
123.0,49.35820924431544,0.02400074608975259,0.4760064980954386,124.81104444458461
124.0,48.527627222524764,0.024571186183661442,0.4752614237595371,124.56644510649008
125.0,47.691510446019535,0.024893084924522788,0.5817723332696216,54.855132826877465
126.0,46.849691127595534,0.026685449883863115,0.5987309352033671,46.50982922429788
127.0,46.0060120220989,0.02953191056507629,0.6038056304643463,42.87013062034724
128.0,45.16324990602113,0.03335725945532199,0.6053048793287218,40.49214684661412
129.0,44.32412814775309,0.03819933519392631,0.6050813484786643,38.69535382726352
130.0,43.49150962177874,0.044118087247274146,0.6038693069336794,37.22803526143568
131.0,42.66842838995028,0.05117725140302736,0.6020369973010128,35.97054568238655
132.0,41.85808199833893,0.05943717002204602,0.5997951505912774,34.857490770448486
133.0,41.06380441446445,0.06895098113935998,0.5972748797293479,33.849804204603394
134.0,40.2890342567034,0.07976211020714319,0.5945625064073279,32.92266777814484
135.0,39.53726372989031,0.0919029184900117,0.5917172086239956,32.05958109743702
136.0,38.81199389367154,0.10539367265886304,0.5887808094505441,31.249163137351854
137.0,38.11668052600528,0.1202420589690858,0.5857835279697902,30.48333079774519
138.0,37.454678038096155,0.13644306159975295,0.5827476137937381,29.756184078608204
139.0,36.82918420992375,0.15397907087163493,0.5796897032424566,29.063306547022172
140.0,36.24318580296046,0.17282016556083246,0.5766224049402582,28.401310504862117
141.0,35.69941588957439,0.19292498821825202,0.5735554477776517,27.76752266715879
142.0,35.200312258186166,0.2142409038464448,0.5704963708787181,27.15979599390385
143.0,34.74796702205532,0.23670517499516738,0.5674511190087221,26.576360575342658
144.0,34.344097086263595,0.26024575371093117,0.5644244338768527,26.015726002112235
145.0,33.99001867322783,0.2847822220524869,0.5614201459241981,25.47661171070355
146.0,33.68662958124138,0.3102267919391509,0.5584413905086236,24.957897161740757
147.0,33.43439718831043,0.33648534803082836,0.5554907683536886,24.45858629620598
148.0,33.23335006307443,0.3634585132741515,0.5525704659200408,23.977782325380257
149.0,33.083070852824946,0.39086786336953555,0.5496823465508368,23.514666686899503
150.0,32.9818579614016,0.42146058245809204,0.5468280134520292,23.06848703153765
151.0,32.93540883895705,0.4589700587825256,0.5440088683950841,22.63854604551846
152.0,32.956559375770226,0.5065046099379199,0.5412261494565428,22.224193361174517
153.0,33.06337650263295,0.5671891389594713,0.5384809616686114,21.824819393396485
154.0,33.27808521393441,0.6441608885488872,0.5357743008831605,21.43985054429582
155.0,33.625640244367005,0.7404914443866839,0.5331070722121902,21.068745392464432
156.0,34.13181505692005,0.8590896383517928,0.5304801045110326,20.710991621036847
157.0,34.82086910524678,1.002603811495815,0.5278941617831507,20.366103516998578
158.0,35.71299162335976,1.1733330951505265,0.5253499521109223,20.033619855605036
159.0,36.82174556930381,1.3731537241633547,0.5228481348624705,19.71310214692122
160.0,38.15185080157639,1.6034629832163756,0.5203893262203081,19.40413309701297
161.0,39.69756640842209,1.8651457383941068,0.5179741041684022,19.106315259666417
162.0,41.4419020196744,2.15855646707816,0.51560301201087,18.81926989231642
163.0,43.35680675283121,2.48352147918194,0.5132765613628751,18.542635904903666
164.0,45.404370383834426,2.839360302501902,0.5109952347447783,18.27606882264549
165.0,47.53879290389515,3.2249167736269557,0.5087594871833369,18.01923990289765
166.0,49.70892042073517,3.6386046846571185,0.506569748438004,17.771835466133833
167.0,51.86128201784874,4.0783547588760545,0.504426424514018,17.53355602679437
168.0,53.93828067067886,4.546647176854505,0.502329898518951,17.304115661826643
169.0,55.87658829904221,5.054473913582495,0.5002805317510601,17.08324132386958
170.0,57.60837452506626,5.618423335682172,0.498278664769379,16.870672274069726
171.0,59.059555261749075,6.258764082504082,0.496324618047515,16.66615949995359
172.0,60.14893148635879,6.997241441093965,0.4944186926950299,16.469465185388056
173.0,60.79044925064535,7.85443162477679,0.4925611710114453,16.280362204702794
174.0,60.89997414469079,8.846904397594221,0.4907523169951603,16.09863364625214
175.0,60.406587591219555,9.984565100737736,0.48899237682426383,15.924072379695424
176.0,59.26586673040204,11.26864514436058,0.4872815792729059,15.756480599993793
177.0,57.4715787536822,12.690555344951369,0.485620136152305,15.59566949772886
178.0,55.06265879033348,14.229667617970447,0.4839843116416962,15.442636053193763
179.0,52.13091847772116,15.845819558639672,0.48225124022298727,15.303119477413368
180.0,48.78838302172209,17.502064363412345,0.4804056122721245,15.17739754517704
181.0,45.15641374938783,19.161040885423425,0.4784521891204648,15.064805074226314
182.0,41.354086015916415,20.78593678824566,0.47639614870239533,14.964711732532887
183.0,37.48861191308314,22.34299296942253,0.47424305657450944,14.87651939501422
184.0,33.65058310733988,23.80286417305566,0.4719988358583084,14.799659731463775
185.0,29.91519981884498,25.138964402744072,0.4696697363457495,14.733592001680961
186.0,26.346241095741977,26.324868819809122,0.46726230300945576,14.677801036513166
187.0,22.999654272846886,27.33276799362222,0.46478334416087425,14.631795385978354
188.0,19.924968035056832,28.134105307156425,0.4622398994981529,14.59510561777456
189.0,17.163881217319148,28.702773215080434,0.45963920828110705,14.567282751347499
190.0,14.746737145570693,29.020113741870258,0.45698867780633207,14.547896807535079
191.0,12.688719654560668,29.079916644273634,0.4542958527039612,14.536535501070496
192.0,10.988044575482412,28.89119260725129,0.45156838135503286,14.53280312019795
193.0,9.623425900838319,28.481465865248182,0.4488959609737468,14.532798515947427
194.0,8.563856773507341,27.887381940514317,0.44636584441491783,14.532798515947427
195.0,7.777387944864577,27.146530337445938,0.44397939621242455,14.532798515947427
196.0,7.231589911495061,26.29721938380826,0.4417377786177689,14.532798515947427
197.0,6.897441288884296,25.374598155973786,0.43964206154427354,14.532798515947427
198.0,6.751370781695967,24.408506756030867,0.43769322586849463,14.532798515947427
199.0,6.775693774824286,23.422844182478844,0.43589216666827,14.532798515947427
200.0,6.957937275876542,22.435992372519493,0.43423969626310005,14.532798515947427
201.0,7.2896239309389355,21.461740247025407,0.43273654712566434,14.532798515947427
202.0,7.764919072021431,20.510313541589834,0.4313833750830748,14.532798515947427
203.0,8.379410941790715,19.589272762523603,0.4301807613332981,14.532798515947427
204.0,9.129031367428514,18.704278869557804,0.4291292152637426,14.532798515947427
205.0,10.009152172954291,17.859680619579684,0.4282291767804539,14.532798515947427
206.0,11.013851662906637,17.05897502984952,0.42748101820980094,14.532798515947427
207.0,12.13532918712153,16.305162104668906,0.4268850460135777,14.532798515947427
208.0,13.36357656714928,15.60093799612927,0.42644150202033343,14.532798515947427
209.0,14.68606572664258,14.948888135561136,0.42615056503500315,14.532798515947427
210.0,16.087598601203734,14.35168118855638,0.4260123515842651,14.532798515947427
211.0,17.550306501750743,13.812107410737836,0.42602691633022405,14.532798515947427
212.0,19.053903932788522,13.333067114319249,0.4261942522565436,14.532798515947427
213.0,20.57599197940074,12.917515830959697,0.42651429112336653,14.532798515947427
214.0,22.092501424786306,12.568385759497914,0.42698690266872147,14.532798515947427
215.0,23.578267581642432,12.288487874986698,0.4276118940107568,14.532798515947427
216.0,25.007546014596137,12.08039166101262,0.42838900914058864,14.532798515947427
217.0,26.3546060780315,11.946293563400705,0.42931792713707784,14.532798515947427
218.0,27.594320180466934,11.887882778515591,0.43039826085889016,14.532798515947427
219.0,28.702651871520224,11.906200261592042,0.43162955551292215,14.532798515947427
220.0,29.657244768010806,12.00150115622206,0.43301128598884475,14.532798515947427
221.0,30.437996376147996,12.173135352231153,0.43454285496689965,14.532798515947427
222.0,31.02762247331297,12.419434877116966,0.4362235907457719,14.532798515947427
223.0,31.412402746201895,12.73763041232802,0.43805274382137277,14.532798515947427
224.0,31.582842106231137,13.123801683503046,0.4400294843226566,14.532798515947427
225.0,31.534291213017426,13.572854315377333,0.44215289917309514,14.532798515947427
226.0,31.267424071843607,14.07853176671388,0.444421988909586,14.532798515947427
227.0,30.788497175736712,14.633476291488956,0.44683566425813415,14.532798515947427
228.0,30.109241760547782,15.229335917096098,0.4493927433334482,14.532798515947427
229.0,29.246722151140574,15.85665512846207,0.45208755324687905,14.532967990421236
230.0,28.2299259218208,16.49845905137604,0.45479503176059977,14.538070841518108
231.0,27.0900284280363,17.13995176356856,0.45744690810911226,14.550666240647345
232.0,25.856626064853845,17.769722397500242,0.46003609987533517,14.570960697236739
233.0,24.559514286960766,18.376753960605726,0.46255609950742654,14.59915006478169
234.0,23.22768092846216,18.95063142351883,0.4650009100145066,14.635422711860972
235.0,21.88848594796506,19.48175252411655,0.4673650682712543,14.679959358276417
236.0,20.56704780541775,19.961523227479532,0.4696436567775848,14.732933023941166
237.0,19.285831871378985,20.382562581342935,0.4718323143476453,14.79450895153966
238.0,18.064345551470936,20.738900146781468,0.47392724425884225,14.864844504832881
239.0,16.919033025528147,21.026137066746607,0.47592521139018895,14.944089180954698
240.0,15.863231791709115,21.24158408591375,0.47782354402065785,15.032384506252082
241.0,14.90727790918091,21.384306505181268,0.4796201232929015,15.12986405832323
242.0,14.058710831421404,21.455100056203097,0.4813133730155395,15.236653446266622
243.0,13.322548891435472,21.456377161864722,0.4829022467755284,15.352870281726942
244.0,12.70168156349748,21.391943657718837,0.48438568146532074,15.478645518431174
245.0,12.195967259308587,21.267981435541287,0.48579461884860264,15.61283069344906
246.0,11.801117342512036,21.094002398013764,0.4872270073876602,15.751533102256987
247.0,11.515404424661748,20.876316537893924,0.48868857736173293,15.894529351636344
248.0,11.336807321699265,20.62122308870599,0.4901785883675549,16.0418555554649
249.0,11.263028768568764,20.335035487749572,0.4916962907892571,16.193548359176678
250.0,11.291696534577735,20.02389378692809,0.4932409262022384,16.34964487556551
251.0,11.420504765619226,19.693624868739857,0.4948117277764858,16.51018262047836
252.0,11.647297247619464,19.349647657516115,0.4964079206931453,16.675199447841234
