Time,J,A,S,tau
0.0,100.0,100.0,0.6196747911971835,30.13647114239205
1.0,99.74325337371931,89.3085900927623,0.6183858098056442,31.105542378659685
2.0,99.49009079798518,79.76141600249933,0.6171056889963407,32.076000378381956
3.0,99.24031263333607,71.23803938237629,0.6158346881002484,33.047536645991585
4.0,98.99372778034501,63.628170840707035,0.6145725991686538,34.02006044117388
5.0,98.75015080369957,56.83347899692933,0.6133191785011862,34.993487209965615
6.0,98.5094015965069,50.7662836158096,0.6120741511450423,35.96773800753498
7.0,98.27130505406542,45.34837758306994,0.6108372149644543,36.94273896074581
8.0,98.03569076238738,40.51000590389878,0.6096080442852699,37.91842077331921
9.0,97.80239269920247,36.188946532869416,0.6083862931669801,38.89471826797973
10.0,97.57124894647286,32.329694878084254,0.6071715983417085,39.871569961824136
11.0,97.34210141426938,28.88273549218996,0.6059635818542441,40.84891767195675
12.0,97.11479557161644,25.80388115026791,0.6047618534476791,41.82670614528685
13.0,96.88918018781779,23.053701482793375,0.6035660127073166,42.80488271335637
14.0,96.66510708300115,20.59700824983165,0.6023756509959569,43.783396968593884
15.0,96.44243088689963,18.402397800546613,0.6011903532087736,44.76220045899064
16.0,96.2210088058218,16.44184360513222,0.6000096993722772,45.74124639890921
17.0,96.00070039483117,14.690324528836472,0.5988332661136683,46.72048939220465
18.0,95.78136733715296,13.125503827546591,0.5976606280156035,47.69988516726711
19.0,95.56287323023464,11.727440029631001,0.5964913588785073,48.679390321544346
20.0,95.34508337756262,10.47832944707488,0.5953250329108059,49.65896207311881
21.0,95.12786458610132,9.36227738834816,0.5941612258669259,50.63855801719082
22.0,94.91108496766203,8.365088632798251,0.5929995161482349,51.618135885298905
23.0,94.69461374509541,7.474086432058078,0.5918394858830281,52.59765330596844
24.0,94.47832106309819,6.6779496710432635,0.5906807220038484,53.577067564661114
25.0,94.26207780291514,5.9665675659436594,0.5895228173386424,54.556335360893335
26.0,94.04575540062716,5.330910780947935,0.5883653717355777,55.53541256000624
27.0,93.82922566842117,4.762913107914179,0.5872079932310313,56.51425393847228
28.0,93.61236061902527,4.255369073628047,0.5860502992783169,57.492812920716894
29.0,93.39503229315291,3.801842002657727,0.5848919180576907,58.47104130479725
30.0,93.1771125895021,3.396581824529484,0.5837324898837022,59.44888897481183
31.0,92.95847309680813,3.034452252865575,0.5825716687340622,60.426303596645965
32.0,92.73898492819589,2.710863865040127,0.5814091239078402,61.40323029644258
33.0,92.51851855773768,2.421716005021704,0.5802445418322726,62.37961131930353
34.0,92.29694365882611,2.1633447668961128,0.5790776280471462,63.355385664086285
35.0,92.07412894425391,1.9324764027675378,0.5779081093848217,64.33048869194162
36.0,91.84994200733978,1.7261860676787584,0.5767357363784502,65.30485170381932
37.0,91.62424916494506,1.5418599226729264,0.5755602859074248,66.2784014862991
38.0,91.39691530244636,1.3771620829946052,0.5743815640988533,67.25105982332299
39.0,91.16780371978405,1.2300051346511718,0.5731994095293265,68.22274296710152
40.0,90.93677597889858,1.098523675262974,0.5720136967472397,69.19336106558421
41.0,90.70369175181206,0.9810508863250335,0.5708243401587682,70.16281754003563
42.0,90.46840867054209,0.8760970514393684,0.569631298289102,71.13100841160619
43.0,90.23078217950513,0.7823307088249642,0.5684345784278979,72.09782157596962
44.0,89.9906653888258,0.6985619144346914,0.5672342417247374,73.06313601560989
45.0,89.74790892935216,0.6237271933585009,0.566030408751066,74.02682094757114
46.0,89.50236080866632,0.5568762081590098,0.5648232655773838,74.9887348990735
47.0,89.25386626937771,0.497159573730545,0.5636130703754748,75.94872470962777
48.0,89.00226765135615,0.44381808782074567,0.5624001605188791,76.90662446376753
49.0,88.74740425546264,0.39617321832424646,0.5611849602674028,77.86225434014203
50.0,88.48911221012514,0.35361853397461257,0.5599679890263718,78.81541937790648
51.0,88.22722434022839,0.31561210441083193,0.5587498702102018,79.76590815481039
52.0,87.9615700394899,0.2816695856567137,0.5575313406958887,80.71349137789841
53.0,87.69197514934041,0.25135805582257964,0.5563132607440997,81.65792040405668
54.0,87.41826184092643,0.22429060330294226,0.5550966244662671,82.59892567561927
55.0,87.14024850218355,0.20012144238199425,0.5538825707451153,83.53621508255135
56.0,86.85774962978707,0.17854157497787082,0.552672394550487,84.46947225667685
57.0,86.57057572690782,0.15927486528482374,0.551467558545974,85.39835480967253
58.0,86.27853321137056,0.1420745076696896,0.5502697046563227,86.32249256061114
59.0,85.98142432995394,0.12671994524548472,0.549080665582125,87.24148574905456
60.0,85.67904708140391,0.11301408387075373,0.5479024759733485,88.15490327107688
61.0,85.37119514843998,0.10078081426728004,0.5467373829840543,89.06228097293379
62.0,85.0576578394988,0.08986278108757288,0.5455878558821545,89.96312004300623
63.0,84.73822004628222,0.08011935968508212,0.5444565940364096,90.85688559657336
64.0,84.412662212309,0.0714248994830907,0.543346533029581,91.74300548074851
65.0,84.08076031557718,0.06366713441670876,0.5422608482909523,92.62086938045097
66.0,83.74228586623262,0.05674576724046439,0.5412029556221047,93.48982830839799
67.0,83.39700591996498,0.05057120043576728,0.5401765079627612,94.34919456426915
68.0,83.044683114359,0.04506337804630293,0.5391853873908965,95.19824230631723
69.0,82.68507572325925,0.04015078332085424,0.538233691851588,96.0362087977647
70.0,82.31793773271623,0.03576953178779776,0.5373257158212937,96.8622964357701
71.0,81.94549088301378,0.032449799808804976,0.5364659241857617,97.67567565746799
72.0,81.57623181805992,0.03194153892873118,0.5356589183627828,98.4754888903074
73.0,81.19895233667188,0.031437236193721116,0.534909397891012,99.26085644494559
74.0,80.81339248223303,0.03093688119880158,0.5342220989517429,100.03087839380991
75.0,80.41929012220804,0.03044046497920322,0.533601780495076,100.78464611202166
76.0,80.01637912068581,0.029947980005968777,0.5330530857016893,101.5212506919742
77.0,79.60438641510756,0.029459425139466897,0.5325804119990042,102.23979707165432
78.0,79.18303930171876,0.02897479833604969,0.5321881730401842,102.93938749828985
79.0,78.75206195336986,0.02849409806356233,0.5318802996628585,103.61916680725307
80.0,78.31117161675122,0.02801732993935663,0.5316600438353887,104.27834551464021
81.0,77.86008564185711,0.02754449933245753,0.5315306473899174,104.91613502213181
82.0,77.39852216554937,0.027075609239127024,0.5314947281249368,105.53181220776676
83.0,76.92619331062718,0.026610669897545694,0.5315535385755297,106.12479841711517
84.0,76.44281038849304,0.026149692625456043,0.5317082127495484,106.69452763726292
85.0,75.94808868954928,0.025692684023074983,0.5319595305305785,107.24047416928309
86.0,75.44174149277838,0.02523965721453479,0.5323060237047696,107.76235406935174
87.0,74.92348026520655,0.024790628616408694,0.5327457144015011,108.25993749632278
88.0,74.39301753763793,0.024345613546306627,0.5332765813520087,108.73299995813466
89.0,73.8500750975371,0.023904622819038563,0.5338951416041476,109.18147431505727
90.0,73.29437538647147,0.0234676744949126,0.534596188498765,109.60547017830181
91.0,72.72564054654124,0.023034787470311114,0.5353744189410079,110.00510680539645
92.0,72.14360338838432,0.022605975627667464,0.536223718000906,110.38058643788777
93.0,71.54800592523853,0.0221812584882237,0.5371361980231003,110.73227827443701
94.0,70.93859007104692,0.021760657741824393,0.5381037515421477,111.06057093824141
95.0,70.31510926303694,0.021344190691811576,0.5391177699607356,111.36589785515744
96.0,69.67733475801771,0.020931877287355006,0.5401683509881297,111.64879607223797
97.0,69.02503950588061,0.02052373983330222,0.5412453687177068,111.90981850731916
98.0,68.35801673234191,0.0201197968959372,0.5423381302388588,112.14955416605112
99.0,67.67607556187389,0.019720071995788832,0.5434352921354777,112.36862492869592
100.0,66.97903185336261,0.01932458711029178,0.5445253993282617,112.56765762439082
101.0,66.26673444114385,0.018933362829365447,0.5455965025659656,112.74728701617347
102.0,65.53904233107447,0.01854642443628721,0.5466364548002589,112.90814510297085
103.0,64.7958349647229,0.018163792474503018,0.5476329929311438,113.05085978191269
104.0,64.03702948270542,0.01778549051506932,0.5485736460917146,113.17603182629749
105.0,63.2625498332857,0.017411543406461494,0.5494459159233571,113.2842552363141
106.0,62.472361834682424,0.017041971104018335,0.5502372709754039,113.3760966076429
107.0,61.66646169132422,0.016676798966833786,0.5509352019360185,113.45208684855193
108.0,60.844859940609055,0.016316049408175076,0.5515272129609021,113.51274897422184
109.0,60.0076272235071,0.015959743030737415,0.5520009593141878,113.55855638075154
110.0,59.15485073741511,0.015607905019793188,0.5523441765070747,113.58996056885007
111.0,58.28665580706526,0.015260553978524816,0.5525447127054741,113.60739246907474
112.0,57.40322750937341,0.01491771177539084,0.5525907129665775,113.61123230128503
113.0,56.50476449562377,0.014579401394375973,0.5524704022681455,113.60184904513359
114.0,55.59152774928757,0.014242726045480719,0.5716652812642373,96.75499946541707
115.0,54.66381095654557,0.013906489578007494,0.6139825700543062,62.400167448199
116.0,53.721954956060586,0.013574930507756983,0.6295364575878043,51.09930140044728
117.0,52.76109455963626,0.019287776119113968,0.6359265398431955,45.48429824305165
118.0,51.80581981990377,0.0604382373615833,0.6382335498562994,41.933846671395926
119.0,50.92053136085102,0.09453590852898994,0.6381978543944469,39.40995139150843
120.0,50.09205387932685,0.12395857838686011,0.6366176167670348,37.48880039473034
121.0,49.31161423340431,0.1500104146839852,0.633927613226697,35.95913345034898
122.0,48.572813770398184,0.17348485687790366,0.6303927644857326,34.70144896332272
123.0,47.87066290532774,0.19489995481403913,0.6261878721385687,33.64197625996062
124.0,47.201065042087215,0.21461122677971758,0.6214353727399639,32.732191173034664
125.0,46.56051614269938,0.23287165762904385,0.6162251677644633,31.938596817321482
126.0,45.9459154343507,0.24986619403586904,0.6106258706289924,31.23717145716998
127.0,45.35444970956903,0.26573258762133917,0.6046915481309532,30.610171604357845
128.0,44.783509887087,0.2805749906456131,0.5984660225598024,30.044151484653728
129.0,44.230639207621635,0.29447281157892397,0.5919856447682934,29.52872568227449
130.0,43.693494282594315,0.3074870194449227,0.5852812098338936,29.0557326663244
131.0,43.1698253349377,0.31966456751166844,0.5783792979972113,28.61866857213613
132.0,42.65745864950997,0.33104172391007924,0.5713032277614114,28.212286467492937
133.0,42.15428972114827,0.3416465188526479,0.5640737448119589,27.832313649606533
134.0,41.658278090326384,0.3515006882360291,0.5567095355942252,27.47524146877696
135.0,41.16744575070134,0.360621249502651,0.549227627456531,27.138164199845814
136.0,40.67987644926994,0.36902177039927936,0.5416437088446248,26.818652671215997
137.0,40.193741111699076,0.3767130911025735,0.5339723265400156,26.514679942447263
138.0,39.70727976965815,0.3837044608528428,0.5262270420264771,26.224545581950153
139.0,39.218802838826505,0.390004362492884,0.5184206720099657,25.946791823094088
140.0,38.72675870888338,0.3956178972533234,0.510565284914648,25.68020345198718
141.0,38.229634905497186,0.400545702254262,0.5026723509145703,25.42373067095935
142.0,37.726099965237076,0.4047928293030113,0.49475282707083934,25.176485945210107
143.0,37.2061951312175,0.4387074138193471,0.4868171669509344,24.937699261919942
144.0,36.74677025453275,0.5261446569864469,0.4788753784832079,24.706714261889584
145.0,36.44488236521743,0.6546152364981728,0.470937072321227,24.482964372425908
146.0,36.355318644947054,0.8156247056075155,0.4630114811061785,24.265960033488714
147.0,36.500789684179274,1.0028181501074542,0.45510748020958586,24.055277104962183
148.0,36.879919551961486,1.2111242414176004,0.4472336035162885,23.850547148766932
149.0,37.474020106581506,1.4363133511579846,0.4393980550271644,23.65144923438306
150.0,38.252861177587356,1.6747471469043127,0.4316087175293091,23.4577030126853
151.0,39.17947609399963,1.9232270744230524,0.42387315843642104,23.26906285747085
152.0,40.21402389806433,2.178898445980468,0.4161986336452139,23.085312899732163
153.0,41.316756397778036,2.4391873444765366,0.40859208999968794,22.9062627781923
154.0,42.4501726667589,2.701758542511296,0.40106016710716846,22.731744052746542
155.0,43.580478990158184,2.9644868600343104,0.39360919630819646,22.561607145552767
156.0,44.678444488147996,3.225436527626427,0.38624520304185206,22.39571868330579
157.0,45.719805585115985,3.4828472285054852,0.37897390509861745,22.233959263933954
158.0,46.685337739585705,3.735124315027584,0.37180071204267906,22.076221587547234
159.0,47.560622377628754,3.9808300331061655,0.3647307272279939,21.922408747632115
160.0,48.33569281674962,4.218677962329431,0.35776874676519793,21.77243286982865
161.0,49.00454914893137,4.447527502313147,0.35091926092382586,21.62621386861893
162.0,49.56464669869303,4.6663768999429776,0.3441864554068951,21.4836784600102
163.0,50.01634871529964,4.874353986371834,0.3375742139388672,21.344759286716638
164.0,50.358828671046055,5.074212231457776,0.3310861227060124,21.209394056212485
165.0,50.55574596217891,5.303606220057253,0.32472546784408224,21.077524988898553
166.0,50.561432334163506,5.602886023222514,0.31849524588421246,20.949098232143854
167.0,50.344661324127465,5.990297181875044,0.3123981672123325,20.82406337656016
168.0,49.884215444150236,6.468298976576127,0.3064366622918463,20.702373045357582
169.0,49.16762372580436,7.028839369142054,0.3006128885344028,20.583982544405874
170.0,48.19220059722271,7.657551707424825,0.2949287367359898,20.468849552523675
171.0,46.966580178205376,8.336950276334301,0.289385840384933,20.3569338647411
172.0,45.51094740611952,9.048780040606967,0.2839855841536379,20.248197171143644
173.0,43.85541930868911,9.77562637356,0.27872911312410664,20.142602864264564
174.0,42.037037134084066,10.501910256928696,0.2736173431998125,20.04011587379233
175.0,40.09625019220975,11.214415399280268,0.26865097159595586,19.94070252650894
176.0,38.07364139762403,11.90247877659954,0.2638304875207781,19.84433042870932
177.0,36.00742716747148,12.557929210806776,0.25915618356801645,19.750968357432072
178.0,33.93228036066916,13.174391722774509,0.2546208924740486,19.661079706083232
179.0,31.880442547088236,13.74540322878529,0.25018661613863336,19.577187327455626
180.0,29.87671036107065,14.268631138761922,0.24584910458612125,19.49949155188819
181.0,27.94029112859765,14.743584246407892,0.24161001545800845,19.427790532348784
182.0,26.085648584153386,15.170884840095427,0.2374709377914877,19.361887519424457
183.0,24.323134440915215,15.551994326619873,0.2334333898895898,19.301590584138317
184.0,22.66009420926261,15.888516747023159,0.22949881794297775,19.246712383163914
185.0,21.103399394311104,16.180246009619548,0.22566859466149536,19.197069946744897
186.0,19.660706432120705,16.424590578111957,0.2219440184959743,19.15248445678728
187.0,18.340252871801535,16.617298979056958,0.21832631350481418,19.1127810581443
188.0,17.149982654867294,16.7536724060812,0.2148166299751651,19.077788670489955
189.0,16.096279029172443,16.829998772445474,0.21141604552248303,19.047339811585278
190.0,15.182858100942001,16.84470765973977,0.2081255667360189,19.021270417070898
191.0,14.410158795604382,16.798939573707553,0.20494613041348372,18.999419740136965
192.0,13.775523445780175,16.696303651133277,0.20187861166397592,18.98163008146014
193.0,13.273785588092016,16.542364192935878,0.19892381897305994,18.967746758667786
194.0,12.898014275638227,16.343823386200913,0.1960825042853506,18.957617910981014
195.0,12.64027431811163,16.10781606855992,0.1933553661966379,18.951094371033264
196.0,12.492217403501064,15.841361747078174,0.19074305466637909,18.94802954291891
197.0,12.44528064604444,15.551206191503033,0.18825500513494262,18.947697508752828
198.0,12.490494761741504,15.243982819625309,0.18592603536756275,18.947697508752828
199.0,12.619918427015614,14.924853593409688,0.18375955923762624,18.947697508752828
200.0,12.82611680390185,14.598147569400057,0.18175399845951845,18.947697508752828
201.0,13.102050726688324,14.267523304464044,0.17990783590331222,18.947697508752828
202.0,13.44105639679642,13.936035708365605,0.17821962686251078,18.947697508752828
203.0,13.836815474813763,13.606214697206084,0.1766880096638904,18.947697508752828
204.0,14.283287250550714,13.280184613819541,0.1753117149688794,18.947697508752828
205.0,14.774598136521856,12.959806616501844,0.17408957406654504,18.947697508752828
206.0,15.304943730347418,12.646787692739082,0.17302052691022465,18.947697508752828
207.0,15.86853063323897,12.34274826541981,0.17210362885936029,18.947697508752828
208.0,16.459548392491687,12.049248673637655,0.17133805685841005,18.947697508752828
209.0,17.07219796791983,11.767783107129857,0.17072311421378278,18.947697508752828
210.0,17.700719724438358,11.499755242419686,0.17025823514219673,18.947697508752828
211.0,18.339453307339085,11.246449957614093,0.16994298809855807,18.947697508752828
212.0,18.982891728271138,11.009013365096067,0.16977707834849665,18.947697508752828
213.0,19.62573022647781,10.788440426748663,0.16976035007539775,18.947697508752828
214.0,20.262921542583914,10.585573720741483,0.1698927863272234,18.947697508752828
215.0,20.88969051383058,10.401107641135397,0.170174510037913,18.947697508752828
216.0,21.501553323901174,10.235595469525922,0.17060578348539895,18.947697508752828
217.0,22.09437751855977,10.089442773498174,0.1711870051272058,18.947697508752828
218.0,22.664342841105697,9.962925165888661,0.17191870894460068,18.947697508752828
219.0,23.20795944435514,9.856214505959462,0.17280156057251947,18.947697508752828
220.0,23.72200483385084,9.76939045828274,0.17383635340218087,18.947697508752828
221.0,24.203523016571232,9.70245084015759,0.1750240041362203,18.947697508752828
222.0,24.649814900254253,9.655323660963242,0.1763655432565945,18.947697508752828
223.0,25.05840766881176,9.627872842177434,0.17786211330726476,18.947697508752828
224.0,25.427009132869273,9.61990190919238,0.1795149622210308,18.947697508752828
225.0,25.753482274575106,9.631159005808225,0.18132542737960464,18.947697508752828
226.0,26.035920088563653,9.661333051917513,0.18329493199034355,18.947697508752828
227.0,26.272551062664746,9.710043915895248,0.18542497915819073,18.947697508936173
228.0,26.46176413253776,9.776853389821289,0.18771712724932985,18.94769751361171
229.0,26.60234725211802,9.861174971846925,0.1901702818501051,18.947851000646654
230.0,26.69427297271982,9.961406085467779,0.19274980142856257,18.95018123599564
231.0,26.737840536118618,10.07612467478188,0.1954350340997528,18.955859623216313
232.0,26.7332753831076,10.204302361963109,0.1982232398317437,18.965029709264247
233.0,26.681122961475204,10.344875820662178,0.20111226177358787,18.977796039137537
234.0,26.582295228055482,10.49673969026689,0.20409986398868146,18.994261739953465
235.0,26.438081184538365,10.658754199070282,0.20718373665591153,19.014527831183727
236.0,26.250122445916233,10.829755985721446,0.21036149779135196,19.03869329866842
237.0,26.020414411251732,11.008566919240732,0.21363069718770317,19.066855097810627
238.0,25.751297676777163,11.193999726035454,0.21698881664815148,19.099107995833688
239.0,25.445435618677998,11.38486254235856,0.2204332698938136,19.135544578274068
240.0,25.105782525074304,11.579963126884303,0.22396140979311055,19.176255320698047
241.0,24.735547594900655,11.778110901064498,0.22757053291156118,19.22132848468173
242.0,24.338174232868038,11.978119199528473,0.23125787940596584,19.27085003058796
243.0,23.917297564396364,12.17880764835665,0.23502064047281554,19.324903741364476
244.0,23.476694367451916,12.379003535656663,0.2388559655593611,19.383571189306938
245.0,23.020242162546705,12.577545092446906,0.24276096616792447,19.446931589929424
246.0,22.5518986030214,12.7732868316355,0.24673271955245465,19.515061925600655
247.0,22.075645613700342,12.965103430242804,0.2507682778434807,19.588036982675852
