Time,J,A,S,tau
0.0,100.0,100.0,0.6196747911971835,30.13647114239205
1.0,99.61957558762275,89.15422345010178,0.6184021086332147,31.025760964628454
2.0,99.24500025059385,79.48649771446442,0.6171208376186827,31.919142305362932
3.0,98.87595799599893,70.87078968629399,0.6158328459559673,32.81610932366107
4.0,98.51214315529977,63.19204335275175,0.6145393484111498,33.716380395267436
5.0,98.15326027155368,56.34786818501854,0.6132414324264661,34.61968959655075
6.0,97.79902349342645,50.2471418286701,0.6119400680957024,35.5257855620682
7.0,97.44915599638121,44.808749156039916,0.6106361178477321,36.43443036840564
8.0,97.10338942831333,39.96047415849339,0.609330345798431,37.34539844751593
9.0,96.76146338262461,35.638020052763956,0.6080234266878684,38.25847553883591
10.0,96.42312489489802,31.784134699596827,0.6067159544173921,39.1734576777599
11.0,96.08812796164591,28.34783360857979,0.605408450184326,40.090150220503844
12.0,95.75623308074246,25.28371313764251,0.6041013702118012,41.00836690574556
13.0,95.42720680993428,22.55132919127454,0.6027951131114025,41.927928948416294
14.0,95.10082134230704,20.11465235650415,0.60149002689171,42.84866416440765
15.0,94.77685410028083,17.941584535580088,0.6001864156120296,43.77040612690935
16.0,94.45508734558005,16.003527401981643,0.5988845457241798,44.692993349529694
17.0,94.13530780417051,14.274998730907333,0.5975846521320353,45.61626849308878
18.0,93.81730630583837,12.733292922543407,0.5962869439979113,46.54007759305549
19.0,93.50087743587238,11.358173298709609,0.5949916103389474,47.464269302729335
20.0,93.185819198554,10.13160274151192,0.5936988254384071,48.38869414973358
21.0,92.87193269308767,9.037504032576413,0.5924087540992683,49.31320380296033
22.0,92.55902180035925,8.061545840143513,0.5911215567801154,50.23765034540861
23.0,92.24689287985977,7.1909523382057925,0.5898373946470046,51.16188554913095
24.0,91.93535447641844,6.414334564976259,0.5885564345783925,52.085760147894185
25.0,91.62421703526894,5.721537346326669,0.5872788541517544,53.00912310443774
26.0,91.31329262543764,5.1035054945831755,0.5860048466390675,53.93182086927719
27.0,91.00239467153857,4.55216444616883,0.5847346260466251,54.85369662663758
28.0,90.69133769307379,4.060313656876959,0.5834684322286989,55.77458952398177
29.0,90.37993705082539,3.62153172773605,0.5822065361041913,56.694333881517025
30.0,90.06800869992776,3.230092259533161,0.5809492450138316,57.61275837665395
31.0,89.7553689492333,2.8808874061298315,0.5796969082204245,58.52968520364159
32.0,89.44183422685961,2.569361131958844,0.5784499225784254,59.4449292048624
33.0,89.12722085179672,2.291449532961943,0.5772087384027547,60.35829696950644
34.0,88.81134481123354,2.0435275313147137,0.5759738655464477,61.26958589833524
35.0,88.4940215434004,1.8223614220964042,0.5747458796994173,62.17858323264546
36.0,88.17506572549914,1.625066727981846,0.5735254289318772,63.08506504359428
37.0,87.85429106746767,1.449069897941367,0.5723132404330757,63.988795188984525
38.0,87.53151011109631,1.2920748948903034,0.5711101274551557,64.88952423536497
39.0,87.20653403448675,1.152033259348579,0.5699169964554471,65.78698834540046
40.0,86.87917246198919,1.027117369443453,0.5687348543944654,66.68090813573097
41.0,86.54923327963094,0.9156966330487503,0.5675648161469072,67.57098751014185
42.0,86.21652245569855,0.8163163107749096,0.5664081119894108,68.45691247137249
43.0,85.88084386839283,0.727678275764929,0.5652660950036669,69.33834993371869
44.0,85.54199913953444,0.6486242363861616,0.5641402483380853,70.21494654205517
45.0,85.19978747474174,0.5781206791734407,0.5630321922119096,71.08632751119951
46.0,84.85400551066141,0.5152454196845159,0.5619436904914639,71.95209550735703
47.0,84.50444716952704,0.4591756280971239,0.5608766566583722,72.81182959412763
48.0,84.15090352098844,0.4091771601615631,0.559833158978661,73.66508426618394
49.0,83.79316265429418,0.36459487245801375,0.5588154245084017,74.51138862036464
50.0,83.43100955921012,0.3248441773750513,0.5578258417251714,75.35024568887471
51.0,83.06422601685311,0.289403453965882,0.5568669614606575,76.18113197587996
52.0,82.69259050147103,0.2578072696806354,0.5559414957537305,77.00349724682431
53.0,82.32262950985451,0.23127057979431456,0.5550523142817955,77.81676461156125
54.0,82.03647411788528,0.22764725536344146,0.5542024370555426,78.62033112776032
55.0,81.74563561834354,0.22406010220906475,0.5533950157082718,79.4135704909704
56.0,81.44991197434115,0.22050791348595927,0.552633364769279,80.19582520141944
57.0,81.14910222145512,0.21699016013461872,0.5519208574102424,80.9664273541776
58.0,80.84299471917674,0.21350635457100892,0.5512609948663598,81.72467829681779
59.0,80.5313696516439,0.21005605469156508,0.5506573276394672,82.46986420708309
60.0,80.21400751763441,0.20663880698948017,0.5501134323796254,83.20126660867203
61.0,79.8906762554419,0.2032541950714571,0.5496328570305204,83.91815191829757
62.0,79.56113414626688,0.1999018527557677,0.5492190757404647,84.61978523422835
63.0,79.22513996288866,0.19658140280357317,0.5488755724653478,85.30542927558284
64.0,78.88243982572715,0.1932924972430192,0.5486055371340851,85.97436320902314
65.0,78.53276854193142,0.19003483982085145,0.5484119028603053,86.62588513388673
66.0,78.17586209517377,0.18680812168800273,0.5482976134704918,87.25929151917636
67.0,77.81144406387881,0.18361205550869772,0.5482649915584017,87.87393376363285
68.0,77.43922339837785,0.18044641309366471,0.5483157848462235,88.46921613986626
69.0,77.05890967489856,0.17731096120540707,0.5484517440329143,89.0445426499199
70.0,76.67020712612087,0.17420545634982273,0.5486739719435407,89.5993806237977
71.0,76.27279942229356,0.17112972547606356,0.5489823789810316,90.13331324055211
72.0,75.86636841521303,0.16808360366950417,0.5493767911518839,90.64593191332636
73.0,75.45059989536193,0.1650668900387907,0.5498567886778947,91.13685437260096
74.0,75.02515510055036,0.16207945334727308,0.5504199510801923,91.60589209297196
75.0,74.58968661440089,0.15912119576177994,0.5510633549473936,92.0529043541343
76.0,74.14384753789656,0.15619201647234396,0.5517840684249053,92.47775148845645
77.0,73.68729255826422,0.15329178303024535,0.5525782280856982,92.88038389673676
78.0,73.21965662713396,0.15042042525810084,0.5534402293620436,93.2609096540553
79.0,72.7405700277238,0.14757789334082871,0.5543642795216395,93.61945270013675
80.0,72.24966860696077,0.14476410785499833,0.5553441637556421,93.95617536831207
81.0,71.74657544092466,0.14197903173936763,0.5563720335333562,94.27137182885446
82.0,71.23090637525628,0.1392226574391705,0.5574396767732384,94.56536344404418
83.0,70.70228292642088,0.13649495603431824,0.5585386062992235,94.83849249976957
84.0,70.16032518112682,0.13379591424979104,0.5596591074330082,95.09118243163378
85.0,69.60464581272501,0.1311255525316659,0.5607911212840446,95.3238761718129
86.0,69.03486782498581,0.12848386637318998,0.561924200871911,95.53703694434512
87.0,68.45061220763942,0.1258708895317219,0.5630470909322248,95.73115961307451
88.0,67.85150016302488,0.1232866617611888,0.5641484104986529,95.90674314080732
89.0,67.23717038263567,0.12073120475497985,0.5652163070209203,96.06429367040695
90.0,66.60726025162212,0.11820458444702102,0.5662385297517494,96.20431565113799
91.0,65.96141683328777,0.1157068498341535,0.5672027458656521,96.32731271978648
92.0,65.29931165568267,0.11323805300150344,0.568096252036839,96.43376975851513
93.0,64.6206155713069,0.11079827985964319,0.5689062218573734,96.52416060909032
94.0,63.92502576818471,0.10838758201001068,0.5696197407686926,96.5989482919531
95.0,63.21226517742864,0.10600604200102912,0.5702237303990615,96.65855931113502
96.0,62.48206116826216,0.10365375511076136,0.5707050918281648,96.70341112947105
97.0,61.73418477371062,0.10132888291206577,0.5739769186732335,94.52977586433897
98.0,60.968427203982856,0.09902836815434722,0.5879032469265901,84.48217876798907
99.0,60.18460668573625,0.09675740435803096,0.6048180057421932,72.45769363883058
100.0,59.382585218565445,0.09451608361386889,0.6198448157389715,61.89610447621661
101.0,58.56226380726539,0.09230449797848152,0.6302902686835319,54.30587670841117
102.0,57.720029801700974,0.09371990478972689,0.6366702768964657,49.0116402967874
103.0,56.85090820786883,0.39206422103398963,0.640090750143766,45.18376135914614
104.0,56.48476416192682,0.6420155468835435,0.6413823845080586,42.2928625768605
105.0,56.505462601808624,0.8571109824098381,0.6410933540213374,40.02657649999496
106.0,56.83088720093971,1.0459898548112883,0.6395862448776519,38.195766191005646
107.0,57.39962460267444,1.2144061014734546,0.637108506567982,36.68061793644087
108.0,58.163582341302906,1.366345402277143,0.6338352180771122,35.40175782915599
109.0,59.08368973946394,1.504660638558508,0.6298945498177704,34.30449436792122
110.0,60.1272653934125,1.6314495640269782,0.6253832928308505,33.34984692842106
111.0,61.26633470151804,1.748288258731911,0.6203765961900946,32.509225807536836
112.0,62.476526254940616,1.8563813380279957,0.6149343069366121,31.761139648690804
113.0,63.73631774419119,1.9566612558663838,0.609105148156833,31.089103697392748
114.0,65.02652423670953,2.049856454116385,0.6029296123538767,30.480252645905253
115.0,66.32991829569504,2.136540129527444,0.5964419985832574,29.92438870029423
116.0,67.6309683522174,2.217164928592273,0.5896718637497149,29.413327252346487
117.0,68.91563274792492,2.292089312396619,0.5826450906292048,28.940423115622565
118.0,70.17122322798508,2.361596700586637,0.57538466052766,28.500237777343223
119.0,71.3862832482534,2.4259112910603142,0.567911267822411,28.08827899324253
120.0,72.55049333523783,2.485210288705192,0.5602437791106276,27.700809066983556
121.0,73.65459851749728,2.5396337195112277,0.5523995756857834,27.33470156001613
122.0,74.6903657703431,2.5892916309664087,0.5443948247671814,26.987334942663814
123.0,75.65050370604311,2.634272472965748,0.5362447053510665,26.656492616291565
124.0,76.5286249902558,2.674645239087629,0.5279635812025337,26.34029538509217
125.0,77.31917986941306,2.7104620923564386,0.5195651561566703,26.03714147754908
126.0,78.0174729691229,2.741774468767956,0.5110625250309311,25.74568017704994
127.0,78.61953239129012,2.7686318244887977,0.5024683246148731,25.464742083682363
128.0,79.03538637225635,2.886369239364366,0.49379477966953733,25.19333897584709
129.0,79.0837667692434,3.3559731265806514,0.4850537429332937,24.93061320102483
130.0,78.86369070744834,4.084602873267182,0.47625674560198145,24.675833389657875
131.0,78.3323802563361,4.991192351491209,0.46741503682731,24.428369809987426
132.0,77.38909395956215,6.019590290437328,0.4585396028085276,24.18768018193833
133.0,75.95596104729562,7.128678814840635,0.44964118354633914,23.95329691055429
134.0,74.00888656582899,8.28715847101026,0.4407302835519172,23.724816263558942
135.0,71.57549575344774,9.470562527017705,0.43181717770355915,23.501889151538013
136.0,68.71922481406172,10.659431961966526,0.42291191280207197,23.284213283940908
137.0,65.52178093657848,11.838133245073038,0.41402430555676845,23.07152645620909
138.0,62.06938922115405,12.994055646896815,0.405163937688441,22.863600824921086
139.0,58.44402325597109,14.117034441787911,0.39634014899140574,22.66023792228032
140.0,54.71874844463838,15.198934285976923,0.3875620278712384,22.461264531329103
141.0,50.95600496230583,16.233319057589625,0.3788384003335024,22.266529003488298
142.0,47.207591200569766,17.21519123233516,0.3701778198158615,22.075898158781257
143.0,43.51550671694452,18.140784245671746,0.36158855280119917,21.889254673767805
144.0,39.9132328259095,19.007376013246628,0.35307856880802085,21.7064947116223
145.0,36.4269670856043,19.813143440051277,0.3446555243837847,21.527526043508338
146.0,33.07685697774147,20.557021831537245,0.3363267539948927,21.35226631128784
147.0,29.878038130433215,21.23858894585295,0.32809925711812754,21.180641595656272
148.0,26.841503113317028,21.857962161172846,0.3199796846324418,21.01258518693524
149.0,23.970002779278335,22.42053436700132,0.31197433523960905,20.848036549535085
150.0,21.233271886668337,22.961818731201348,0.30408913527943776,20.68694035600124
151.0,18.649204982030504,23.467168467254844,0.29632964130686545,20.529245773451933
152.0,16.286430084999083,23.870620450965436,0.28870102781635304,20.374905778237718
153.0,14.205879394200725,24.113041075545404,0.2812066274992474,20.22398730465013
154.0,12.437860544152413,24.16461467744419,0.2737966837755227,20.08052705323379
155.0,10.977498659470388,24.02968573244503,0.26644143686098565,19.94693892774239
156.0,9.798173858258023,23.73396513098456,0.25914659479473673,19.822936466190182
157.0,8.866762849111108,23.309899380457573,0.2519177296169912,19.708253251866562
158.0,8.151342738932211,22.78929846383127,0.24476039931230886,19.602631670215704
159.0,7.624750123583491,22.199821054566076,0.23768012685536455,19.505822351430822
160.0,7.265477011919365,21.563929571323218,0.23068237825310986,19.417583675396397
161.0,7.05718111038088,20.899120688310756,0.2237725395228616,19.337681330426733
162.0,6.987634661866252,20.2186692059576,0.2169558930488419,19.265887917202967
163.0,7.0475529876730025,19.532480289816725,0.21023759294027503,19.201982585377337
164.0,7.229533689214508,18.847861783606128,0.203622642155058,19.145750709293104
165.0,7.527140114039847,18.170160872478146,0.19711586577600032,19.096983594732137
166.0,7.934214548825643,17.503264395369037,0.19072189134870957,19.055478194564994
167.0,8.444309399522444,16.849974570098045,0.18444512127844734,19.02103685221985
168.0,9.050356902572565,16.212277511677662,0.17828971496195642,18.9934670882991
169.0,9.744647139480199,15.591342898387992,0.17225956784171423,18.97258134354772
170.0,10.518604386372736,14.987805724521731,0.16635828971287195,18.958196808678117
171.0,11.362164331563498,14.40249742573754,0.1605891934687874,18.950135214670805
172.0,12.263751232931204,13.83650371869806,0.1549574987558101,18.94804442283339
173.0,13.210506431763694,13.291093067451907,0.14951136796168193,18.94804675349979
174.0,14.188905237558442,12.7673378820905,0.14427462529555538,18.94804675349979
175.0,15.185151715207391,12.26603032548647,0.13924429948625944,18.94804675349979
176.0,16.18546603896797,11.787785667779373,0.13441714138958522,18.94804675349979
177.0,17.1764040731844,11.33306696860401,0.12978962623778523,18.94804675349979
178.0,18.145197947580176,10.902202989096644,0.12535798434215192,18.94804675349979
179.0,19.080081047152586,10.49539897163523,0.12111823810151981,18.94804675349979
180.0,19.97056170688547,10.11273789162594,0.11706623156749887,18.94804675349979
181.0,20.807668146986728,9.754176215218926,0.11319766021577918,18.94804675349979
182.0,21.584117023506614,9.419539037430331,0.10950810543575555,18.94804675349979
183.0,22.294416089377805,9.10851387691205,0.10599306083857142,18.94804675349979
184.0,22.934900551354335,8.820646525524236,0.10264796042749143,18.94804675349979
185.0,23.503710834819476,8.55533957818882,0.09946820361427051,18.94804675349979
186.0,24.000671889975717,8.311859031184659,0.09644918100263494,18.94804675349979
187.0,24.427015988220734,8.089334325313077,0.09358631683271515,18.94804675349979
188.0,24.78550133185817,7.886775963199814,0.09087504996374834,18.94804675349979
189.0,25.07987523644157,7.7030981418829425,0.08831088551753194,18.94804675349979
190.0,25.314694534375832,7.537120306901167,0.0858894163063601,18.94804675349979
191.0,25.49534044738931,7.387585830587048,0.08360631190263468,18.94804675349979
192.0,25.62757011344481,7.253170823104854,0.0814573574397665,18.94804675349979
193.0,25.71734068835024,7.132505697609348,0.07943846286700096,18.94804675349979
194.0,25.770621094156,7.024203481397347,0.07754567638200098,18.94804675349979
195.0,25.79326842544761,6.926888087833213,0.0757751939285126,18.94804675349979
196.0,25.790881771334806,6.839220262139454,0.07412336951910778,18.94804675349979
197.0,25.768698470549555,6.759920664560862,0.0725867243715447,18.94804675349979
198.0,25.73152739650444,6.687790030652953,0.0711619545856165,18.94804675349979
199.0,25.683706020832837,6.621726067769658,0.06984593839335997,18.94804675349979
200.0,25.629089643044523,6.560737524325917,0.06863574298557855,18.94804675349979
201.0,25.571058203135777,6.503952596375616,0.06752862787581157,18.94804675349979
202.0,25.512524954874948,6.450624064604452,0.06652205101731805,18.94804675349979
203.0,25.455970847910123,6.40012764977536,0.06561366821340682,18.94804675349979
204.0,25.40348334020334,6.351961036315166,0.06480133836072928,18.94804675349979
205.0,25.35680504759829,6.305741687173058,0.06408313318001277,18.94804675349979
206.0,25.317339699089914,6.261193846973899,0.06345732888668155,18.94804675349979
207.0,25.286288715088062,6.218134273158868,0.06292240138736234,18.94804675349979
208.0,25.264584236343904,6.176477285528011,0.06247706266671346,18.94804675349979
209.0,25.252969020382455,6.13620054023474,0.06212020186336367,18.94804675349979
210.0,25.25212892107714,6.097354184774363,0.06185095966855602,18.94804675349979
211.0,25.262472729122724,6.060034399159882,0.06166864989972275,18.94804675349979
212.0,25.28453985324181,6.024382033472797,0.061572843283127364,18.94804675349979
213.0,25.31857341812106,5.990568025418682,0.0615632745704096,18.94804675349979
214.0,25.36496389191252,5.958788862748801,0.06163994775378617,18.94804675349979
215.0,25.4238749166127,5.929257657121131,0.061803022620051586,18.94804675349979
216.0,25.49560582587646,5.9021985212326875,0.06205293414366802,18.94804675349979
217.0,25.580277528610793,5.87784363582242,0.062390266816306224,18.94804675349979
218.0,25.67811388025621,5.8564276905851145,0.06281588544289239,18.94804675349979
219.0,25.789202516712013,5.8381882423243265,0.06333079806096385,18.94804675349979
220.0,25.91368647066681,5.823361821617423,0.06393629672125013,18.94804675349979
221.0,26.051609557807506,5.812185172254966,0.06463381071435903,18.94804675349979
222.0,26.203013182875967,5.8048939914261215,0.06542505479222208,18.94804675349979
223.0,26.367872252269148,5.8017233280860605,0.06631187554540295,18.94804675349979
224.0,26.54609445706056,5.802909260214194,0.06729640315322412,18.94804675349979
225.0,26.737549423771622,5.808687601655772,0.0683808951481042,18.94804675349979
226.0,26.941970770527053,5.819298276968957,0.0695678861787885,18.94804675349979
227.0,27.15907575634596,5.834982139412401,0.07086003491744537,18.94804675349979
228.0,27.388377520995217,5.855987401835121,0.07226026479958128,18.94804675349979
229.0,27.629384725726826,5.8825649654485055,0.07377162111475652,18.94804675349979
230.0,27.881337205249313,5.914975944591658,0.07539739450567272,18.94804675349979
231.0,28.143471130220757,5.953486254420885,0.07714099626037235,18.94804675349979
232.0,28.414694634361613,5.998374130165185,0.0790060554463388,18.94804675349979
233.0,28.693901486793756,6.049924883230133,0.08099632117343242,18.94804675349979
234.0,28.97960650519489,6.108437254698608,0.08311572364332939,18.94804675349979
235.0,29.270294035143046,6.174219963090209,0.08536831979077451,18.94804675349979
236.0,29.5640432292455,6.2475942311144514,0.08775829380615312,18.94804675349979
237.0,29.858787620105986,6.32889149020771,0.09028992836325107,18.94804675349979
238.0,30.15215486176188,6.418458815466745,0.09296763926977145,18.94804675349979
239.0,30.441515642406465,6.516650233414476,0.09579587351120918,18.94804675349979
240.0,30.723974200788213,6.623836381313752,0.09877920334485919,18.94804675349979
241.0,30.99633079198776,6.740393068506345,0.10192218774471049,18.94804675349979
242.0,31.255129183459502,6.866706030668196,0.10522942581704911,18.94804675349979
243.0,31.49663550704773,7.003168609038799,0.10870552494625459,18.94804675349979
244.0,31.716874108279384,7.150176172404997,0.11235504383950028,18.94804675349979
245.0,31.911663986826756,7.30812569295495,0.11618250012779008,18.94804675349979
246.0,32.07663515620875,7.47741195217495,0.12019234270459535,18.94804675349979
247.0,32.20729873932608,7.658419544413081,0.12438888350908485,18.94804675349979
248.0,32.299104806939276,7.851520946332148,0.12877630877250612,18.94804675349979
249.0,32.347509535704276,8.057069325343818,0.13335865041900222,18.94804675349979
