Time,J,A,S,tau
0.0,100.0,100.0,0.26272982539598844,55.55555555555556
1.0,97.33387535202124,97.94027232983431,0.26252326582827906,55.46396923191096
2.0,94.72864069077941,95.91870498828617,0.2623110362797475,55.369929383725975
3.0,92.18613953060678,93.93688341219772,0.26209353410842023,55.273609893076426
4.0,89.7051817367255,91.99410898509923,0.2618708200826365,55.175036362432444
5.0,87.28451056691407,90.08966173512673,0.26164295619297934,55.07423476599403
6.0,84.92293356151386,88.22285442198296,0.2614100090147774,54.971232533073916
7.0,82.61931332264776,86.39302213763591,0.26117204631788926,54.866057479371044
8.0,80.37241516189088,84.59946979084056,0.2609291381868437,54.75873813559144
9.0,78.18111890468494,82.84155182650646,0.2606813589177362,54.64930438886873
10.0,76.04430895977444,81.11862549791108,0.2604287833779935,54.537786308745574
11.0,73.96080475145291,79.43003140976067,0.26017148981547,54.42421503482976
12.0,71.92955062769921,77.77516081076377,0.2599095595467117,54.30862271325929
13.0,69.94944542038283,76.15338985155033,0.25964307449743546,54.19104167888309
14.0,68.0193822119652,74.56410030027159,0.2593721206592279,54.071505586061924
15.0,66.1383546600013,73.00671327327356,0.25909678583853485,53.95004869782166
16.0,64.30527550007915,71.48062311134534,0.2588171590045261,53.82670564647706
17.0,62.519122322370286,69.98525475314887,0.2585333331851433,53.701512419493305
18.0,60.77892026758184,68.52005168000493,0.2582454022615768,53.57450529583484
19.0,59.08361710592011,67.08443328454383,0.2579534621289178,53.445721221921225
20.0,57.43226256959543,65.67786131076839,0.25765761200897774,53.315198289870786
21.0,55.823905334910904,64.29979788131155,0.2573579515636559,53.18297474218805
22.0,54.25754860220802,62.94969349367145,0.2570545831965513,53.04908976869577
23.0,52.732301540427834,61.62704042764139,0.2567476115782431,52.91358336902802
24.0,51.247231890375,60.33131690016779,0.2564371418747088,52.776495713573794
25.0,49.80141551815733,59.06200886806901,0.25612328232148424,52.63786808324291
26.0,48.39400927077078,57.818633255789265,0.2558061423914011,52.49774222060936
27.0,47.02410416233698,56.600684616371296,0.2554858324609234,52.356160197946714
28.0,45.69085776998294,55.407685139627475,0.255162465726984,52.21316516470632
29.0,44.3934631194856,54.23917044599823,0.2548361559270616,52.068800481279254
30.0,43.13105714211283,53.09465741652435,0.254507018213718,51.923110063659045
31.0,41.90287183170204,51.97369879166163,0.25417516984889926,51.776138686835736
32.0,40.70813504523719,50.87584607609252,0.25384072836842475,51.62793123786712
33.0,39.54605303389029,49.800643304196,0.25350381303362235,51.47853334060952
34.0,38.415928148060615,48.747668624481555,0.25316454439217045,51.32799118723485
35.0,37.31702701884117,47.71648745131897,0.25282304329609445,51.17635110622281
36.0,36.24864945508222,46.7066743431699,0.2524794322901324,51.023660230468366
37.0,35.21016676452101,45.7178278383225,0.25213383452583377,50.8699659914077
38.0,34.20090170742118,44.749528220698565,0.25178637363536877,50.715316070468994
39.0,33.220266482184925,43.80138031988083,0.25143717455093567,50.55975886574653
40.0,32.26770403365528,42.87299845701728,0.25108636242864146,50.40334290289811
41.0,31.34263012379976,41.963982797268194,0.2507340630092558,50.24611708648849
42.0,30.444578145143446,41.073963523488075,0.2503804027825637,50.088130840028434
43.0,29.573076841801164,40.20256860031892,0.25002550832970927,49.92943365575007
44.0,28.727676593257854,39.34942183442581,0.24966950670117793,49.770075472852014
45.0,27.908045445650192,38.514174553524846,0.24931252522938985,49.610106534046224
46.0,27.11381921995342,37.696466843261746,0.24895469129958486,49.44957716576248
47.0,26.344727738795427,36.895948675558735,0.2485961324353812,49.28853811532269
48.0,25.60059028967703,36.11228869703324,0.2482369761773039,49.12704026749124
49.0,24.881226044921153,35.34514762019301,0.24789056657276626,48.97134695012445
50.0,24.186525091924228,34.59419231868586,0.24773317074898385,48.90433892495434
51.0,23.516454840369548,33.85909822779993,0.24758599612112464,48.84198388367959
52.0,22.871050278859784,33.13954800867448,0.24744364698154686,48.781737082700104
53.0,22.250403314864393,32.43522468177765,0.24730615127257996,48.72360390725775
54.0,21.654774876456898,31.74583177246024,0.247173534737357,48.667589045188066
55.0,21.084400640060288,31.071066261021524,0.24704582263300676,48.61369703009452
56.0,20.5396270895526,30.41062860185345,0.24692303736832782,48.56193151448672
57.0,20.020920458733844,29.764233376473214,0.2468052001693629,48.51229579084483
58.0,19.528755558055817,29.131589282716742,0.2466923306480277,48.46479266663682
59.0,19.063808548630913,28.51242256928722,0.24658444616542666,48.41942428288859
60.0,18.626748406729853,27.90645601246083,0.24648156322645356,48.37619253051414
61.0,18.218387449438744,27.313420669637246,0.2463836960181208,48.3350986311008
62.0,17.839583531190982,26.73304995865263,0.2462908575864125,48.29614348169774
63.0,17.491342772728235,26.165086314592195,0.2462030589321451,48.25932740412489
64.0,17.174696480498536,25.6092725956867,0.24612030984762787,48.224650385245496
65.0,16.89083270349248,25.06536116335294,0.2460426181814064,48.19211187784254
66.0,16.640961920348712,24.533105021100575,0.24596999049391102,48.1617109864934
67.0,16.42641003168724,24.0122640531689,0.2459024316807321,48.13344636821374
68.0,16.248569181749623,23.50260200318744,0.24583994504237014,48.107316257672956
69.0,16.108893758404957,23.003886786964504,0.24578253250782883,48.08331852932239
70.0,16.008935378702116,22.515892338686385,0.24573019435293664,48.06145062741622
71.0,15.950273901476105,22.038395523988545,0.2456829294301355,48.04170963066441
72.0,15.934561390972542,21.571178474969884,0.24564073518445412,48.024092257874656
73.0,15.963503878670654,21.11402818463702,0.24560360746171322,48.008594823382104
74.0,16.038817461378418,20.66673491474687,0.24557154081658425,47.99521331798748
75.0,16.162288932910123,20.229094910689536,0.245544528322848,47.98394336247984
76.0,16.3356988729365,19.80090816972851,0.24552256160849242,47.97478022064114
77.0,16.560838608802012,19.381979003265617,0.24550563105021672,47.96771884831714
78.0,16.839535925706258,18.97211773988701,0.24549372551673626,47.96275383179988
79.0,17.173565862384777,18.571138196802433,0.24548683260184842,47.95987944806936
80.0,17.564720337019693,18.178859851091023,0.2454849386130479,47.95908966148309
81.0,18.014757199419172,17.795107699098555,0.24548802842092804,47.96037808947312
82.0,18.525366680201458,17.41971100012523,0.2454960857374552,47.96373807100917
83.0,19.098240014899527,17.052505917873788,0.24550909292977133,47.969162620792815
84.0,19.734961098070585,16.693333857942427,0.24552703108030088,47.976644446024785
85.0,20.43705139560993,16.34204199490889,0.24554988014522103,47.986175983661155
86.0,21.20597884716745,15.998485356769757,0.24557761872669548,47.9977493451685
87.0,22.043059989619575,15.662524656265306,0.24561022430025997,48.01135637248042
88.0,22.94955441387966,15.33402846691078,0.24564767318285535,48.02698862814293
89.0,23.926578601868922,15.012873705638269,0.2456899404238389,48.04463736924896
90.0,24.97508347069268,14.698944136253388,0.24573700005537102,48.06429360753256
91.0,26.09596915715002,14.39213447332396,0.24578882486473663,48.08594805088516
92.0,27.289849762093414,14.092346864125313,0.2458453865911633,48.10959115309872
93.0,28.557332158382394,13.79949506891906,0.2459066558762757,48.1352130966493
94.0,29.898640732270156,13.513501715985619,0.24597260226910356,48.16280379618134
95.0,31.314071364982183,13.234303507253319,0.24604319422466883,48.19235289107315
96.0,32.803363050163824,12.961842128236299,0.24611839942465544,48.22384983129209
97.0,34.36638308277581,12.69608447293474,0.24619818386127804,48.257283632678494
98.0,36.002802176960664,12.436998376289335,0.24628251333370876,48.29264326400953
99.0,37.71157733312629,12.184568082275549,0.24637135222884798,48.32991733208013
100.0,39.49198771000417,11.93880104750061,0.24646466372056405,48.369094120186446
101.0,41.34285218783155,11.699705903722828,0.2465624107015229,48.41016184049359
102.0,43.262503412093075,11.467315702777519,0.2466645545440657,48.45310829753776
103.0,45.24932782242416,11.241674746861953,0.24677105605989888,48.49792114212525
104.0,47.30111215237138,11.022845129912442,0.2468818749661788,48.54458772331791
105.0,49.41572927423135,10.810907454663768,0.24699697013492264,48.593095151711786
106.0,51.590428549819784,10.605954527623213,0.24711629966349347,48.64343031768174
107.0,53.8224072680032,10.408099945080098,0.24723982071117878,48.695579839332034
108.0,56.10837118286864,10.217471787211124,0.24736748964854785,48.74953010119103
109.0,58.44495335379587,10.034216915020306,0.24749926203191333,48.80526724315462
110.0,60.82828925083985,9.858498063366838,0.24763509259262648,48.8627771509494
111.0,63.25444345055923,9.690494957996329,0.24777493534533548,48.92204548674561
112.0,65.71901667342843,9.530404235871618,0.2479187434535667,48.98305763923588
113.0,68.21752729242154,9.378437319166636,0.24806646945256036,49.04579879293428
114.0,70.74509668587285,9.234823130361647,0.24821806501026494,49.110253841184445
115.0,73.2967351054751,9.099802828752194,0.24837348124237643,49.176407489592386
116.0,75.86715671364443,8.97363514438569,0.24853266839423016,49.2442441379282
117.0,78.45091757780489,8.856588261260692,0.2486955762190414,49.31374801013792
118.0,81.04240361096923,8.748947353468536,0.24886215361371344,49.3849030147031
119.0,83.63579029395295,8.65100425285006,0.2490323490226706,49.457692889373384
120.0,86.22520880730237,8.563066358890971,0.24920611006882215,49.53210105402855
121.0,88.80453575670109,8.485445050437466,0.24938338394179063,49.6081107552508
122.0,91.36771532293675,8.418465138219016,0.24956411706125034,49.68570492606864
123.0,93.90840349779319,8.362452735950567,0.24974825541763798,49.76486631713685
124.0,96.42041346796407,8.317744763276844,0.24993574429440713,49.845577375394534
125.0,98.89724772094456,8.284676658217457,0.2501265285397937,49.92782035113204
126.0,101.33262841174184,8.263591754081208,0.2503205523645677,50.01157720503079
127.0,103.71995665072667,8.254828941616148,0.2505177595327564,50.0968296829773
128.0,106.05288746106457,8.258731970943723,0.25071809324276867,50.18355925834861
129.0,108.32475981095355,8.275636997886055,0.25092149623307114,50.27174716906104
130.0,110.5291750308995,8.305881975085763,0.251127910747075,50.36137439930829
131.0,112.65944547294927,8.34979396250856,0.2513372785566501,50.45242167601841
132.0,114.7091333067262,8.407698757798219,0.251549541004864,50.5448694915326
133.0,116.67157156229864,8.479907918904892,0.25176463895594375,50.63869805939406
134.0,118.54031528123318,8.566728645298738,0.2519825129047974,50.73388737667129
135.0,120.30879586690746,8.668450654337915,0.2522031028666439,50.830417141818096
136.0,121.97062931445801,8.785356057783384,0.2524263485381792,50.92826685249662
137.0,123.51947019653899,8.91770655053758,0.25265218914363785,51.027415691126926
138.0,124.94911625312807,9.065752644315593,0.25288056362942973,51.127842651149166
139.0,126.25362288639478,9.22972199802146,0.2531114104861118,51.22952639897589
140.0,127.42716250327882,9.409827141142415,0.25334466795544214,51.332445417933414
141.0,128.4644104844813,9.60625575380244,0.25358027385067033,51.436577859606686
142.0,129.36017593344104,9.819176202473136,0.25381816575362814,51.5419016910433
143.0,130.11000200585042,10.04873033586175,0.2540582808545982,51.648394550904776
144.0,130.70959696886612,10.29503616182124,0.25430055612576197,51.75603388983205
145.0,131.15571946545077,10.558183010245223,0.2545449281668014,51.86479681662185
146.0,131.4452407778933,10.838236031006755,0.2547913334082322,51.974660285094785
147.0,131.57635698293853,11.135221476938574,0.2550397078908643,52.08560085554845
148.0,131.54747085538045,11.449151793728221,0.2552899875529691,52.19759499054006
149.0,131.35805966000532,11.779982652464115,0.2555421079594806,52.31061874559354
150.0,131.00900421847908,12.127651380618936,0.2557960044587845,52.42464791096251
151.0,130.50115310874168,12.492073033460514,0.2560516123121746,52.539658188116725
152.0,129.83666522093202,12.873095861206906,0.2563088664201123,52.65562483091679
153.0,129.01852631123515,13.270555507833315,0.25656770157558806,52.77252293736189
154.0,128.0504002801188,13.68423396871425,0.25682805234534783,52.89032730659712
155.0,126.93708405987314,14.11388084942171,0.2570898531175767,53.009012449769195
156.0,125.68372588366736,14.559207679591545,0.2573530381429214,53.128552685530444
157.0,124.29641485701754,15.019878807593953,0.257617541479566,53.24892200146893
158.0,122.78165896991742,15.495520691316495,0.25788329705653945,53.370094170017076
159.0,121.14661640312349,15.985716696388435,0.25815023865527276,53.49204266963955
160.0,119.3987556781438,16.490007197949208,0.2584182999275811,53.61474073783012
161.0,117.54595378204077,17.007892336959838,0.25868741440954773,53.73816134184434
162.0,115.59626364279877,17.53882606563948,0.2589575155135179,53.86227718475481
163.0,113.55792865968789,18.0822255539576,0.25922853656349965,53.98706072415384
164.0,111.43921248227875,18.63745990380151,0.25950041076955604,54.11248413105093
165.0,109.248395365094,19.203865214817615,0.25977307127523597,54.23851935421936
166.0,106.99361737980462,19.78072930191408,0.26004645112468355,54.36513803681668
167.0,104.68291043665432,20.367310739092808,0.2603204833113294,54.49231161900457
168.0,102.32402161461178,20.962821660514614,0.26059510074867226,54.62001122216977
169.0,99.9245071557607,21.566448307473227,0.26087023630951783,54.748207777464835
170.0,97.49152922471019,22.177334422264597,0.26114582281032894,54.876871892494414
171.0,95.03200445880664,22.794600724520077,0.2614217930331816,55.0059739884778
172.0,92.55239537135388,23.417330926721682,0.26169807972852543,55.13548416859975
173.0,90.05888010035441,24.044588367207965,0.26197461561816615,55.265372344345046
174.0,87.55717218763921,24.675405537653333,0.2622513334154702,55.39560812356412
175.0,85.05267318041412,25.308797207219193,0.26252816581254146,55.52616091020656
176.0,82.55034908784931,25.943753311606308,0.2628050455130922,55.65699982534901
177.0,80.05483765403771,26.57924863987505,0.2630819052098993,55.78809376973362
178.0,77.57039524290856,27.214238513701282,0.2633586776233316,55.91941138578106
179.0,75.10094662888446,27.84766526222918,0.2636352954767989,56.05092107749466
180.0,72.65010035082621,28.47845610481358,0.2639116915328842,56.18259101641618
181.0,70.22114383485686,29.1055267995932,0.2641877985749702,56.31438911842049
182.0,67.81711313950922,29.727781200180715,0.2644635494330074,56.44628309173013
183.0,65.44074699868527,30.344112355184453,0.2647388769788802,56.57824037483092
184.0,63.09458973414098,30.953403739508293,0.26501371413498975,56.710228220116186
185.0,60.78092342093778,31.554527678278664,0.2652879938892578,56.84221360152333
186.0,58.501880692689966,32.146348955859246,0.2655616492818729,56.97416332321143
187.0,56.25937486350178,32.72772016740726,0.2658346134429587,57.10604390949826
188.0,54.05520186966554,33.29748861757815,0.2661068195570076,57.23782172411549
189.0,51.89098429887306,33.85448879068907,0.2663782009202964,57.3694628587196
190.0,49.76824942740172,34.39755314830166,0.2666486908867228,57.500933248682486
191.0,47.68838910385401,34.92550123389337,0.2669182229479835,57.632198560446035
192.0,45.652723217991635,35.437154667365974,0.26718673065368403,57.76322432139539
193.0,43.662460963501445,35.93132818613156,0.26745414771006265,57.89397579081663
194.0,41.71875504253455,36.40684181833171,0.26772040789044743,58.0244180986983
195.0,39.82266586777032,36.862519713468345,0.26798544514084804,58.15451611588298
196.0,37.97520640384319,37.29719653367418,0.2682491934835745,58.284234591755414
197.0,36.17730540671357,37.70972750945111,0.2685115871294036,58.41353802759967
198.0,34.429848305558025,38.0989856699135,0.2687725603749573,58.542390810622614
199.0,32.73363468758723,38.46388648889106,0.2690320477207601,58.670757093109415
200.0,31.089421352428968,38.803372053185825,0.2692899837593209,58.79860092305077
201.0,29.497865767834252,39.11645629371408,0.26954630331227014,58.92588612014374
202.0,27.959585203680035,39.40218505401449,0.269800941300124,59.05257641356697
203.0,26.475079710423966,39.6597083967326,0.27005383287244406,59.178635327816195
204.0,25.04479757220986,39.888224105981074,0.27030491331390105,59.30402628659545
205.0,23.669065650437503,40.08705143102564,0.27055411811959845,59.4287125508283
206.0,22.348121271699455,40.25559962439076,0.2708013829961184,59.55265724976066
207.0,21.082125325800522,40.393361621950504,0.27104664376054666,59.67582343283491
208.0,19.87105884696294,40.500022675982024,0.2712898365872062,59.79817395889106
209.0,18.714867570079356,40.575306802741025,0.27153089772433053,59.919671650964744
210.0,17.613339923026412,40.61912001134361,0.2717697636879418,60.04027920442733
211.0,16.5661360708249,40.631509998054376,0.2720063712645556,60.15995921140865
212.0,15.572841033130896,40.612617716532014,0.2722406573805382,60.27867421405286
213.0,14.632876767693777,40.562776203690454,0.27247255930050407,60.396386651488775
214.0,13.74559340606987,40.48240956996562,0.27270201445233677,60.51305892205228
215.0,12.910199610349363,40.37211687194732,0.2729289606022338,60.628653353611455
216.0,12.125835328119205,40.232589513552256,0.27315333570457156,60.74313224395469
217.0,11.391533253205939,40.06466330974067,0.2733750780324755,60.85645785063995
218.0,10.706253218562267,39.869281146795366,0.2735941261258159,60.96859241211169
219.0,10.068889566350906,39.64748488398794,0.2738104187982971,61.07949815536348
220.0,9.478278092424349,39.400417837528956,0.27402389518850184,61.189137309051944
221.0,8.933219504993255,39.129296542291065,0.2742344947146558,61.29747211424234
222.0,8.43248699956378,38.83540848298274,0.27444215711568054,61.40446483693138
223.0,7.974843504473806,38.52009685907118,0.2746468224603444,61.51007778231293
224.0,7.559056950948334,38.18474639953236,0.274848431148605,61.61427330712384
225.0,7.183913716709871,37.83077046706903,0.27504692391771385,61.717013831836766
226.0,6.84823251940473,37.45959911868143,0.2752422418584067,61.81826185573761
227.0,6.550879819446242,37.07266648897267,0.27543432643356863,61.917979973898795
228.0,6.290780320051674,36.67139925349964,0.27562311947717444,62.01613088898237
229.0,6.066926850810156,36.25720679250834,0.275808563203241,62.11267742497336
230.0,5.8783927535710525,35.83147059364012,0.2759906002277415,62.207582546749606
231.0,5.724340910106521,35.3955356028427,0.27616917358419873,62.30080937750202
232.0,5.604027708953015,34.95070383399397,0.27634422672382375,62.39232121055146
233.0,5.516808252392704,34.49822846225386,0.2765157035279137,62.48208152538952
234.0,5.462144700152384,34.03930647599735,0.2766835483361277,62.57005401252688
235.0,5.439605582543453,33.575076086462076,0.2768477059554908,62.65620258800735
236.0,5.448865375814642,33.10661416147889,0.2770081216709583,62.74049140971255
237.0,5.489702715348081,32.634936155686475,0.2771647412363288,62.82288488442922
238.0,5.562015715878939,32.16098390964413,0.2773175109924155,62.903347742504856
239.0,5.665779024225776,31.685649618912567,0.2774663776769204,62.981844938549756
240.0,5.801100657111506,31.209739759244336,0.27761128875711594,63.058341859661994
241.0,5.968154928710192,30.734018334297964,0.2777521920597485,63.13280411607946
242.0,6.167217517370226,30.259172088259998,0.27788903616499344,63.205197777111046
243.0,6.398632816126546,29.78584018851095,0.2780217701151116,63.275489212297785
244.0,6.662839274827708,29.314592311832353,0.2781503437089264,63.34364528749201
245.0,6.960319091260528,28.845955301743377,0.2782747072556263,63.40963320351821
246.0,7.291641346756344,28.38039414809125,0.2783948118447988,63.47342070125064
247.0,7.657402205366644,27.918332699071843,0.2785106091661302,63.534975926424394
248.0,8.058256862418908,27.460146381421914,0.2786220516443441,63.59426754726635
249.0,8.494890158059173,27.006166900148056,0.27872909247422906,63.651264776174884
