Time,J,A,S,tau
0.0,100.0,100.0,0.6699326596010694,38.57105104073841
1.0,99.80708920103122,98.81061084130168,0.6687434808814315,39.555188541659795
2.0,99.61784240583896,97.64076151692328,0.667571204409034,40.54137758834015
3.0,99.43202390187052,96.49067818750008,0.6664162412766239,41.528334470414
4.0,99.24947341849689,95.35978275549563,0.6652779856185762,42.51599654683406
5.0,99.07003160160399,94.2474971248162,0.6641558297526361,43.504302184954874
6.0,98.89354858564614,93.15327308455458,0.6630491611254764,44.49319864648032
7.0,98.7198807504118,92.07659015836083,0.6619573663684396,45.4826388041942
8.0,98.54888452026522,91.01692725512173,0.6608798318975818,46.472575593551035
9.0,98.38042118755618,89.97377286138698,0.6598159452266562,47.462966031089074
10.0,98.21436173738516,88.94665743004596,0.6587651017874214,48.45377464902162
11.0,98.05057817071273,87.93511745366212,0.6577266982524259,49.444966723503704
12.0,97.88894285942008,86.93868825476348,0.6567001314068679,50.43650783240971
13.0,97.72933504004094,85.95692616984256,0.655684807793336,51.428368298949394
14.0,97.57163961146357,84.98941782427558,0.6546801443325128,52.420522105926516
15.0,97.41574162374413,84.03575111886946,0.6536855583060865,53.412943324670216
16.0,97.26152717871486,83.0955137012542,0.6527004688570732,54.405606698412
17.0,97.10888914620905,82.1683217149763,0.6517243107710816,55.398490877329074
18.0,96.95772291821773,81.25380838232316,0.6507565254489903,56.39157587822273
19.0,96.80792387833107,80.35160662046388,0.6497965542443171,57.38484171666768
20.0,96.65938920893274,79.46135132784524,0.6488438432063217,58.378269365156
21.0,96.51202159398851,78.5827094773512,0.6478978549540292,59.37184244479271
22.0,96.36572466293812,77.71535616074337,0.6469580551752973,60.36554500399337
23.0,96.2204020478004,76.85896620609668,0.6460239095499338,61.35936109484177
24.0,96.07595896512754,76.01321679704814,0.6450948888519548,62.35327547952586
25.0,95.93230456777157,75.17781384038065,0.644170477907501,63.34727446947695
26.0,95.78934859604034,74.35247041917526,0.6432501638163732,64.34134458019825
27.0,95.64700079595391,73.53689938745804,0.6423334336852957,65.33547233210122
28.0,95.50517203081858,72.73081545668329,0.6414197788065809,66.32964465313869
29.0,95.36377560990756,71.93395878490651,0.640508700932955,67.32384911029023
30.0,95.22272516614309,71.14607603656545,0.6395997033917468,68.31807331791866
31.0,95.08193434046551,70.36691362211953,0.6386922895172682,69.31230489842935
32.0,94.94131746519008,69.59621815114556,0.6377859655321317,70.30653167446403
33.0,94.80078996572686,68.83376065067667,0.6368802447189514,71.30074124727943
34.0,94.66026734895416,68.07931898649504,0.6359746414057403,72.29492108961081
35.0,94.5196651217503,67.33267102438296,0.6350686699205114,73.28905867419346
36.0,94.37889905274625,66.593593298168,0.6341618456033883,74.28314156756122
37.0,94.23788490188501,65.86187843747703,0.6332536877186528,75.27715647273364
38.0,94.0965379192971,65.13733276508883,0.6323437162959105,76.2710893151131
39.0,93.95477334973874,64.4197626951487,0.6314314513597709,77.2649260147446
40.0,93.81250654475441,63.70897370601957,0.630516413144241,78.25865257082472
41.0,93.66965229436535,63.00477786235871,0.6295981233673552,79.25225398192838
42.0,93.52612356025938,62.30700559343205,0.628676103798282,80.24571306941093
43.0,93.38183315269767,61.61548879394596,0.6277498761242011,81.2390124937984
44.0,93.23669392484487,60.930059092555815,0.6268189620345519,82.23213496371176
45.0,93.09061862828518,60.250547231377645,0.6258828835392207,83.22506296223767
46.0,92.94351620993,59.5768035953481,0.6249411632964493,84.21777441652002
47.0,92.79529460977281,58.90868420277805,0.6239933240426458,85.2102460799782
48.0,92.64586176780716,58.24604507197831,0.6230388885142188,86.20245470603163
49.0,92.49512578090838,57.58874129187259,0.6220773791365667,87.19437727376963
50.0,92.34299264883667,56.9366319353157,0.621108319575888,88.18598804508393
51.0,92.1893632023197,56.28959371466409,0.6201312392591505,89.17725430698665
52.0,92.03413781444685,55.64750514460614,0.6191456682065066,90.16814272043418
53.0,91.87721685830752,55.01024473983024,0.6181511364381084,91.15861994638288
54.0,91.71850110950166,54.377688865567926,0.6171471715313476,92.14865350471634
55.0,91.55788610808624,53.7497228440075,0.6161333129480976,93.13820267479042
56.0,91.3952616454505,53.12624630890588,0.6151091178853515,94.12721699708075
57.0,91.23051740395391,52.507159209593006,0.6140741439226682,95.1156458205442
58.0,91.06354306595591,51.89236149539884,0.6130279486396069,96.10343849413772
59.0,90.89422862249027,51.28175144412056,0.6119700854467397,97.09054541934889
60.0,90.72245787958926,50.675233844506714,0.6109001355375786,98.07690471688169
61.0,90.54810669658653,50.07272822627397,0.6098177289755743,99.06243664721096
62.0,90.37105066153624,49.47415473717885,0.6087224977297223,100.04706082362306
63.0,90.19116536249257,48.87943352497788,0.6076140737690183,101.03069685940434
64.0,90.00832711138075,48.28848289786262,0.6064920778123727,102.01326718519933
65.0,89.82240652373494,47.70122420042019,0.6053561728961994,102.99467968548623
66.0,89.63326173133274,47.11759609284519,0.6042061578650063,103.97480326079129
67.0,89.44075010130211,46.53753850122385,0.6030418407110442,104.95350428699143
68.0,89.24472900077106,45.960991351642406,0.6018630294265639,105.93064913996359
69.0,89.04505579817807,45.38789456793827,0.6006695319747932,106.90610420237742
70.0,88.84158796690933,44.81818452286958,0.5994611326206772,107.8797400255859
71.0,88.6341677580559,44.25181071376002,0.5982378703416875,108.85136223450827
72.0,88.42263012135147,43.68873203627245,0.5969999259637196,109.82074197545333
73.0,88.20681000652978,43.12890738606972,0.5957474803126691,110.78765039472992
74.0,87.98654236332452,42.57229565881468,0.5944807142144314,111.75185863864688
75.0,87.76166221956885,42.01885512020353,0.5931998031917325,112.71313886489153
76.0,87.53199732567127,41.46854496613644,0.5919050931128073,113.67122182480378
77.0,87.29736098751468,40.921338028626586,0.5905973340374483,114.62574530217694
78.0,87.0575651171221,40.377209129125426,0.5892773188044231,115.57633749363254
79.0,86.81242162651657,39.836133089084406,0.5879458402524995,116.52262659579208
80.0,86.56174280851702,39.298083148285954,0.5866036750109732,117.46424415004199
81.0,86.30533079777358,38.76303623156534,0.5852519912870312,118.40073296509395
82.0,86.04297526633006,38.23098062812981,0.5838924449531463,119.33152689990646
83.0,85.7744654708957,37.70190513525035,0.5825267082710713,120.25605618087359
84.0,85.4995906681798,37.17579855019795,0.5811564535025595,121.17375103438935
85.0,85.21813827625442,36.65264841548463,0.5797834754570149,122.08401422895314
86.0,84.929882563042,36.13244934943324,0.5784102481735655,122.9860954829799
87.0,84.63459279353933,35.615201369273734,0.5770394708349703,123.87919359578646
88.0,84.33203831583938,35.100904352395524,0.5756738407886535,124.76250785865491
89.0,84.02198655043073,34.58955674125278,0.574316252357852,125.63519305743638
90.0,83.70419267852155,34.0811653930806,0.5729702757172933,126.49624468775552
91.0,83.37840911660201,33.575739929943175,0.5716396053694462,127.34462834181346
92.0,83.0443885571053,33.07328935283517,0.5703279463465576,128.17930794725248
93.0,82.70188003194276,32.57382231842959,0.5690393472467731,128.9991626172502
94.0,82.35062249355029,32.07735611148038,0.5677782635374219,129.80295718665698
95.0,81.99035388074829,31.58390919845891,0.5665491739193954,130.58944890955965
96.0,81.620812394635,31.09349896041586,0.5653566085837232,131.3573827412356
97.0,81.24173182696562,30.606144567546956,0.5642052578774572,132.1054338161584
98.0,80.85284051239573,30.121871474369122,0.563099756693116,132.8322592533498
99.0,80.45386692390801,29.64070485225639,0.5620447553437525,133.5365128467418
100.0,80.04453970114396,29.162668869459278,0.5610447654808522,134.2168472286365
101.0,79.62458302396796,28.687794416757534,0.5601037344798305,134.87197394053732
102.0,79.19372050198865,28.216113300880416,0.5592255515125586,135.50061170037065
103.0,78.75167827651381,27.747654781207622,0.5584139030135139,136.10150234453195
104.0,78.29818229122174,27.28245366181854,0.557671172121181,136.67357366707034
105.0,77.83295753557954,26.820547278199136,0.5569994306594439,137.2157999372366
106.0,77.35573157447605,26.361970614959255,0.5564006161304452,137.7271750788226
107.0,76.86623853706465,25.90676075042737,0.5558749119617106,138.20696491688753
108.0,76.36421272305486,25.454959532356416,0.5554216327868372,138.65457168357707
109.0,75.84938962860795,25.006606931144923,0.555040131712259,139.06939199162497
110.0,75.32151739943582,24.561740645572247,0.554728194729921,139.4510727812015
111.0,74.78035170130012,24.120406354175444,0.5544816251642269,139.79957477425887
112.0,74.22564829620053,23.682650297152723,0.5542961492000147,140.11487083334538
113.0,73.65716746118615,23.248516503141033,0.5541672387193922,140.3969750834691
114.0,73.07469386361504,22.818046374813353,0.5540884157431432,140.6462083790642
115.0,72.4780178777153,22.3912875802327,0.5540523208253952,140.86302521856265
116.0,71.86693402272952,21.968285888471012,0.5540514479307935,141.04790313210415
117.0,71.24126357582178,21.54908556284834,0.5540770577625932,141.20150136966498
118.0,70.60083786336688,21.133735634084452,0.5541197957088486,141.32456546987257
119.0,69.94549529464983,20.722282282433564,0.5541701602030447,141.41786215523487
120.0,69.27510972370933,20.31477036527799,0.5542178532380441,141.48225900367038
121.0,68.58956598367163,19.911249259027326,0.5542523010176765,141.51865380134
122.0,67.88875998025115,19.511764440558498,0.5542628256193424,141.52795634739823
123.0,67.1726321279311,19.116360489059286,0.554238426503615,141.51109637993838
124.0,66.4411339506061,18.725086150418104,0.5541680504402847,141.4690002801985
125.0,65.6942335906911,18.337985064540632,0.5540406107365782,141.40259374799822
126.0,64.93195228646624,17.955100668365326,0.5538451034062583,141.31276205195843
127.0,64.15432185265308,17.576480054245625,0.5535705845237873,141.20037359886805
128.0,63.361397895272404,17.202163994276717,0.5532061691528083,141.0662826771866
129.0,62.5532963344216,16.8321938464001,0.5527413476896162,140.91127051766554
130.0,61.73014267751674,16.466614055292354,0.5521657113152264,140.73609993446883
131.0,60.89209481675099,16.10546153429455,0.5514690162180168,140.54150861801654
132.0,60.03937595633613,15.748774659952915,0.5506415835433034,140.3281521698891
133.0,59.17221771337206,15.396594251669303,0.5496738394507544,140.09667126487176
134.0,58.29089355434474,15.04895243351169,0.5485564920600915,139.84767461698155
135.0,57.395744332466194,14.705883757835826,0.5472809318711505,139.58169496124162
136.0,56.48711964836386,14.367424765649794,0.5458386639872115,139.29925300174506
137.0,55.565420007114135,14.033604069920377,0.5442216242298307,139.0008328840378
138.0,54.631099689507295,13.704449583321287,0.5424223171488781,138.6868717614135
139.0,53.68464351168228,13.379989892484499,0.6017120810928989,70.86881502475192
140.0,52.726585231564215,13.060249163267747,0.6284197653005261,50.62090951423574
141.0,51.75750032144177,12.745250455079235,0.6356772662427153,44.46720074526199
142.0,50.77800716609749,12.43501471450021,0.6378870653351912,40.948042004411974
143.0,49.788766750051366,12.129560692050477,0.6376059760579058,38.5409253901615
144.0,48.79048202965561,11.82890488114914,0.6357990132856797,36.74193571615116
145.0,47.78389704981832,11.533061462530213,0.6329450192257913,35.32326698522777
146.0,46.76979582097435,11.242042254833969,0.6293206614035204,34.16297541144014
147.0,45.74900090468648,10.955856669561232,0.6251025641090425,33.18834078550675
148.0,44.72237176566397,10.6745116619356,0.6204117869573406,32.35263347672098
149.0,43.69080276297907,10.398011720618127,0.6153359511155991,31.62411505966455
150.0,42.655221084303214,10.126358793179781,0.6099411956981948,30.98032415131528
151.0,41.616584142997866,9.859552324489627,0.604279278245512,30.404813067634194
152.0,40.582082793805014,9.59758927200023,0.5983918887812844,29.88522003580977
153.0,42.299344206555105,9.340463873174418,0.5923134445141224,29.412045747842722
154.0,43.993342744074226,9.088167780753624,0.586072964767477,28.97786514885073
155.0,45.66248998295769,8.840690191446134,0.579695375861926,28.576786833800586
156.0,47.306327586028424,8.598017744938225,0.5732024253874601,28.20407530641477
157.0,48.92420862808885,8.360134510006398,0.5666133431348624,27.85588447818932
158.0,50.51529245107783,8.127021949608233,0.5599453384762049,27.52905993305968
159.0,52.07854459618867,7.8986588694758515,0.5532139914487929,27.220986845405633
160.0,53.612743110602615,7.675022050215493,0.5464335188620438,26.929490994705414
161.0,55.11645933143298,7.456085490362769,0.5396169381896501,26.652762451688545
162.0,56.58808185174225,7.24182027453078,0.5327763485305838,26.389257410847566
163.0,58.025826567249155,7.032196511709093,0.5259229866262422,26.137681265111112
164.0,59.42771106978602,6.827180094424198,0.5190673091635022,25.896933580564966
165.0,60.79162994366865,6.626736567276164,0.512219215305432,25.666061222370313
166.0,62.11528891700364,6.430827401032725,0.5053878890529074,25.444267869973768
167.0,63.3963138142451,6.239414030369531,0.4985821358185226,25.23084508316563
168.0,64.63218292822675,6.052453457051233,0.49181012922576195,25.025201767835046
169.0,65.82032702590405,5.869902822710191,0.48507973682759725,24.826807291432157
170.0,66.95809840721414,5.691715305198064,0.47839827885982017,24.635216194458383
171.0,68.04283743840536,5.517844029751102,0.47177281105309343,24.450025657236818
172.0,69.07188460895507,5.348238669501413,0.4652099007332633,24.27089538722339
173.0,70.0426107084063,5.182848628374978,0.45871587844341355,24.097515562037415
174.0,70.95246945272173,5.021620414968931,0.45229662922153546,23.929622677419918
175.0,71.79896665331866,4.864501265986884,0.44595781600908047,23.766976751779946
176.0,72.09013613825934,5.1878541935653795,0.4397047214114816,23.6093676078962
177.0,71.17722089233047,6.420248771388541,0.43354234772209554,23.456607716389886
178.0,69.86154396839054,7.6157299989959695,0.4274754047625151,23.308529461753032
179.0,68.13050058100303,8.775698414915302,0.4215083181474747,23.164982553420902
180.0,66.02138834316328,9.901349313293712,0.4156452385373725,23.025831614837898
181.0,63.59294657637392,10.993683090729077,0.4098900468794283,22.89095435616084
182.0,60.90962838627004,12.053516404376573,0.40424636321102064,22.760239875567105
183.0,58.03371184863484,13.081495647472682,0.39871755437167344,22.633587199262617
184.0,55.02163341814213,14.078110227689242,0.39330674086121004,22.51090406509891
185.0,51.92258677156416,15.043705288355143,0.38801680355663504,22.392105893274394
186.0,48.77841956660559,15.978496031327705,0.38285039229959505,22.277114845172896
187.0,45.62412743016915,16.882583265230103,0.3778099336656861,22.165859028019327
188.0,42.48857018502014,17.755969131751204,0.37289763813500887,22.058271826841974
189.0,39.39525536218258,18.59857157840166,0.3681155080026687,21.95429132754175
190.0,36.36313661940165,19.4102414575296,0.3634653463725418,21.85385978397386
191.0,33.40730192320846,20.190777599324747,0.3589487652042866,21.75692318712205
192.0,30.539588825215095,20.939944359284244,0.3545671937105988,21.66343087503178
193.0,27.769103352541347,21.657484851541415,0.3503218870201095,21.57333521044705
194.0,25.102665879573458,22.343138918736653,0.3462139347018132,21.48659128010837
195.0,22.5451874728125,22.996654593956325,0.34224427021025877,21.403156644616764
196.0,20.09997975983335,23.61780209506561,0.33841367949908996,21.3229911173277
197.0,17.76931382650309,24.206088277619532,0.3347228081475362,21.246056604326526
198.0,15.620724726459633,24.694898977342802,0.3311721741816313,21.17231685054664
199.0,13.732402492414922,25.006510046961665,0.32776217244940825,21.10173737872363
200.0,12.109903737453537,25.134575265761896,0.32449308566355,21.03428532538222
201.0,10.734799217001992,25.09570788503076,0.3213650925443283,20.969929327231345
202.0,9.579767510406926,24.914961738155156,0.31837827603116114,20.908639423942695
203.0,8.616203512893263,24.618659843847613,0.3155326314321618,20.85038697002162
204.0,7.817712181561949,24.231161954094933,0.3128280744057915,20.795144556033257
205.0,7.161460989661439,23.77364193449455,0.3102644486325851,20.74288593953877
206.0,6.628458236614673,23.263855642928675,0.3078415332233501,20.693585983599522
207.0,6.203327293824026,22.716363023796248,0.3055590498273551,20.64722060199734
208.0,5.873875051875774,22.142927556316025,0.3034166694326573,20.603766710272147
209.0,5.63060704818648,21.552954523617714,0.30141401879746654,20.563202181754193
210.0,5.466260728754013,20.953903609344913,0.2995506865043604,20.525505808892753
211.0,5.375378258192971,20.351655780072598,0.29782622884168736,20.49065726643756
212.0,5.353951897496431,19.750815872840104,0.29624017482919357,20.458637080675512
213.0,5.399101717720933,19.15497106780406,0.2947920315417363,20.429426597617166
214.0,5.5088253013725454,18.566890822896983,0.2934812883886637,20.403007960479677
215.0,5.681777805586671,17.988695492985038,0.29230742131461446,20.379364082971183
216.0,5.917079444274204,17.421989097068657,0.2912698970114444,20.35847862712576
217.0,6.2142078028617,16.867950001598306,0.29036817527321906,20.340335970171463
218.0,6.572778675012896,16.32754786839699,0.2896017103411493,20.32492123257115
219.0,6.991763007124275,15.802130613526515,0.2889699578823037,20.312220183912984
220.0,7.469636605736673,15.293223486182482,0.2884723739229385,20.302219283283456
221.0,8.004850296162562,14.801998289589779,0.2881084162550885,20.29490565569259
222.0,8.595702038932655,14.329317092321798,0.28787754754422135,20.290267071054153
223.0,9.240263988687625,13.875823118271537,0.2877792350463179,20.288291922863742
224.0,9.93631407251451,13.4420225131134,0.2878129503607384,20.288969218057197
225.0,10.68126438072309,13.028348754034665,0.2879781693830148,20.292288582491544
226.0,11.47202073234354,12.635202604892186,0.28827437477078516,20.29824023086963
227.0,12.305051217189824,12.262981371774506,0.2887010525318781,20.306814965217445
228.0,13.17635437090341,11.912094830489456,0.2892576916329675,20.318004161918928
229.0,14.081460006811366,11.582973928906018,0.2899437827148802,20.331799763794624
230.0,15.015446444706438,11.276074337505158,0.29075881638218243,20.348194271917954
231.0,15.97296883994689,10.991876183717304,0.2917022811792548,20.367180738174092
232.0,16.94829897965222,10.73088114278279,0.292773661225352,20.388752758572195
233.0,17.935371774199016,10.493607499260808,0.2939724335906416,20.41290446786675
234.0,18.92783151094284,10.280583693247742,0.2952980655535145,20.439630534600127
235.0,19.919092329326535,10.09234130991808,0.2967500113835525,20.468926156623876
236.0,20.90239678376231,9.929407590061595,0.2983277089780238,20.500787058105953
237.0,21.870874098717582,9.792297881395063,0.30003057628863644,20.53520948766939
238.0,22.817596259849893,9.68150850467611,0.3018580075538945,20.5721902177628
239.0,23.735637038134442,9.597504516395448,0.30380936935656644,20.6117265453887
240.0,24.61815158827887,9.540688503896277,0.3058839965262807,20.653816294333215
241.0,25.458464231920324,9.511367887697265,0.3080811879074713,20.698457819058934
242.0,26.2501418479428,9.509743180051501,0.31040020195182927,20.74565001053598
243.0,26.987055799420574,9.535900774964736,0.3128402523023855,20.795392304685244
244.0,27.66344676096755,9.589807217971465,0.3154005033233409,20.847684692079294
245.0,28.273991442965077,9.671303705360176,0.318080065646837,20.902527729697564
246.0,28.81389352662548,9.780099845195297,0.32087799105796105,20.959922559904726
247.0,29.278941863250065,9.915769560885542,0.3237932686544353,21.01987092341854
248.0,29.66558113196846,10.077745477045848,0.3268248199039868,21.08237518637572
249.0,29.971034115757497,10.265319385893147,0.32997149499499395,21.14743835251721
250.0,30.193390911278943,10.477630678878146,0.33323206414112333,21.21506413760923
