Time,J,A,S,tau
0.0,100.0,100.0,0.5845592693977626,58.21844868070997
1.0,99.77639445693461,89.5416109007735,0.5832560918442882,59.21732682250617
2.0,99.55622436541346,80.18034149027538,0.5819736874286857,60.216464342826335
3.0,99.33954547912218,71.8028905994222,0.580711261046674,61.2156784505359
4.0,99.12620337308428,64.3051507715197,0.5794679606194081,62.21496025071375
5.0,98.91604832781371,57.594143490187214,0.5782429550821436,63.21430197066779
6.0,98.70893510763443,51.586784186135525,0.5770354354408942,64.21369653398021
7.0,98.50472274616293,46.208828837867685,0.5758447366987459,65.2131143741499
8.0,98.30327434183094,41.39392826652595,0.5746701830763946,66.21253218966308
9.0,98.10445686217892,37.08279239183822,0.5735109970054397,67.21195000517626
10.0,97.9081409538302,33.22241765812253,0.5723664225396992,68.21136782068945
11.0,97.71420075563168,29.76541212657222,0.571235724132243,69.21078563620263
12.0,97.5225137207478,26.669401253288807,0.5701181855959007,70.21020345171581
13.0,97.33296044546114,23.896496709423843,0.5690131091029371,71.209621267229
14.0,97.14542450450617,21.412816712723632,0.5679198142228844,72.20903908274218
15.0,96.95979228774068,19.18804971764174,0.566837636968183,73.20845689825536
16.0,96.77595284383717,17.195080479584686,0.5657659288808234,74.20787471376855
17.0,96.59379772953208,15.409651776566406,0.5647040561514465,75.20729252928173
18.0,96.41322086469083,13.810064134197702,0.5636513987724078,76.20671034479491
19.0,96.23411838886601,12.376895620207346,0.5626073496995606,77.2061281603081
20.0,96.0563885229839,11.092762869748881,0.5615713140439871,78.20554597582131
21.0,95.8799314338569,9.94211320920929,0.5605427082802357,79.2049637913345
22.0,95.70464910852981,8.911027114538557,0.5595209595119783,80.2043816068477
23.0,95.53044522200928,7.987036651148941,0.5585055046990316,81.2037994223609
24.0,95.35722501523821,7.15898510132766,0.5574957899442037,82.20321723787411
25.0,95.18489517760179,6.416883725112564,0.5564912698065938,83.20263505338731
26.0,95.01336372495038,5.751784138377731,0.5554914065887228,84.20205286890051
27.0,94.84253988711191,5.155677879728307,0.5544956696790673,85.20147068441372
28.0,94.67233399704824,4.6213915483960495,0.553503534904184,86.20088849992692
29.0,94.50265737812018,4.1424982039380955,0.5525144838698074,87.20030631544012
30.0,94.33342223904279,3.7132450199866684,0.5515280033468276,88.19972413095331
31.0,94.16454156881112,3.328476955330703,0.5505435846570962,89.19914194646653
32.0,93.9959290318595,2.9835750564103742,0.5495607230606107,90.19855976197972
33.0,93.82749886869709,2.6744040559809594,0.5485789171746409,91.19797757749292
34.0,93.65916579599285,2.3972571392882105,0.5475976683896493,92.19739539300612
35.0,93.4908449082562,2.1488128229616437,0.5466164802945415,93.1968132085193
36.0,93.32245158272761,1.9260967893016898,0.5456348581206114,94.1962310240325
37.0,93.15390138418955,1.7264421730393213,0.5446523081850468,95.1956488395457
38.0,92.98510997183165,1.5474592931886213,0.5436683373464319,96.1950666550589
39.0,92.81599300733154,1.387007702270145,0.5426824524672901,97.19448447057209
40.0,92.64646606405633,1.243167833947281,0.5416941598832158,98.19390228608529
41.0,92.47644453786648,1.1142196506100437,0.5407029648813471,99.19332010159849
42.0,92.30584355771418,0.9986220628966157,0.5397083711775771,100.19273791711167
43.0,92.1345778989305,0.8949928481424342,0.5387098804095313,101.19215573262487
44.0,91.96256189686676,0.8020935021637144,0.5377069916315718,102.19157354813807
45.0,91.78970935977061,0.7188140065289316,0.5366992008052807,103.19099136365126
46.0,91.61593348581991,0.6441587380533564,0.5356860003143007,104.19040917916446
47.0,91.44114677873002,0.5772356292979838,0.534666878470776,105.18982699467766
48.0,91.26526096309189,0.5172448883520714,0.5336413190201905,106.18924481019084
49.0,91.08818690476626,0.4634691755668137,0.5326088006758104,107.18866262570404
50.0,90.90983452794497,0.41526576663202014,0.5315687966335723,108.18808044121724
51.0,90.7301127334263,0.37205825811429,0.5305207740940568,109.18749825673044
52.0,90.54892932207618,0.3333297043359057,0.5294641938148194,110.18691607224363
53.0,90.36619091321371,0.2986169219431072,0.5283985096329661,111.18633388775683
54.0,90.18180286656882,0.2675044302285807,0.5273231680086257,112.18575170327003
55.0,89.99566920866401,0.23961964203261907,0.5262376075943086,113.18516951878321
56.0,89.8076925528638,0.2146287033311256,0.5251413303611384,114.1845725513417
57.0,89.61777402598159,0.19223209652009937,0.5240339285535578,115.1839254112328
58.0,89.42581319766846,0.17216125844444774,0.5229148532556007,116.18321978583842
59.0,89.23170800301781,0.15417552567538848,0.521783542015184,117.18244810693969
60.0,89.03535467497021,0.13805896795348957,0.5206394272797698,118.18160171728694
61.0,88.83664767712435,0.12361799960491875,0.5194819367588348,119.18067069825491
62.0,88.63547963042507,0.11067912532522578,0.5183104939078863,120.17964366108701
63.0,88.4317412526638,0.09908667805250204,0.5171245186027571,121.1785075108599
64.0,88.22532129556174,0.08870112354663051,0.5159234279827966,122.17724716773967
65.0,88.01610647778833,0.07939738877341251,0.5147066375175073,123.17584523037739
66.0,87.80398143298034,0.07106326051331714,0.513473562344744,124.17428159532703
67.0,87.58882865250413,0.06359817484002941,0.5122236188941593,125.17253300206433
68.0,87.37052842782786,0.056911972332094406,0.5109562268919327,126.17057248702854
69.0,87.14895880857637,0.05092377633798969,0.509670811760575,127.16836876429221
70.0,86.92399555324009,0.04556111917098412,0.5083668075139058,128.1658854781537
71.0,86.69551208437382,0.040759019742278566,0.507043660267057,129.1630803139161
72.0,86.46337945867567,0.036459199376581757,0.5057008323445661,130.15990398364713
73.0,86.2274663287731,0.03260944658475645,0.5043378072417293,131.15629899457224
74.0,85.98763891508695,0.02916293867751795,0.5029540955373711,132.15219819862548
75.0,85.74376099057555,0.026077692315493187,0.5015492417460977,133.14752312790694
76.0,85.49569385761967,0.023316099518883995,0.5001228326048531,134.1421819679508
77.0,85.24329634076878,0.02084443235180429,0.49867450677677305,135.13606719918369
78.0,84.98642478949272,0.018632456815225344,0.49720396605741685,136.12905287528812
79.0,84.72493307517341,0.016653092312465007,0.49571098890094767,137.12099131519275
80.0,84.45867260924636,0.014882052786048823,0.4941954459625692,138.1117093080025
81.0,84.18830753197038,0.01373972753318017,0.4926573181001449,139.10100369665508
82.0,83.9146886701763,0.01362212020097892,0.49109671707683195,140.08863628529951
83.0,83.6359190434813,0.013512668742200565,0.4895139083895163,141.07432819195827
84.0,83.35184415569526,0.013412671374286058,0.4879093475954463,142.05775068065668
85.0,83.0623077152576,0.01332363853099883,0.48628370294197293,143.0385196198263
86.0,82.76715173178499,0.01324732297353987,0.48463788744298636,144.0161873419067
87.0,82.46621660937824,0.013185771489995063,0.4829731136811105,144.99022862262333
88.0,82.15934151107861,0.013141362341223518,0.4812909363125741,145.96002973742873
89.0,81.84636464163273,0.013116831969559132,0.479593281939945,146.924880628496
90.0,81.52712356544913,0.013115341871400062,0.47788252209752796,147.88395574684827
91.0,81.20145561993552,0.013140518880613714,0.47616151855630406,148.83630180649777
92.0,80.86919839902576,0.013196507700890463,0.4744336823196344,149.78082166989176
93.0,80.53019039883867,0.013288008617328385,0.47270301921883856,150.71626132298167
94.0,80.18427164556817,0.013420320735807708,0.47097418024348087,151.64119517478483
95.0,79.83128451104939,0.013599366611956383,0.46925249482865616,152.55401524299438
96.0,79.47107463402408,0.013831700824832488,0.4675439883253048,153.45292387337048
97.0,79.10349195555173,0.014124495053543814,0.4658553759598939,154.33593196587523
98.0,78.72839195569752,0.01448548808995241,0.46419402280412414,155.20086547888255
99.0,78.34563692675619,0.014922903050539265,0.4625678689240384,156.04538044563225
100.0,77.95509742128311,0.015445315284320991,0.46098530531975496,156.8669905129668
101.0,77.55665378178155,0.016061474531079464,0.45945500246503046,157.66310669186126
102.0,77.15019772829592,0.016780080342079205,0.4579856900778844,158.43108999763746
103.0,76.73563396400733,0.017609516662246423,0.4565858935628719,159.16831591216732
104.0,76.3128817374185,0.01855755595035239,0.4552636367397337,159.87224846532084
105.0,75.88187623433306,0.019631054955268023,0.45402613234422573,160.5405188753513
106.0,75.44256982554201,0.020835660942020856,0.45287947969186154,161.1710036792386
107.0,74.99493299468517,0.022175557654298093,0.4518283978329292,161.76189522559645
108.0,74.53895509148788,0.02365326537381559,0.4508760105205684,162.31176004399322
109.0,74.07464441206952,0.02526958280816058,0.45002377324847087,162.8195627128366
110.0,73.60202838208697,0.027023381789867986,0.4492712299514019,163.28472962681116
111.0,73.12115295853516,0.02891194635452762,0.44861635873606487,163.70707031114287
112.0,72.63208225905905,0.030930949234326415,0.4480555137677861,164.08679355079113
113.0,72.13489762286619,0.033074683890314455,0.44758363717887534,164.4244575931897
114.0,71.62969699360276,0.03533634595315344,0.4471945289034411,164.72090473471994
115.0,71.11659320156808,0.03770833079113818,0.4468811313679281,164.97719084280445
116.0,70.59571356536051,0.040182474651857106,0.4466357588241243,165.19452813368363
117.0,70.06719862199203,0.0427503230131919,0.44645035909081454,165.37421931471297
118.0,69.53120131535212,0.04540335351342366,0.44631673254998594,165.5176021120254
119.0,68.98788624749334,0.04813316121020438,0.44622671714291806,165.626002183004
120.0,68.43742891546025,0.05093160134840883,0.44617233258301237,165.7006962420454
121.0,67.8800150794167,0.053790891633113715,0.4461458860306517,165.7428849611597
122.0,67.31584027542036,0.05670368322913736,0.44614004757376585,165.7536735670458
123.0,66.74510914257414,0.05966309300174421,0.44614788872829686,165.73406198691907
124.0,66.16803514574207,0.06266272517289921,0.4461629101207917,165.68493776854388
125.0,65.58484023085468,0.06569667467970446,0.446179051254061,165.60707368517905
126.0,64.99575418668704,0.06875948548408664,0.44619065956695675,165.50113601114504
127.0,64.40101413531539,0.07184612836626117,0.4461924737292859,165.36768910551544
128.0,63.80086438446453,0.07495200229063675,0.4461796282423465,165.2071946072574
129.0,63.19555600120167,0.0780728500886546,0.44614758566426044,165.0200295599501
130.0,62.58534542286291,0.08120473850312823,0.4460921138341645,164.80649270341502
131.0,61.97049564604071,0.0843440531230372,0.4460092954601998,164.56680318139962
132.0,61.35127359292667,0.08748739154052292,0.445895423152729,164.3011276738781
133.0,60.72795149244422,0.09063161941591026,0.4457470643159982,164.00956576866113
134.0,60.10080489346514,0.09377374749156765,0.4455609454966297,163.69217932594918
135.0,59.47011279570153,0.09691100065692455,0.44533402281569107,163.34897759584237
136.0,58.83615657278279,0.10004068993245954,0.44506336427011794,162.97994563043932
137.0,58.19921985683236,0.10316029607679882,0.44474624097065246,162.58502702354235
138.0,57.559587215605696,0.10626734924570304,0.44437999881788204,162.1641513111587
139.0,56.91754435363434,0.10935949704920195,0.44396215996792493,161.71721860600226
140.0,56.27337681899469,0.11243442618142206,0.4434903086116398,161.2441195062585
141.0,55.62736963060118,0.11548989156947016,0.4429621774945679,160.74472718140774
142.0,54.97980706761469,0.11852369051515119,0.44237557019592133,160.21890746667034
143.0,54.33097128150343,0.12153363890416731,0.4417283867527948,159.6665199048494
144.0,53.68114274404174,0.12451759808902609,0.4410186431049679,159.08741885250132
145.0,53.0305993337637,0.12747343053007976,0.44024439892210615,158.4814575873196
146.0,52.37961487682178,0.13039902558263683,0.43940386487178923,157.8484906327362
147.0,51.72846230053752,0.13329228293475456,0.4384952909086072,157.18837341069846
148.0,51.0774073790116,0.13615110212943718,0.4375170357673495,156.50096580561288
149.0,50.42671444780771,0.13897339974929118,0.43646757943547854,155.78613545305745
150.0,49.77664340817551,0.14175709210466889,0.43534543722861496,155.0437520526604
151.0,49.12744661669016,0.1445001031846357,0.43414929491312076,154.27369943965826
152.0,48.47937760571147,0.14720036428774494,0.4328779021270975,153.4758679258271
153.0,4.773179414940438,43.117292918177505,0.5285136767380368,62.65727331756668
154.0,4.655071268025839,41.81677741279967,0.5515231929384582,50.46659402018041
155.0,4.549293532888556,40.53340986381004,0.5560903730399678,46.62656674547936
156.0,4.443978922084253,39.27961066568347,0.5569771187309865,44.21393906758588
157.0,4.337582019718488,38.05744667372514,0.5562581052550161,42.40754244424704
158.0,4.229718040154261,36.86784847537462,0.5546742163978479,40.93411699570319
159.0,4.1204283854113,35.71136024925296,0.5525773582148936,39.67021894186932
160.0,4.01001568863519,34.58831433175215,0.5501615299635139,38.5503994522849
161.0,3.898992717054257,33.498889515483484,0.5475438990968468,37.53630087880095
162.0,3.788064900309222,32.443136106372364,0.5447994995742977,36.60387597576873
163.0,3.6781208346567804,31.420989707794387,0.5419785841734867,35.73720104783718
164.0,3.5702271195269137,30.432280232672127,0.539115799835363,34.9253020689558
165.0,3.4656233899661877,29.476741052902916,0.5362356148108951,34.16033754497445
166.0,3.365713561706946,28.554015472520366,0.5333556536067151,33.436514018293266
167.0,3.2720570559860316,27.663664922183276,0.5304888057983943,32.749424342212706
168.0,3.18635878729657,26.805177414258303,0.5276446259171462,32.09562204300189
169.0,3.11045036384537,25.977972536849755,0.524830281545419,31.472338742763473
170.0,3.046279006138352,25.181411856817927,0.5220512068283469,30.87729967793865
171.0,2.995887028862209,24.41480531284478,0.5193115651601157,30.30859335675286
172.0,2.9613912478463287,23.677418408056603,0.5166145761072419,29.76458248579602
173.0,2.944960144463881,22.968479020819057,0.5139627512171127,29.24384093276922
174.0,2.948789702742152,22.28718400530602,0.511358065607343,28.74510867199518
175.0,2.9750797347748326,21.632705951808894,0.5088020859385172,28.26725868048182
176.0,3.0260074536235986,21.00419892027214,0.5062960642341818,27.809272396415956
177.0,3.1037017370219036,20.400803972639554,0.5038410077528886,27.370221516184927
178.0,3.210217492955315,19.821654287210784,0.5014377315770959,26.949254112714463
179.0,3.3475108219684437,19.26587992557223,0.49908689828488634,26.545584024054747
180.0,3.670122752512884,18.58541455631856,0.4967890494423871,26.158482337437135
181.0,4.109744647465382,17.866993803861153,0.4945446270635397,25.78727027361134
182.0,4.606698795453675,17.175099301446167,0.4923539936975026,25.431314339507225
183.0,5.164596696832839,16.509686781827977,0.4902174456284659,25.090021316817953
184.0,5.786624193897351,15.870765927699324,0.4881352235746228,24.762834824497624
185.0,6.475405051100513,15.258406394855859,0.4861075216831745,24.449231917180114
186.0,7.232855267849224,14.6727401921496,0.4841344940470296,24.1487203789789
187.0,8.060038901686015,14.113961491185774,0.4822162599880968,23.860836345193533
188.0,8.957026036668777,13.582320453804039,0.4803529082741685,23.58514168986178
189.0,9.92282787717053,13.078138625623543,0.4785445012104367,23.32122507523247
190.0,10.955445910470257,12.601781929845126,0.4767910809226303,23.068695264502242
191.0,12.051370896208626,12.15364120686287,0.4750926617333784,22.827183402630165
192.0,13.205965786053063,11.734142376165934,0.4734492406907763,22.596340642220827
193.0,14.413312481360586,11.343719265222628,0.4718607959656725,22.37583674486663
194.0,15.666327493601548,10.982803089043363,0.470327288832743,22.1653592001581
195.0,16.956846448728562,10.651804400435326,0.46884866446049883,21.96461213124174
196.0,18.275762285837295,10.351096386109807,0.4674248527531184,21.773315353409853
197.0,19.61319558608858,10.08099874723919,0.46605576906139634,21.59120350723455
198.0,20.95868731657293,9.841762690661685,0.46474131477707825,21.41802525643881
199.0,22.30140358586748,9.633557546656053,0.4634813778305941,21.25354254387827
200.0,23.630351520282282,9.45645989402765,0.46227583309771686,21.097529927867644
201.0,24.93146151352484,9.31330069614908,0.4611245428117925,20.949773847936477
202.0,26.181084017863096,9.213830834024858,0.4600273567290592,20.81007211404785
203.0,27.361009364199717,9.16045917274364,0.45898411247365417,20.678233349572803
204.0,28.45406749193211,9.154444456577107,0.45799463577176086,20.554076390177613
205.0,29.443654880515158,9.196685384749406,0.45705874053982015,20.437429869411694
206.0,30.314130956688576,9.287644061964414,0.4561762290489222,20.328131731798265
207.0,31.05117434645195,9.427274100028756,0.45534689208749307,20.22602877132998
208.0,31.64220432417569,9.61495856360325,0.45457050899469076,20.13097626083816
209.0,32.076772435881985,9.849463944666729,0.45384684779532536,20.042837561735215
210.0,32.34701806717414,10.128912884783862,0.4531756651909607,19.96148376832461
211.0,32.448032188309774,10.450785106929972,0.4525567065832841,19.88679335501497
212.0,32.378110348641314,10.811934620041438,0.4519897061677152,19.81865186846956
213.0,32.138922554752284,11.208636037255209,0.451474386924076,19.756951623830336
214.0,31.73550793572311,11.636652977611085,0.45101046062102373,19.70159141878275
215.0,31.176094263498623,12.091325473112242,0.45059762780791246,19.652476264075034
216.0,30.471757617863872,12.567671575038323,0.45023557770293715,19.60951713982691
217.0,29.635913108368133,13.060497976985028,0.4499239884545291,19.572630713342647
218.0,28.683773557738014,13.564510246400555,0.44966252684639346,19.54173915873746
219.0,27.63172667480694,14.074421004170937,0.44945084834839016,19.516769914738237
220.0,26.49674124418644,14.585044079691272,0.4492885970668614,19.49765548473813
221.0,25.296421201023108,15.090811954648006,0.44917540566850245,19.48433323317293
222.0,24.04962579264164,15.584959682664284,0.4491108954533637,19.476745205990383
223.0,22.775101400388692,16.06065422316764,0.449094676206404,19.474837933792934
224.0,21.490835008924847,16.5113396793769,0.4491263462289227,19.478562275244414
225.0,20.213712031601553,16.93084620120051,0.4492054921770263,19.487873259047866
226.0,18.959280054512398,17.31349654907709,0.4493316890868049,19.50272990810275
227.0,17.741583474455823,17.654217538211775,0.44950450037209577,19.523095090954023
228.0,16.57304263342043,17.948658580543555,0.4497234777326166,19.54893539360243
229.0,15.464381742133222,18.193303529682062,0.44998816106744677,19.58022096717363
230.0,14.424607298822439,18.38557247616243,0.45029807852267545,19.61692538591416
231.0,13.461019701227027,18.523904681927974,0.4506527465017103,19.659025528213473
232.0,12.579251495784893,18.607803561890425,0.45105166948852116,19.706501450314217
233.0,11.783377857700165,18.637835271966022,0.451494340155266,19.759336261341105
234.0,11.07605597287275,18.615576152662577,0.4519802392996233,19.817516000979023
235.0,10.458709061551408,18.543517840736833,0.4525088358291012,19.881029541164295
236.0,9.93174130200329,18.42491651300075,0.4530795868230871,19.94986842576101
237.0,9.494757699161818,18.263641264170527,0.4536919374123427,20.0240268093354
238.0,9.146811080335658,18.063991889366594,0.4543453209426586,20.103501349890312
239.0,8.886617574997237,17.830517540665,0.4550391590389303,20.188291082835203
240.0,8.712741796577376,17.567855533387675,0.45577286162090824,20.2783973164218
241.0,8.623748496500818,17.28059660886222,0.4565458269619126,20.37382353177546
242.0,8.618276667828276,16.9732130943258,0.4573574416771362,20.474575286071826
243.0,8.6950770277068,16.650013352670882,0.45820708078431127,20.580660129357074
244.0,8.85306691823933,16.315062871765253,0.45909410796656835,20.692087495707124
245.0,9.091352820091453,15.972124457285531,0.46001787563044394,20.808868600112838
246.0,9.409227983865666,15.624623985031304,0.460977725028259,20.93101634518663
247.0,9.80614656541519,15.275636817093872,0.46197298637532946,21.058545228792582
