Time,J,A,S,tau
0.0,100.0,100.0,0.6848150493526852,15.217701830486117
1.0,97.15018805105403,97.94010898348317,0.6833307675777912,15.141810245429907
2.0,94.36867064693442,95.91854443663064,0.6818076005605711,15.063915194736053
3.0,91.65718802241614,93.93672771337131,0.6802483806190965,14.984152384881083
4.0,89.01442564093261,91.99395783970954,0.678653690690567,14.902543591476995
5.0,86.43897234022047,90.08951232971552,0.67702412926805,14.819111031748315
6.0,83.92953334467164,88.22271278767425,0.6753603275595639,14.733877965768183
7.0,81.48481328567783,86.39288288601092,0.6736629228264062,14.646867840527143
8.0,79.10343552757634,84.59933371036429,0.6719325806613421,14.5581049758493
9.0,76.78417417692509,82.84142553820995,0.6701699875926481,14.467614413237277
10.0,74.52571589878046,81.1184972290956,0.6683758377893836,14.375421415717797
11.0,72.32678244630675,79.42990862588282,0.6665508573790249,14.281552329083311
12.0,70.18618800176723,77.77504843533924,0.6646957819234433,14.186033851603261
13.0,68.1026575848565,76.15328659237535,0.6628113628971316,14.088893210145603
14.0,66.07496713770998,74.56401451259363,0.6609355479879454,13.992127628417958
15.0,64.10192233769264,73.00663631787243,0.6604486553869544,13.968908902450805
16.0,62.18230928600249,71.48055652204414,0.6599817406476931,13.946771980986911
17.0,60.31497652063402,69.985202654675,0.6595222002857459,13.925045048506028
18.0,58.49873649555593,68.51999629961519,0.6590701931133655,13.903732398587652
19.0,56.732480318969955,67.08438756559998,0.6586258741778758,13.882838146849608
20.0,55.015078404770385,65.67782306080147,0.6581893974036591,13.862366357078681
21.0,53.34540406819831,64.2997572758206,0.6577609125123279,13.84232090828238
22.0,51.72239729281567,62.949665781654666,0.6573405673592582,13.822705598539144
23.0,50.14493975415949,61.62701282877842,0.6569285067681743,13.80352410150961
24.0,48.612011838403866,60.33129447953071,0.656524871952537,13.784779945121803
25.0,47.12253997380974,59.06199420741978,0.656129802540491,13.766476595846378
26.0,45.675513527720085,57.818618418269764,0.655743433268999,13.748617335434602
27.0,44.26993296039736,56.600678029372574,0.6553658975453195,13.731205396258437
28.0,42.90478512465538,55.407684723449876,0.6549973242957244,13.714243851500513
29.0,41.57913483394643,54.2391739478853,0.6546378397228615,13.69773567877394
30.0,40.29199417725829,53.09466903188623,0.6542875672012627,13.681683760819169
31.0,39.042465866588834,51.973721393977414,0.6539466254397066,13.666090825959238
32.0,37.82962106890218,50.87587475299252,0.6536151316967425,13.650959555998348
33.0,36.652577400998574,49.80068829084546,0.6532931976997519,13.63629245947843
34.0,35.51048595351452,48.747731146650175,0.6529809333929031,13.622091989665524
35.0,34.402480315043356,47.716568916447095,0.6526784443059798,13.608360468630586
36.0,33.32778106551535,46.70679172906707,0.6523858322716071,13.595100109116833
37.0,32.2855682852126,45.71797890668767,0.6521031966605734,13.58231305429573
38.0,31.275111498117138,44.74973391225408,0.6518306312661478,13.570001290242008
39.0,30.29567268610747,43.801658165305746,0.6515682284330827,13.558166763330282
40.0,29.346554675054097,42.87336270626226,0.6513160747416518,13.546811265070438
41.0,28.42711794439515,41.96447342440133,0.6510742543183667,13.535936521098947
42.0,27.536710685007588,41.074611499697276,0.6508428472412137,13.525544153331364
43.0,26.674785779370364,40.20342350318687,0.6506219289127664,13.515635662953533
44.0,25.840769105528995,39.35054850419873,0.6504115726839869,13.50621250089142
45.0,25.03418901854544,38.51564853676708,0.6502118456834901,13.497275963848931
46.0,24.254586067228256,37.69838851370336,0.6500228135218334,13.488827311516594
47.0,23.50154801014089,36.898442938440304,0.6498445360478022,13.480867666702707
48.0,22.774768040616692,36.11551028721957,0.6496770695293317,13.473398065860374
49.0,22.073890860593423,35.34927897392234,0.6495204680791914,13.466419497341768
50.0,21.398724097716343,34.599474253886434,0.6493747784040773,13.459932777810552
51.0,20.74910669255269,33.865828778421644,0.6492400460749908,13.45393869740969
52.0,20.12482566534919,33.148069428624304,0.64911631306394,13.448437968327674
53.0,19.52590639130893,32.445978537996396,0.6490036132407755,13.443431119667899
54.0,18.95240840215506,31.75934600949594,0.6489019797080069,13.438918662951163
55.0,18.404306746965357,31.087955049120815,0.6488114429486466,13.434901055843703
56.0,17.881759635070306,30.431641607869814,0.6487320254413943,13.431378580957384
57.0,17.384992125631666,29.79025718832294,0.6486637482477425,13.428351489083234
58.0,16.91416376871515,29.163662716161586,0.6486066286727146,13.425819953862478
59.0,16.469641332885384,28.551780649873752,0.6485606772371131,13.423784001894742
60.0,16.051789652003247,27.95454011571962,0.6485259034354969,13.42224363834027
61.0,15.660941218644195,27.371906043232553,0.6485023112316856,13.421198754020766
62.0,15.297557707281934,26.80388571153922,0.6484899007608095,13.420649157150814
63.0,14.96203080898979,26.250514050007943,0.6484886684577147,13.420594580296944
64.0,14.654865158149448,25.7118804958698,0.6484986059921555,13.421034654493528
65.0,14.376453394774517,25.188097176955594,0.6485197021777251,13.42196895294067
66.0,14.127263853776542,24.679343188046506,0.648551940351339,13.423396932740744
67.0,13.907641249850187,24.18581736867587,0.6485953016086365,13.42531800553209
68.0,13.7179153175361,23.707792393887434,0.6486497612129897,13.427731459718418
69.0,13.55831660952778,23.245563309420177,0.6487152923739569,13.430636541160856
70.0,13.428916707010522,22.799496194254683,0.6487918626162955,13.434032375803609
71.0,13.329724877212527,22.369985928274772,0.6488794372593721,13.437918042710008
72.0,13.26041358041097,21.95748870573483,0.6489779763046585,13.44229250859157
73.0,13.220700862720214,21.56251461505656,0.6490874362275061,13.447154662530016
74.0,13.209855379057277,21.185595250853762,0.6492077705803457,13.452503332724921
75.0,13.226933823019774,20.827318729374305,0.649338928237373,13.458337245038127
76.0,13.270649491921008,20.48830252581403,0.6494808546469707,13.464655050538703
77.0,13.3394189602908,20.169195470063308,0.6496334916098295,13.471455319525363
78.0,13.431308736091266,19.870671756406807,0.6497967769666769,13.478736533650695
79.0,13.543993105166303,19.593415775726704,0.6499706451292007,13.486497097291503
80.0,13.674774120572977,19.338115223767662,0.6501550268385787,13.494735330889501
81.0,13.820584210611358,19.105448539515386,0.6503498492770917,13.50344947248077
82.0,13.977998754991525,18.896069504012043,0.6505550360609865,13.512637676379347
83.0,14.14325501603612,18.710590535656348,0.6507705073016664,13.522298013427273
84.0,14.312297385178635,18.549565525291783,0.6509961797279457,13.532428472704533
85.0,14.48083459298126,18.413469623409515,0.65123196663592,13.54302695895049
86.0,14.64441374559276,18.30267823411165,0.6514777779722997,13.554091293185163
87.0,14.798503394745957,18.21744416144116,0.6517335203791769,13.565619212354935
88.0,14.938589071479962,18.157875836188893,0.6519990972433327,13.577608369028924
89.0,15.06027980338487,18.123913848480658,0.6522744087468184,13.590056331076232
90.0,15.159419645251809,18.115309051997727,0.6525593519187769,13.602960581324979
91.0,15.232201281507761,18.131601792851445,0.6528538206884666,13.61631851720404
92.0,15.275276795261494,18.17210350523052,0.6531577059391521,13.630127450358893
93.0,15.285855123898097,18.235882519268323,0.6534708955731969,13.644384606562761
94.0,15.261800850843624,18.321752808747355,0.6537932745512062,13.659087124795205
95.0,15.201706482069413,18.428266890231153,0.6541247249345571,13.674232056330586
96.0,15.104926642321072,18.553720606708215,0.6544651259848547,13.689816365542534
97.0,14.971604977474547,18.69616741457658,0.6548143542665443,13.705836931012495
98.0,14.80271200178685,18.85341414891773,0.6551722834973112,13.722290538070123
99.0,14.59994399033451,19.02306988996201,0.6555387848788828,13.739173887232907
100.0,14.365716660543061,19.20256608215348,0.655913727022679,13.756483589341428
101.0,14.10307608650633,19.389196568929894,0.6562969760089329,13.774216164847438
102.0,13.815601116050397,19.580167238838325,0.6566883954718239,13.792368044036264
103.0,13.5072899251774,19.772648155336622,0.657087846663726,13.810935566555036
104.0,13.18243902738935,19.9638299978959,0.6574951885161935,13.829914980753424
105.0,12.845519197294632,20.150980950271194,0.6579102777206426,13.849302443836649
106.0,12.501054432148926,20.33150615057292,0.6583329687717149,13.869094020401418
107.0,12.153504521321926,20.503001674168054,0.658763114047118,13.889285682467191
108.0,11.807161627228755,20.66330435062058,0.6592005638731101,13.909873308902906
109.0,11.466060936071512,20.810533951806644,0.659645166592495,13.930852684937117
110.0,11.133908384968908,20.943126084367318,0.6600967686330506,13.952219501671859
111.0,10.814026043874268,21.05985512891591,0.6605552145763495,13.973969355601499
112.0,10.509317013655652,21.159844911174794,0.661020347226927,13.996097748137833
113.0,10.22224799251192,21.242568500579985,0.6614920076835598,14.018600085257088
114.0,9.954845275670145,21.307839322461035,0.661970035402897,14.041471676663596
115.0,9.708708941757317,21.3557887232657,0.6624542682772364,14.064707735813755
116.0,9.485037326688616,21.386837796114744,0.6629445427113219,14.088303380041795
117.0,9.284648361599457,21.401668137476335,0.6634406936682783,14.112253628452635
118.0,9.108020167999872,21.401185163713357,0.6639425547232172,14.136553399821322
119.0,8.955361523608978,21.386463047004277,0.6644499582692978,14.161197523438235
120.0,8.826567683668555,21.35873556751939,0.6649627353245893,14.186180716489924
121.0,8.721371869727035,21.319327059724145,0.66548071590914,14.2114976103957
122.0,8.639278933967669,21.269641093401074,0.666003728886726,14.237142729891875
123.0,8.579665398581588,21.211118341012522,0.6665316021197248,14.263110500481796
124.0,8.258607612288419,21.145214165878738,0.667064162569869,14.289395250635398
125.0,7.678014367079022,21.073376414931204,0.667601236319004,14.315991208873802
126.0,7.120443704867652,20.99702614151824,0.6681426486454414,14.342892501775772
127.0,6.58386538297506,20.917543727964055,0.6686882241039053,14.37009315560884
128.0,6.066332976089851,20.836258036788557,0.6692377865916124,14.397587095950948
129.0,5.565990485940452,20.754438200063433,0.6697911594166679,14.425368147430317
130.0,5.0810762284354505,20.673287887528208,0.6703481653663096,14.453430033585326
131.0,4.609924946946922,20.59394140214995,0.6709086267747225,14.481766376755619
132.0,4.15096874093127,20.517461024773155,0.6714723655903895,14.510370698005891
133.0,3.7027372788147472,20.444835146431192,0.6720392034429407,14.539236417083634
134.0,3.2638566783828478,20.376977809203158,0.6726089617094679,14.568356852412288
135.0,2.8330494007420532,20.314727309985276,0.6731814615802699,14.597725221121129
136.0,2.409132546941639,20.25884648035495,0.6737565241239933,14.627334639113299
137.0,1.9910175201986213,20.21002168958215,0.6743339703522522,14.65717812112673
138.0,1.5777090489910603,20.168862638205987,0.6749136212844637,14.687248580827672
139.0,1.4674598375409527,19.83606659659075,0.6754952980049793,14.717538832281624
140.0,1.4301541914248304,19.440089252984908,0.6760788217324765,14.748041586510562
141.0,1.393956979859323,19.052496968603357,0.6766640138519495,14.778749462816512
142.0,1.3588318744566477,18.673104807738095,0.677250696091708,14.80965495850414
143.0,1.3247432691544927,18.30172994108693,0.6778386903595667,14.840750505551696
144.0,1.2916571942422934,17.938194924327114,0.6784278190979806,14.872028396774127
145.0,1.2595407606919151,17.582326457934247,0.6790179050382711,14.903480864199377
146.0,1.2283619287378382,17.233953152188583,0.679608771485072,14.935100013767753
147.0,1.1980903311518594,16.89291063968272,0.680200242284207,14.966877868323483
148.0,1.168695895709168,16.559034230309457,0.6807921417939509,14.998806353915136
149.0,1.1401504644182088,16.232167401186413,0.6813842952216836,15.030877285940582
150.0,1.1124259467014612,15.912152632498856,0.6819765281900707,15.063082411633205
151.0,1.0854960816395682,15.598840110785268,0.6825686674666955,15.095413346071512
152.0,1.0593347903429702,15.292080018441155,0.683160540193565,15.127861654466228
153.0,1.0339174196294536,14.99172817644694,0.68375197483238,15.16041876340812
154.0,1.0092198947606565,14.697642781662653,0.6843428003452653,15.193076050050973
155.0,0.9852189836684229,14.40968471571724,0.6849328469830374,15.225824765950936
156.0,0.9618924643029779,14.127719691855962,0.6855219458060684,15.25865609710733
157.0,0.9392184911837321,13.851613862773904,0.6861099289783118,15.291561129613653
158.0,0.9171764859549153,13.581239628795029,0.6866966298874047,15.324530860656397
159.0,0.8957459859869398,13.316468744070532,0.6872818827716966,15.357556216012382
160.0,0.8749078398708359,13.057179398308184,0.6878655235094604,15.390628011741175
161.0,0.854642937924663,12.803249085217823,0.6884473885902441,15.423737016597327
162.0,0.8349333797833931,12.554561040592203,0.6890273165373708,15.456873873531391
163.0,0.8157615867096742,12.310999954207226,0.6896051464532704,15.49002919023472
164.0,0.7971105133043703,12.07245209762538,0.6901807192711498,15.52319346430557
165.0,0.7789640412734651,11.838808980622531,0.690753877207763,15.556357129106217
166.0,0.7613060750676585,11.609960995053012,0.6913244635687128,15.58951055437733
167.0,0.744121637565003,11.385804654816123,0.691892323811205,15.622644008610806
168.0,0.727395792565889,11.166236102352485,0.6924573039752263,15.655747729687176
169.0,0.7111143709909351,10.951155050365697,0.6930192525152992,15.688811847718014
170.0,0.6952636809302732,10.7404640433359,0.6935780187996298,15.721826456500768
171.0,0.6798302530096396,10.53406573503806,0.6941334539861815,15.754781574065115
172.0,0.6648014694026041,10.331868005113481,0.6946854111110142,15.787667151724575
173.0,0.650164684197147,10.133777651355325,0.695233744136358,15.820473103920326
174.0,0.6359080762930991,9.93970618437512,0.6957783096689041,15.853189258821523
175.0,0.6220199858696033,9.74956587427704,0.6963189650041551,15.885805422476665
176.0,0.6084891697116364,9.563270661367309,0.696855569910673,15.918311327195946
177.0,0.5953049226289114,9.380738091667332,0.6973879855534588,15.950696669418207
178.0,0.5824565970940084,9.201885067497276,0.6979160746580767,15.982951103850588
179.0,0.5699342580765016,9.026633147340014,0.6984397023967042,16.015064230779107
180.0,0.5577279529855002,8.854903184630507,0.6989587346629773,16.04702563338547
181.0,0.545828310200653,8.686619387825354,0.6994730403945959,16.078824838167662
182.0,0.5342262582995858,8.521708118240293,0.6999824894819249,16.11045135608742
183.0,0.5229127774223187,8.360095038701411,0.7004869537001092,16.141894668508133
184.0,0.5118795010422819,8.201710456113403,0.7009863074696429,16.17314422474108
185.0,0.5011180531290786,8.046484209148513,0.7014804257909129,16.204189466969346
186.0,0.49062043444704645,7.894348081663716,0.701969186755435,16.23501981149568
187.0,0.48037901988059145,7.7452368049257245,0.7024524697849241,16.265624666850883
188.0,0.47038616113144566,7.599084048769491,0.7029301558127123,16.29599343462463
189.0,0.4606347604579982,7.455827494120391,0.7034021287997507,16.326115511864387
190.0,0.45111777332387043,7.315405045872078,0.7038682732842464,16.355980295361565
191.0,0.44182837223656535,7.177755450971962,0.704328476679562,16.385577190480532
192.0,0.4327601255022064,7.04282073791316,0.7047826281831541,16.414895612119324
193.0,0.4239065524476759,6.910541863104047,0.7052306181329119,16.443924983336984
194.0,0.4152616087239406,6.780862987097139,0.7056723401349533,16.47265476130202
195.0,0.4068193594761018,6.653729129762182,0.7061076884830005,16.501074411378074
196.0,0.398573974895521,6.5290853749623965,0.7065365599991246,16.529173438045245
197.0,0.39052000816579246,6.406880099783121,0.7069588537374063,16.556941386325423
198.0,0.3826519590308509,6.287060745664301,0.7073744695192364,16.584367815635876
199.0,0.3749646643365442,6.16957719111634,0.7077833106445472,16.611442369113195
200.0,0.36745314918128813,6.054381067779909,0.7081852813910715,16.63815471589344
201.0,0.3601123952138384,5.941422907964135,0.7085802875884963,16.66449456863933
202.0,0.3529377655483511,5.830656456500139,0.7089682383961394,16.690451750006464
203.0,0.34592469225737527,5.722036075492024,0.7093490434639704,16.7160160996423
204.0,0.33906864064617237,5.615515682856177,0.7097226148310124,16.741177547457244
205.0,0.3323654192262843,5.511052383546318,0.7100888671980714,16.765926137981126
206.0,0.32581082847026666,5.408603031624032,0.7104477156882327,16.79025193289179
207.0,0.3194007933948,5.308124998619186,0.7107990785135632,16.814145142539356
208.0,0.31313150084583347,5.209578282651359,0.7111428756978712,16.837596075920835
209.0,0.3069990890366838,5.112922045226013,0.7114790279928208,16.86059507760139
210.0,0.3009999092476106,5.018117077323325,0.7118074595846355,16.883132696879567
211.0,0.2951304693410267,4.9251258284219395,0.7121280956718335,16.905199550801605
212.0,0.28938723554848506,4.833909821580276,0.7124408628316309,16.926786340347622
213.0,0.2837669312520421,4.744432958338276,0.712745690885799,16.947884001075593
214.0,0.2782663435659851,4.656659808510104,0.7130425101734511,16.96848350843078
215.0,0.27288226443484837,4.570554434712577,0.7133312531932027,16.98857599782213
216.0,0.2676117293221641,4.486083390420863,0.713611855078562,17.008152831796455
217.0,0.26245177256254437,4.403213115586734,0.7138842513191425,17.027205399670056
218.0,0.2573994926300538,4.321910203996506,0.7141483802670481,17.045725341950725
219.0,0.2524522027254224,4.242143615041172,0.7144041823106492,17.0637045075043
220.0,0.24760719217422006,4.163881909475217,0.7146515981559781,17.08113476914118
221.0,0.24286181318106576,4.087093810796275,0.7148905715742804,17.098008303876977
222.0,0.23821361560317544,4.011750303384408,0.7151210482108593,17.114317510002238
223.0,0.23366012494681626,3.9378219647980206,0.7153429740422536,17.130054813466167
224.0,0.2291989280426766,3.865279583430806,0.7155562981226858,17.145212982687895
225.0,0.22482778925600322,3.794096034038584,0.7157609712714117,17.159785021644584
226.0,0.22054444809237841,3.7242437746048633,0.7159569446608771,17.173763966647005
227.0,0.21634670366598302,3.6556955163182216,0.7161441725541481,17.18714323466845
228.0,0.21223251468695833,3.588425894327117,0.7163226108786226,17.19991649032066
229.0,0.20819981467845197,3.5224091198619494,0.7164922159389878,17.212077435702923
230.0,0.2042465949547867,3.4576196945773603,0.7166529471466969,17.22362019108343
231.0,0.2003709904222359,3.3940338930389036,0.7168047654863148,17.23453913403173
232.0,0.19657111060973312,3.3316275611465276,0.7169476323460583,17.24482868522802
233.0,0.1928451209670773,3.2703768678180896,0.7170815122430018,17.25448371968424
234.0,0.18919131624866203,3.2102596144538182,0.7172063711863925,17.26349937678798
235.0,0.18560796175727795,3.1512531192693913,0.7173221755699071,17.27187083582576
236.0,0.1820933775418441,3.0933350552086845,0.7174288950029708,17.279593773425425
237.0,0.17864601111230763,3.0364847344398407,0.7175265006867044,17.28666416614546
238.0,0.17526429212442748,2.980681180379878,0.7176149640290641,17.293078011330966
239.0,0.1719466570675137,2.9259031632469243,0.7176942593530418,17.298831756947816
240.0,0.1686916849613795,2.8721312844045457,0.7177643632001749,17.303922276040346
241.0,0.16549795525180344,2.8193461369202963,0.7178252522291629,17.308346459674933
242.0,0.16236402289958793,2.767527707672617,0.7178769053917288,17.31210154739807
243.0,0.15928857986616762,2.7166577154000513,0.7179193045358606,17.31518532850836
244.0,0.15627033834637505,2.666718159156493,0.7179524317028488,17.317595636141064
245.0,0.15330797116901015,2.6176903016196458,0.7179762705511237,17.31933053891593
246.0,0.15040026638079243,2.5695568188911517,0.717990808191702,17.32038874630716
247.0,0.14754605298028392,2.522300960616977,0.7179960321772834,17.320769067935196
