Time,J,A,S,tau
0.0,100.0,100.0,0.26272982539598844,55.55555555555556
1.0,97.33387573705934,97.94027340474209,0.2625232658282604,55.46396923190275
2.0,94.72864209120075,95.91870711897361,0.2623110362797179,55.36992938371422
3.0,92.18614281763624,93.93688657674409,0.2620935341083411,55.27360989304831
4.0,89.70518815641987,91.99411316356351,0.26187082008259427,55.17503636241515
5.0,87.2845217611261,90.0896669073916,0.2616429561928176,55.074234765938186
6.0,84.92295188966412,88.22286056272124,0.2614100090144295,54.97123253295573
7.0,82.61934201079914,86.39302923331432,0.2611720463178126,54.86605747933749
8.0,80.37245846310026,84.59947782368458,0.26092913818651836,54.75873813547821
9.0,78.18118280516848,82.84156076782439,0.26068135891718364,54.649304388678104
10.0,76.04440134428924,81.11863534401627,0.2604287833778967,54.537786308701854
11.0,73.96093608836127,79.43004213604614,0.2601714898148961,54.424215034630755
12.0,71.92973521486746,77.77517238682913,0.25990955954607625,54.30862271303347
13.0,69.94970157057787,76.153402287708,0.25964307449724167,54.191041678805064
14.0,68.019734311908,74.56411356003268,0.2593721206583629,54.07150558576077
15.0,66.13883488719856,73.00672733447708,0.25909678583808476,53.950048697652264
16.0,64.30592432901096,71.48063798363023,0.2588171590041244,53.826705646327376
17.0,62.51999335167432,69.98527039352852,0.25853333318402105,53.70151241909747
18.0,60.78008179933117,68.52006808433107,0.2582454022613023,53.574505295725324
19.0,59.0851546120119,67.08445044548262,0.2579534621282132,53.44572122166475
20.0,57.43428706893179,65.67787918593297,0.2576576120077267,53.315198289420216
21.0,55.82655434184226,64.29981648677749,0.2573579515633942,53.1829747420856
22.0,54.26099389843763,62.94971280221778,0.2570545831955031,53.04908976831251
23.0,52.73676057275946,61.62706039867647,0.25674761157708614,52.91358336859962
24.0,51.252968328961835,60.33133757061654,0.2564371418742957,52.77649571342008
25.0,49.808757220643066,59.06203018955491,0.2561232823201286,52.637868082737604
26.0,48.40336025925637,57.818655206724074,0.2558061423906335,52.49774222032444
27.0,47.03594730363453,56.600707221478174,0.2554858324602388,52.35616019769251
28.0,45.70578728542504,55.40770834569427,0.25516246572543727,52.21316516411382
29.0,44.41219292148096,54.23919425828474,0.2548361559265006,52.06880048108346
30.0,43.15443366243141,53.09468183177879,0.2545070182127144,51.923110063275274
31.0,41.93191902777515,51.973723760173016,0.25417516984734084,51.77613868622148
32.0,40.74405730497036,50.87587162911508,0.25384072836783955,51.62793123767392
33.0,39.59026877960813,49.800669410861865,0.2535038130323341,51.478533340094124
34.0,38.470120134509656,48.74769523942075,0.25316454439080405,51.32799118668998
35.0,37.3831325135768,47.71651309167554,0.25282304325930666,51.17635108775996
36.0,36.328932152184315,46.70669679468322,0.25247943220046076,51.023660185713325
37.0,35.30727770792325,45.71784766111391,0.2521338344692033,50.86996596533588
38.0,34.31785606903418,44.74954775610989,0.2517863735410718,50.71531601939373
39.0,33.360507313622854,43.80139162211638,0.25143717433013224,50.55975873994158
40.0,32.435235681919174,42.8730025304412,0.2510863622677741,50.403342823138516
41.0,31.541989131420134,41.963991509986236,0.2507340628707545,50.24611701355659
42.0,30.68079269339147,41.073963362640306,0.25038040252175175,50.08813066704431
43.0,29.851941206718784,40.2025604185665,0.2500255080991477,49.929433531203074
44.0,29.055715544477522,39.34942191244466,0.24966950651275627,49.770075383829436
45.0,28.29241269287782,38.514173930066676,0.2493125250164578,49.61010640204826
46.0,27.56258432858144,37.696470233937724,0.24895469109121487,49.449577080969746
47.0,26.8667511475674,36.895957318584756,0.24859613224315447,49.288538018163116
48.0,26.20565203330068,36.112295507972185,0.24823697598288222,49.12704015973613
49.0,25.58013506397872,35.34515489350091,0.24789047946511966,48.97130605205247
50.0,24.991076886840837,34.59420025033972,0.24773375739183334,48.90461499702583
51.0,24.439509707633317,33.85910829349607,0.24758658100255068,48.84225933498866
52.0,23.92656686093245,33.13956022661229,0.2474442300055522,48.78201188391748
53.0,23.45353677417296,32.43524629114855,0.24730673233740738,48.72387802677227
54.0,23.021767278495595,31.745858437464847,0.24717411428541575,48.667862622291224
55.0,22.632746552456627,31.0710968876373,0.2470464004490051,48.613969998802034
56.0,22.288053559921174,30.410666076138217,0.24692361354343303,48.56220390317104
57.0,21.989349000968453,29.764275346540906,0.24680577483666805,48.51256764067171
58.0,21.738430044551716,29.131641626012726,0.24669290363506693,48.46506392734274
59.0,21.53712120731444,28.51248419250788,0.24658501778222913,48.41969504630495
60.0,21.38738787098816,27.90653069751453,0.2464821333646874,48.37646276622972
61.0,21.2912166404601,27.31351181865851,0.24638426478340003,48.33536837059903
62.0,21.250690024163205,26.73316491934296,0.2462914249439635,48.296412716479786
63.0,21.26792778137787,26.165232186853377,0.24620362499349796,48.259596166686066
64.0,21.34507839967336,25.609460688194485,0.24612087455355997,48.22491866084989
65.0,21.484338133080247,25.06560344376821,0.24604318168704445,48.192379710433165
66.0,21.687929238008962,24.533419402114554,0.24597055279245633,48.16197837566171
67.0,21.958054189261258,24.01267224578308,0.24590299277895278,48.13371331785634
68.0,22.29692707404744,23.50313180575599,0.24584050505280405,48.10758279918044
69.0,22.706752682444243,23.0045744430557,0.24578309140495355,48.08358465775689
70.0,23.189672432626743,22.51678180848561,0.24573075217953722,48.061716356171985
71.0,23.74779926212806,22.039542220041877,0.2456834862742605,48.04197498415575
72.0,24.383198592897187,21.57265147205031,0.24564129102403348,48.02435723255418
73.0,25.097826032871335,21.11591160582314,0.24560416236039515,48.00885943769163
74.0,25.893566156862057,20.669132250587904,0.2455720948252391,47.99547758667675
75.0,26.772216316577246,20.232131887671688,0.2455450814530463,47.98420729076605
76.0,27.73541600252764,19.804736663172097,0.2455231139197754,47.97504382556606
77.0,28.784677172051513,19.386781336106196,0.24550618258749912,47.96798214330225
78.0,29.92141492834592,18.978112323148856,0.24549427630928125,47.963016826371444
79.0,31.146781833050415,18.578584043207968,0.24548738271626638,47.96014216106395
80.0,32.46188354300058,18.1880639222864,0.24548548807331821,47.959352100812424
81.0,33.86747652527083,17.806430202817648,0.24548857727162735,47.96064026902029
82.0,35.36428245161959,17.433573756207736,0.24549663406855554,47.96400001423625
83.0,36.95258507207554,17.06939948772582,0.24550964073098686,47.96942432881647
84.0,38.63272170392249,16.713826722995105,0.24552757847317488,47.97690594969077
85.0,40.40434001252897,16.366785743576052,0.24555042727253093,47.98643732187328
86.0,42.267344077587516,16.028236084431313,0.24557816537078522,47.99801046709641
87.0,44.22114480989189,15.698136031125372,0.24561077078116497,48.011617357129886
88.0,46.26451261175187,15.376473885743442,0.2456482194594153,48.027249469997514
89.0,48.396612752638774,15.063260527389168,0.24569048632604,48.04489802720999
90.0,50.615793229299996,14.758510075308791,0.24573754576605975,48.06455412749331
91.0,52.92006928895851,14.462271832462214,0.2457893702893317,48.086208412048464
92.0,55.307321959966735,14.174605224735288,0.245845931872829,48.109851391836116
93.0,57.77480842421717,13.895598920908856,0.2459072009550028,48.13547320095457
94.0,60.31982850693643,13.625360410217274,0.24597314716759194,48.163063771613324
95.0,62.9388927376062,13.364018402463866,0.24604373898838036,48.19261275167066
96.0,65.62845202477534,13.111724964347893,0.2461189439185038,48.224109541968254
97.0,68.38435404384713,12.868655894378168,0.2461987283230933,48.25754325646306
98.0,71.20229280298328,12.635007299555685,0.2462830577210739,48.292902791913924
99.0,74.0774117500262,12.411001416691462,0.24637189645151097,48.33017674016847
100.0,77.00463498843953,12.196877966398228,0.2464652081097282,48.369353498499216
101.0,79.97844670457995,11.992904328223377,0.24656295509238366,48.410421146202516
102.0,82.99302370434208,11.799362374182305,0.24666509912603543,48.453367583246354
103.0,86.04224763424767,11.616561876750799,0.2467716007533549,48.498180386492116
104.0,89.11960799484498,11.444824401020409,0.2468824198836791,48.54484695850761
105.0,92.21844834422721,11.284498052753131,0.2469975152933273,48.59335438311002
106.0,95.33165786127985,11.135940339564522,0.2471168451290044,48.643689564942484
107.0,98.45211817348981,10.999532613995619,0.2472403664824526,48.69583910206904
108.0,101.57222254805761,10.875663269650364,0.24736803579665095,48.74978940079356
109.0,104.68447107712977,10.764740878954049,0.2474998085551293,48.80552657874496
110.0,107.78087328833344,10.667178490025027,0.24763563955979634,48.86303654363188
111.0,110.85362385723305,10.583405020949707,0.24777548275737607,48.92230493610088
112.0,113.89445766711881,10.513850956402269,0.24791929137454735,48.98331716523238
113.0,116.89532800498654,10.458957980601387,0.24806701788812435,49.04605839636819
114.0,119.84779220540214,10.419166061717778,0.24821861401802564,49.11051354022793
115.0,122.7436094678719,10.39492143555239,0.24837403083398127,49.1766672868259
116.0,125.57424131102293,10.386665113045337,0.2485332186197019,49.24450404917619
117.0,128.33128443441058,10.394839176812988,0.24869612709702035,49.3140080403047
118.0,131.00617559874007,10.419877026354957,0.24886270518556297,49.38516317666652
119.0,133.59037413716825,10.462207509291053,0.24903290131516492,49.45795319102579
120.0,136.07535975811484,10.522247695904294,0.24920666311527195,49.53236150530559
121.0,138.45250860137452,10.600404125934494,0.24938393777473658,49.60837136636662
122.0,140.71341233085192,10.697068691539524,0.24956467170861013,49.68596570486479
123.0,142.8494704750938,10.812616695852206,0.24974881091474901,49.76512727512696
124.0,144.85248915490942,10.947406116022679,0.24993630066635883,49.84583851925723
125.0,146.71406362946107,11.101772219981344,0.2501270858225375,49.928081692848984
126.0,148.42637864022922,11.276030599370426,0.2503211105821873,50.01183875085788
127.0,149.9814776146536,11.470467915350584,0.2505183187203272,50.09709144472489
128.0,151.37215894498064,11.685349165913985,0.25071865342454236,50.18382124239715
129.0,152.59124819400446,11.920904122331407,0.2509220574423571,50.272009386604914
130.0,153.63245838129546,12.17733919184782,0.2511284730089086,50.36163685720389
131.0,154.48979229002967,12.45481935475467,0.2513378419021969,50.45268438459755
132.0,155.15819142207607,12.753484744828196,0.2515501054670711,50.545132462408915
133.0,155.63323595868215,13.07342681300113,0.25176520456605245,50.63896130302952
134.0,155.9115999457733,13.414713487256755,0.25198307968572703,50.73415089967147
135.0,155.9905861646033,13.77735629735761,0.25220367087983286,50.83068097413002
136.0,155.8692344823503,14.161337290793156,0.25242691774476045,50.92853095970159
137.0,155.54657301804272,14.566595494765052,0.25265275968026374,51.027680159081555
138.0,155.02402882052374,14.993003126506672,0.2528811354264088,51.12810741861055
139.0,154.30363921752252,15.440421277709376,0.2531119835871389,51.22979148917676
140.0,153.3882011486911,15.908635748667217,0.25334524238317185,51.33271083618347
141.0,152.282268753913,16.397388502948015,0.2535808496284197,51.436843613003425
142.0,150.99092721854794,16.90637500654158,0.25381874291429013,51.542167794659676
143.0,149.520854566435,17.43522823373972,0.2540588594075932,51.64866099927775
144.0,147.87920501908363,17.98354286265002,0.2543011360927683,51.756300687577024
145.0,146.07426130595783,18.550844889114508,0.2545455095838116,51.86506398340269
146.0,144.1148635897028,19.136613279399402,0.25479191627344416,51.97492780147146
147.0,142.01061781809747,19.74026874557593,0.255040292258981,52.08586876209353
148.0,139.77151688671856,20.36117526225751,0.25529057340180844,52.19786324224934
149.0,137.4079884130175,20.99864553319058,0.25554269532536733,52.31088735891568
150.0,134.93065994164652,21.651929000582317,0.2557965934055346,52.424916948160195
151.0,132.3503070229068,22.320230212006066,0.2560522028298679,52.53992762032035
152.0,129.6776848260247,23.002688289401934,0.2563094585399058,52.655894675564255
153.0,126.92348024862756,23.698400715912445,0.25656829531838554,52.77279320653394
154.0,124.09814829904226,24.406403628157157,0.2568286477251299,52.890597989654644
155.0,121.21190432510089,25.125691272479106,0.25709045016887777,53.00928358545806
156.0,118.27458726217175,25.855205616520237,0.25735363687469087,53.12882425907674
157.0,115.29564137499204,26.59384521368839,0.2576181419132882,53.24919402985739
158.0,112.28407731478282,27.340467290959932,0.25788389921343396,53.370366657146924
159.0,109.24837708576266,28.093885560301242,0.25815084254862414,53.49231561810764
160.0,106.19659389845529,28.852882383247703,0.25841890558334046,53.61501416459751
161.0,103.13616895250584,29.616199456959695,0.25868802183730377,53.73843523886177
162.0,100.07413339842181,30.382554511990634,0.2589581247389076,53.86255157618506
163.0,97.01690387641911,31.150630420495094,0.2592291475965499,53.98733559814254
164.0,93.97048486650934,31.919090687084193,0.25950102363257815,54.112759511535195
165.0,90.9403406705225,32.68657143446382,0.2597736859805724,54.23879523164996
166.0,87.93150652695772,33.45169193510015,0.26004706769066593,54.36541443049906
167.0,84.94858740046874,34.213051401337076,0.26032110175248846,54.49258852468991
168.0,81.99575443683065,34.96923352444223,0.2605957210802653,54.62028865330541
169.0,79.07685312047163,35.718808189402374,0.26087085854687114,54.74848573495731
170.0,76.19532246046668,36.460330052855916,0.2611464469674113,54.877150385861235
171.0,73.35434820295065,37.192345216319346,0.26142241912410197,55.0062530204597
172.0,70.55677507503589,37.91338426699932,0.2616987077668182,55.13576374950485
173.0,67.80523241551718,38.6219737625174,0.2619752456153673,55.265652477492615
174.0,65.10208386193962,39.316623627414955,0.2622519653849894,55.39588881477711
175.0,62.4495154089551,39.99584456188003,0.2625287997661961,55.52644216579614
176.0,59.84950741775726,40.658132687384295,0.26280568146331307,55.657281648707674
177.0,57.30389179985324,41.30198877753272,0.26308254316755547,55.78837616957225
178.0,54.81434722202672,41.9259036445725,0.2633593176004433,55.91969436264515
179.0,52.382426076976024,42.52837933029345,0.2636359374826809,56.051204642620704
180.0,50.009565852411924,43.107915638280126,0.2639123355797248,56.182875167618214
181.0,47.69709289600685,43.663034298062826,0.26418844466997804,56.31467386907016
182.0,45.446242131418984,44.19226609621362,0.26446419759332224,56.4465684299543
183.0,43.87297035157174,44.02278069368132,0.2647395272140496,56.578526320123416
184.0,42.94625574748312,43.18875789615279,0.26501436645043924,56.710514768658086
185.0,42.04165941528737,42.37136614546567,0.26528864828654103,56.84250077818297
186.0,41.15856402468317,41.57024490787376,0.26556230576028156,56.97445112334935
187.0,40.296386842078014,40.7850512138724,0.2658352720203925,57.10633232707907
188.0,39.45453926129452,40.01543650704929,0.2661074802204416,57.23811079509497
189.0,38.63247106849511,39.2610708975862,0.26637886368087416,57.369752560961636
190.0,37.829645566432745,38.521631786834845,0.26664935577208587,57.50122357615982
191.0,37.04552497438571,37.79679241568509,0.2669188899258818,57.63248956256006
192.0,36.2796121023794,37.08624787724365,0.26718739976791683,57.76351594091104
193.0,35.53140982873269,36.38969248482762,0.2674548189405989,57.89426808256283
194.0,34.80043385125572,35.706824432266345,0.2677210812449734,58.02471104628095
195.0,34.08623070770874,35.037359726696394,0.2679861206399254,58.15480970906159
196.0,33.388340033851215,34.38100839434324,0.2682498711090712,58.28452886199184
197.0,32.7063286382543,33.737494053954904,0.2685122668873389,58.41383296605071
198.0,32.03977829319151,33.10654928110861,0.2687732422955536,58.54268640117785
199.0,31.38826741547186,32.48790187579218,0.2690327317563437,58.67105338355284
200.0,30.75140577531242,31.881297454697215,0.2692906699656972,58.79889786370848
201.0,30.128805687259064,31.286482746451753,0.26954699165759705,58.926183752026056
202.0,29.52008576501615,30.703205451707582,0.26980163178605576,59.052874730095716
203.0,28.924890641924804,30.131229200705775,0.2700545255271952,59.17893431503997
204.0,28.342860596434893,29.570313623098503,0.27030560810325777,59.30432597116907
205.0,27.773653462099844,29.020227148084057,0.2705548150662969,59.4290129195405
206.0,27.216941999793992,28.480747797229164,0.27080208209719825,59.55295830749333
207.0,26.6723936592541,27.951648080131957,0.27104734500132877,59.67612518837902
208.0,26.139701566724774,27.432715857052557,0.27129053997218644,59.79847641084673
209.0,25.61856477603931,26.923742846246597,0.27153160326460235,59.91997479561701
210.0,25.108678622249137,26.42451599128193,0.27177047133705257,60.04058305952814
211.0,24.609763252600903,25.93483778101563,0.27200708105028937,60.16026376756461
212.0,24.12154203710282,25.454512775214805,0.27224136931099446,60.27897946916639
213.0,23.6437367536675,24.983342179664813,0.2724732733041698,60.39669262337385
214.0,23.1760919530752,24.521142048657243,0.27270273061320327,60.513365593796806
215.0,22.718353150451296,24.06772888799546,0.272929678861597,60.62896073463681
216.0,22.270266438521045,23.622917420530015,0.2731540560339788,60.74344033760728
217.0,21.831598273978496,23.186536135062962,0.2733758004974949,60.85676665258358
218.0,21.402114362403527,22.758412660931114,0.2735948506629961,60.96890192404511
219.0,20.981583111869103,22.338374497558707,0.27381114539104606,61.079808377921466
220.0,20.569790682025165,21.926261546969435,0.2740246238984431,61.18944824586023
221.0,20.16652120536132,21.521911805288,0.2742352254608783,61.2977837587099
222.0,19.771563536957913,21.125164819469376,0.2744428898953011,61.404777189316306
223.0,19.384721592092383,20.735870981446663,0.2746475573401801,61.51039085506388
224.0,19.005796335762405,20.353877956720062,0.2748491680221534,61.61458708100175
225.0,18.634595332552994,19.97903662762274,0.2750476628002016,61.71732831061628
226.0,18.270938528071564,19.61120704024948,0.2752429828140906,61.81857706004564
227.0,17.914642275429856,19.250245885678606,0.27543506933804773,61.91829586932794
228.0,17.565531239628058,18.89601469063784,0.27562386436503766,62.01644748694902
229.0,17.223439850801608,18.548382386718284,0.27580931012488524,62.112994750378284
230.0,16.88819796803989,18.207213656063356,0.27599134903105127,62.20790054092406
231.0,16.559645874505264,17.872379968601106,0.27616992432829957,62.30112806374939
232.0,16.237631948504813,17.54375904609564,0.27634497948464337,62.39264063231189
233.0,15.922000785212749,17.221225114192105,0.2765164581289196,62.4824016066738
234.0,15.61260354054649,16.904656214184875,0.2766843048137373,62.57037476687698
235.0,15.30930135961509,16.593938217175026,0.27684846441709277,62.656524082225744
236.0,15.011952617797917,16.28895446129289,0.27700888193130774,62.74081355801445
237.0,14.720418914887114,15.989589598640563,0.27716550331049733,62.823207688615334
238.0,14.434572816069034,15.695736918191162,0.2773182749870229,62.90367127709256
239.0,14.154285167923264,15.407288135890278,0.2774671434708546,62.98216915289526
240.0,13.879427438930003,15.124134358357908,0.27761205623767476,63.058666676409906
241.0,13.609882385167017,14.846175606902527,0.27775296143292616,63.1331296720704
242.0,13.345532120954536,14.573311286906007,0.2778898072580341,63.205523988649695
243.0,13.086257466203179,14.305438811074573,0.2780225428472742,63.2758160150048
244.0,12.831950258634267,14.042464301823186,0.2781511182320888,63.34397279214775
245.0,12.582502775917076,13.78429421038963,0.2782754835000147,63.40996139839729
246.0,12.337804720215676,13.53083211243767,0.27839558960145827,63.47374942686014
247.0,12.0977560106778,13.281989651290868,0.2785113886400006,63.53530533527009
248.0,11.862258076484622,13.03767972362221,0.2786228328053696,63.59459765502157
