Time,J,A,S,tau
0.0,100.0,10.0,0.8451996471616275,17.5425938065555
1.0,97.74988762062875,89.67921983556204,0.800510662080662,16.601888396458786
2.0,221.47593309719895,162.27327478672711,0.7574943916594475,15.652611322111476
3.0,447.44905737197485,228.17149659124902,0.7161391644457921,14.694874782092262
4.0,754.532857736514,287.75140068852295,0.6764293106291939,13.728787571784865
5.0,1124.0059883635176,341.3782890272343,0.6383458069009587,12.754462531267976
6.0,1539.3880893248177,389.405197858353,0.601866456472074,11.772016522735507
7.0,1986.271439658744,432.1728544664946,0.5669660833922414,10.781570404696653
8.0,2452.1568989047814,470.0096723790234,0.5336167337857068,9.783249002148805
9.0,2930.198316065444,498.946522288816,0.504924898580254,8.885469282574865
10.0,3386.8764811243154,532.0833592124584,0.5019481215873305,8.848481971649187
11.0,3826.477932494813,628.9628002514179,0.4990221603295584,8.812371993005637
12.0,4337.916981877158,778.1107776189056,0.4961483719092524,8.777139300615676
13.0,4984.0865140843025,969.380642915816,0.4933280791090495,8.742783709024348
14.0,5806.437329342022,1193.8325332462177,0.4905625696945632,8.709304902227743
15.0,6828.96451540553,1443.6217023614288,0.48785309578852754,8.676702442274065
16.0,8061.663484022429,1711.8950522360387,0.48520087332407563,8.64497577761784
17.0,9503.509048193879,1992.695293613271,0.4826070815789856,8.614124251253886
18.0,11147.129113912479,2277.9425225751893,0.48007286275729627,8.584147108450864
19.0,12965.447159688569,2569.4871193155527,0.4775993217076454,8.555043504556796
20.0,14927.390465831773,2910.0214730311495,0.4751875256201152,8.526812512169691
21.0,17061.156080464105,3334.1368387678694,0.4728385038605253,8.499453128267865
22.0,19435.846229177158,3865.3748188495542,0.4705532478370096,8.472964281043513
23.0,22142.471867188,4518.310806632021,0.46833271093170176,8.447344836451526
24.0,25279.97708251068,5300.325922940168,0.4661778084978671,8.422593604593875
25.0,28945.090185971418,6213.1059548531075,0.4640894179093445,8.398709345770895
26.0,33225.427422295776,7253.887190411687,0.46206837865254896,8.375690776334059
27.0,38196.20883656541,8414.183560652642,0.4601154924690432,8.353536574251597
28.0,43907.169635574464,9692.421043602137,0.458231523536151,8.33224538449083
29.0,50389.11131201407,11113.548519582657,0.4564171987156719,8.311815824042466
30.0,57689.881827243844,12721.093691987666,0.4546732078081796,8.29224648698117
31.0,65895.86189955968,14568.389145933872,0.45300020384264794,8.273535948954624
32.0,75140.5450257911,16712.12506767316,0.451398803403648,8.255682771638451
33.0,85604.33947516345,19207.74604694554,0.44986958697835694,8.238685506918173
34.0,97508.91940780608,22106.289057459835,0.4484130993236125,8.222542700845276
35.0,111108.70927483597,25452.0897561135,0.44702984984919,8.20725289737028
36.0,126680.55052643169,29280.994556151254,0.4457203130168599,8.192814641870003
37.0,144507.2073785509,33629.67886586882,0.44448492873519746,8.179226484415656
38.0,164873.05291965746,38549.74499328751,0.44332410278460577,8.166486982883898
39.0,188077.69006218514,44115.39838460087,0.4422382071996078,8.154594705755423
40.0,214458.90725919194,50425.844112282335,0.441227580706306,8.143548234866255
41.0,244416.6084762036,57604.284355659,0.4402925291209437,8.133346167823237
42.0,278434.2228531642,65794.84160921274,0.43943332574670363,8.123987120252403
43.0,317095.35721776733,75158.35163076289,0.4386502117601916,8.115469727847364
44.0,361095.09645149787,85867.34984523713,0.43794339658459525,8.10779264821924
45.0,411244.2735339619,98102.47096880195,0.43731305823995353,8.100954562542421
46.0,468467.38373680227,112055.8639166138,0.4367593436878178,8.094954177038769
47.0,533802.9695301414,127940.49665734796,0.4362823691569723,8.089790224244245
48.0,608414.0726525459,146001.62449374294,0.43588222044109537,8.085461464085979
49.0,693611.1657358205,166528.00166840255,0.43555895317504045,8.081966684780097
50.0,790886.7318126747,189861.50094323707,0.43531259308706044,8.079304703546457
51.0,901959.1126570692,216404.52169876976,0.4351431362232963,8.077474367138164
52.0,1028823.013044672,246624.96854579268,0.43505054914290264,8.076474552198787
53.0,1173804.4641671674,281058.8455201109,0.4350347691044813,8.076304165459428
54.0,1339615.4962356815,320312.70897122304,0.4350957042127286,8.076962143727968
55.0,1529408.4978045917,365069.4862906239,0.4352332335401328,8.078447453720216
56.0,1746833.848596384,416099.5525732075,0.4354472072226536,8.080759091721527
57.0,1996106.9732036358,474277.33021001954,0.4357374465293755,8.083896083079653
58.0,2282090.6293012765,540602.8339417139,0.43610374389979256,8.087857481522219
59.0,2610400.336754595,616227.0796118642,0.4365458629698604,8.092642368340867
60.0,2987534.7658824795,702480.2671629478,0.4370635385737951,8.09824985138331
61.0,3421034.9270867514,800901.712326147,0.43765647671858815,8.104679063884875
62.0,3919674.6524741123,913270.8902428828,0.4383243545401896,8.111929163146922
63.0,4493683.0208107345,1041640.4556198453,0.4390668202415389,8.11999932905749
64.0,5154999.895869624,1188373.5138245297,0.43988349301187263,8.12888876245092
65.0,5917570.122099748,1356187.9491105992,0.44077396292885157,8.138596683317443
66.0,6797687.873220268,1548210.1975649083,0.4417377908647912,8.149122328876805
67.0,7814395.539243635,1768041.0502843533,0.4427745083718595,8.160464951468889
68.0,8989957.352278199,2019835.22819584,0.44388361756214384,8.17262381630765
69.0,10350424.11174847,2308396.1701887893,0.4450645909840408,8.185598199087092
70.0,11926308.585006574,2639287.151355761,0.44631687149738236,8.199387383439523
71.0,13753389.689904867,3018960.170659137,0.4476398721441822,8.21399065823713
72.0,15873683.63202532,3454904.0937270336,0.44903297603438,8.229407314778548
73.0,18336592.434876785,3955815.4528687587,0.4504955362397788,8.245636643810212
74.0,21200266.725179825,4531796.957592361,0.4520268756939949,8.262677932405245
75.0,24533225.464296423,5194589.718070353,0.45362628710760033,8.280530460707867
76.0,28416260.483402386,5957847.2020777855,0.45529303289587103,8.299193498517225
77.0,32944760.79762375,6837458.199039032,0.45702634513737467,8.318666301795746
78.0,38231448.827297725,7851930.168230577,0.4588254255493648,8.338948109001523
79.0,44409607.229383886,9022844.000756186,0.46068944548583385,8.360038137249152
80.0,51637005.29369182,10375390.533440579,0.4626175459728488,8.381935578396702
81.0,60100584.3915703,11939004.265977468,0.4646088377729315,8.404639594982507
82.0,70022078.44615017,13748111.108957216,0.4666624014844991,8.428149316033382
83.0,81664760.80150004,15843009.77312383,0.46877728767903315,8.452463832746194
84.0,95341558.17012991,18270911.64180215,0.4709525170781153,8.4775821940465
85.0,111424769.35326155,21087171.746356875,0.473187080771612,8.503503402013733
86.0,130357759.8397343,24356743.044966098,0.47547994048408765,8.530226407196457
87.0,152669032.33976504,28155901.552481055,0.47783002888672566,8.557750103808036
88.0,178989161.8173761,32574294.676432434,0.48023624995738073,8.586073324803932
89.0,210071202.2853894,37717374.96162433,0.4826974793908002,8.615194836844902
90.0,246815299.72066402,43709293.86830923,0.48521256506038307,8.645113335148444
91.0,290298404.2491746,50696344.2719623,0.4877803275326234,8.675827438231083
92.0,341810202.6293392,58851056.587864965,0.49039956063484563,8.707335682545388
93.0,402896538.39283,68377078.04965231,0.4930690320762231,8.739636517005426
94.0,475411879.40682435,79514983.51353812,0.4957874841259167,8.772728297417292
95.0,561582928.9486052,92549198.11479811,0.4985536343453642,8.80660928081697
96.0,664085655.252577,107816254.5722017,0.5013661763746516,8.841277619709333
97.0,786138662.8529929,125714648.4814527,0.5042237807731442,8.876731356215965
98.0,931615652.0841265,146716636.24238968,0.5071250959152082,8.912968416110786
99.0,1105185252.9957478,171382207.5411665,0.5100687489349892,8.949986602890098
100.0,1312475725.9136193,200376065.17275116,0.5130533467189967,8.987783591509869
101.0,1560278122.1417704,234487607.85861093,0.5160774769707716,9.0263569223701
102.0,1856794286.3702204,274655201.4494675,0.5191397092877151,9.065703994909548
103.0,2211934352.751582,321994932.50541186,0.5222385963244858,9.105822061417227
104.0,2637685911.657546,377835332.2016318,0.525372674962079,9.146708220554018
105.0,3148554057.8968997,443758912.83590865,0.5285404675521866,9.188359410947749
106.0,3762108577.659242,521651869.86095846,0.5317404831753243,9.230772404720915
107.0,4499640219.926181,613764201.5703777,0.5349712189513629,9.273943800852088
108.0,5386969147.412502,722781098.5643934,0.5382311613772323,9.317870018734734
109.0,6455428964.94632,851909833.4823078,0.5415187876917159,9.362547291355948
110.0,7743060835.075239,1004982903.1631334,0.5448325672787756,9.407971658837978
111.0,9296090504.55841,1186583388.9759235,0.5481709630754137,9.454138961560115
112.0,11170700560.500216,1402194742.6715145,0.5515324330235137,9.501044833585519
113.0,13435238336.829481,1658381472.5903268,0.5549154315107997,9.548684695862857
114.0,16172866304.260893,1963007273.988203,0.5583184108519683,9.597053749472344
115.0,19484848435.942867,2325495893.763691,0.5617398227512459,9.646146968986475
116.0,23494536245.234135,2757148774.520738,0.5651781197943877,9.695959095548845
117.0,28352249846.51505,3271523159.184547,0.5686317569208865,9.746484630382733
118.0,34241287636.021187,3884893645.6781626,0.5720991929066375,9.797717827816687
119.0,41385188423.94888,4616802963.808205,0.5755788918347665,9.849652688838498
120.0,50056768179.40723,5490730985.943963,0.5790693245499375,9.902282954249417
121.0,60588986870.827644,6534899985.80215,0.5825689701139157,9.955602098142375
122.0,73388470550.23264,7783244128.692057,0.5860763172165824,10.009603321331507
123.0,88951863726.61574,9276587677.226933,0.5895898655990619,10.064279544713408
124.0,107885990606.59872,11064052949.74139,0.593108127410876,10.119623403018535
125.0,130932536194.26637,13204781447.267906,0.5966296285797599,10.17562723812997
126.0,158998079051.96307,15769987034.439056,0.600152910110742,10.232283093081332
127.0,193191318359.2443,18845462022.60459,0.6036765293777479,10.289582705526122
128.0,234867950980.4934,22534583641.16714,0.6071990613627319,10.34751750182658
129.0,285686549385.1359,26961955707.480556,0.6107190998498717,10.406078590885679
130.0,347675973268.1901,32277818152.455044,0.6142352585964916,10.465256758217295
131.0,423318837739.29846,38663340756.65117,0.6177461724198154,10.525042460260309
132.0,515653117119.6007,46337084557.658394,0.6212504982851635,10.585425818445216
133.0,628396471576.558,55562717371.453865,0.6247469162855807,10.646396613970518
134.0,766099468065.9762,66658452413.08449,0.6282341306250526,10.70794428202646
135.0,934330869862.4629,80008336971.74309,0.631710870499962,10.770057906882597
136.0,1139907820841.9067,96075991994.73846,0.6351758909549992,10.832726216523126
137.0,1391173069158.3777,115421171033.49438,0.6386279736728685,10.895937577869784
138.0,1698338401019.1108,138719756205.69904,0.6420659276961438,10.95967999199883
139.0,2073901599103.405,166787958910.99744,0.6454885901046834,11.023941089576407
140.0,2533158689186.07,200611548649.86215,0.648894826624568,11.08870812646847
141.0,3094827317428.145,241381163645.25235,0.6522835321811113,11.153967979622541
142.0,3781810372991.0513,290534969051.7096,0.6556536313888859,11.219707143121724
143.0,4622128181814.29,349810194605.0041,0.6590040789838801,11.285911724459577
144.0,5650057706299.934,421305432040.1811,0.662333860197172,11.352567441024123
145.0,6907523866169.444,507555800432.58356,0.6656419910640069,11.419659616877063
146.0,8445796254341.705,611623740650.9464,0.6689275186767426,11.487173179772453
147.0,10327559940676.67,737208638152.3282,0.6721895213799082,11.555092658423478
148.0,12629440637623.762,888779201315.2749,0.6754271089092193,11.623402180028942
149.0,15445086078398.988,1071733325195.1401,0.6786394224753531,11.69208546805754
150.0,18888921744880.562,1292590861204.917,0.681825634788061,11.761125840376316
151.0,23100723776702.42,1559226244859.8987,0.6849849500295516,11.83050620765615
152.0,28251189699569.832,1881149160826.073,0.688116603776015,11.900209072072757
153.0,34548718661772.562,2269843209230.9985,0.6912198628700161,11.970216526309017
154.0,42247670993981.62,2739174411233.203,0.6942940252443146,12.04051025286619
155.0,51658412250001.56,3305883370096.053,0.6973384196945654,12.111071523763725
156.0,63159520934253.234,3990178723389.093,0.7003524056095256,12.181881200555056
157.0,77212629704900.45,4816452332357.656,0.7033353726582264,12.252919734685573
158.0,94380451889606.84,5814141432636.38,0.7062867404373492,12.32416716819279
159.0,115348698527182.31,7018767288037.577,0.7092059580789698,12.395603134768452
160.0,140952667062927.44,8473185367233.125,0.7120925038178564,12.46720686124864
161.0,172209496053528.22,10229091086369.32,0.7149458845261004,12.538957169460696
162.0,210357292208220.78,12348832470897.838,0.7177656352150082,12.610832478458047
163.0,256902555636955.47,14907592962219.535,0.7205513185076241,12.682810807137942
164.0,313677720009537.9,17996017632737.918,0.7233025240816828,12.754869777275045
165.0,382910792424670.06,21723370913007.016,0.7260188680834885,12.826986617018356
166.0,467309664906086.0,26221335442459.543,0.7286999925194009,12.89913816478771
167.0,570164164184306.2,31648579932748.67,0.7313455646251326,12.971300873603033
168.0,695469487347419.0,38196253724261.34,0.733955276216063,13.043450815837879
169.0,848075641576850.9,46094588835306.96,0.7365288430180892,13.11556368844252
170.0,1033867897597718.6,55620830102776.52,0.7390660039803504,13.187614818662636
171.0,1259984827156753.8,67108764165026.89,0.7415665205753013,13.259579170202278
172.0,1535081646211065.8,80960164676472.92,0.7440301760864579,13.331431349863642
173.0,1869648113755855.8,97658544670826.45,0.7464567748866372,13.403145614653637
174.0,2276392584034673.0,117785659964310.16,0.7488461417060555,13.474695879412051
175.0,2770704782692858.5,142041313351185.12,0.7511981208920108,13.546055724965488
176.0,3371213904383933.0,171267125500727.1,0.7535125756644383,13.617198406771639
177.0,4100461315800323.5,206475056934013.4,0.7557893873676664,13.688096864083118
178.0,4985711140915990.0,248881645661267.25,0.7580284547206751,13.75872372962166
179.0,6059927543255460.0,299949046495362.7,0.7602296930652184,13.829051339821861
180.0,7362950106828467.0,361434236885531.94,0.7623930336135063,13.899051745629242
181.0,8942908836298789.0,435448020792829.8,0.764518422698693,13.968696723834197
182.0,1.0857926611128736e+16,524525763612745.7,0.7666058210284118,14.037957788965535
183.0,1.3178167292689458e+16,631712229345747.9,0.768655202943101,14.106806205737364
184.0,1.5988300434035144e+16,760663172931128.4,0.7706665556785992,14.17521300210572
185.0,1.939046079152863e+16,915767064878078.0,0.772639878634368,14.243148982905415
186.0,2.3507805665518444e+16,1102290937304875.8,0.7745751826497438,14.310584744064235
187.0,2.848878812434241e+16,1326555108082316.5,0.7764724892883085,14.377490687410807
188.0,3.4512290904852036e+16,1596142596038871.5,0.7783318301316172,14.443837036074477
189.0,4.179379444968707e+16,1920149708350537.5,0.7801532460819505,14.509593850521874
190.0,5.059277347972494e+16,2309486137379380.0,0.7819367866749123,14.574731045193765
191.0,6.122157612236434e+16,2777234315235182.5,0.7836825094036565,14.63921840575057
192.0,7.405607596566082e+16,3339079728141157.5,0.7853904790546422,14.703025606934432
193.0,8.954845599685875e+16,4013826423079796.0,0.7870607670557598,14.766122231050755
194.0,1.0824254635884986e+17,4824013571468965.0,0.7886934508366965,14.82847778709277
195.0,1.3079219898496498e+17,5796653649122756.0,0.7902886132017591,14.890061730474475
196.0,1.579833225291826e+17,6964116076716418.0,0.7918463417165116,14.950843483384855
197.0,1.9076029065791603e+17,8365185127743092.0,0.7933667281079289,15.010792455762303
198.0,2.302576116124507e+17,1.0046326982128424e+16,0.7948498676786694,15.069878066894868
199.0,2.7783788235736848e+17,1.2063204876313736e+16,0.7962958587354809,15.128069767639913
200.0,3.3513722848578086e+17,1.44824930931149e+16,0.7977048020313929,15.185337063239036
201.0,4.041197557645136e+17,1.7384048229552464e+16,0.7990768002227941,15.241649536737166
202.0,4.8714276418472755e+17,2.0863508854885944e+16,0.8004119573408945,15.296976872995948
203.0,5.870349193885489e+17,2.503540900356448e+16,0.8017103782781251,15.351288883305338
204.0,7.071898604118318e+17,3.0036902015336736e+16,0.802972168289507,15.404555530550581
205.0,8.51678235881687e+17,3.603221967095519e+16,0.8041974325082315,15.456746954928214
206.0,1.0253818999650289e+18,4.321801094675852e+16,0.8053862754763865,15.50783350020686
207.0,1.2341545736891292e+18,5.18297363830895e+16,0.8065388006901419,15.557785740515332
208.0,1.485014399605658e+18,6.2149327639047064e+16,0.8076551101601039,15.606574507652262
209.0,1.7863744018693276e+18,7.451435319986006e+16,0.8087353039866941,15.65417091883698
210.0,2.1483183209514212e+18,8.932899926122131e+16,0.8097794799496227,15.700546404916603
211.0,2.58293095531337e+18,1.070772231237573e+17,0.8107877331122535,15.745672739004055
212.0,3.1046936320995763e+18,1.2833851834329256e+17,0.8117601554400371,15.789522065523931
213.0,3.730958239600206e+18,1.5380680760530637e+17,0.812696835434027,15.832066929639893
214.0,4.4825144696526817e+18,1.8431306786350586e+17,0.8135978577790078,15.873280306951546
215.0,5.384268947294917e+18,2.208524567788826e+17,0.8144633030053472,15.913135633495806
216.0,6.466058659542831e+18,2.6461683142579184e+17,0.8152932471652455,15.951606836001472
217.0,7.763625015873791e+18,3.1703375967576064e+17,0.8160877615224905,15.988668362371047
218.0,9.319781788926996e+18,3.7981330658533146e+17,0.8168469122570983,16.02429521233061
219.0,1.1185812925160098e+19,4.5500412338299206e+17,0.8175707601839914,16.058462968116622
220.0,1.3423146974231388e+19,5.4506076117398336e+17,0.8182593604849941,16.09114782524897
221.0,1.610536341634162e+19,6.529244526413844e+17,0.8189127624547327,16.1223266233121
222.0,1.9320596505431196e+19,7.821201384023407e+17,0.8195310092595309,16.15197687671838
223.0,2.3174419080898556e+19,9.368729426423452e+17,0.8201141377110831,16.180076805350858
224.0,2.779329557100259e+19,1.122247996601204e+18,0.8206621780536371,16.20660536495286
225.0,3.3328721409283727e+19,1.3443184520962422e+18,0.8211751537642505,16.231542277319978
226.0,3.996218604299285e+19,1.6103673758322414e+18,0.8216530813666342,16.2548680601928
227.0,4.791112401839641e+19,1.9291305821359867e+18,0.8220959702577268,16.27656405682791
228.0,5.74360592095278e+19,2.311088513548684e+18,0.8225038225491547,16.29661246509383
229.0,6.8849165464075305e+19,2.768817178675749e+18,0.822876632921898,16.314996365978725
230.0,8.252453851901236e+19,3.3174104557124675e+18,0.8232143884940907,16.331699751563143
231.0,9.89105218719647e+19,3.974988345374996e+18,0.8235170687023955,16.34670755234003
232.0,1.1854450151962893e+20,4.763309274123851e+18,0.8237846451962232,16.360005663866357
233.0,1.4207068170740145e+20,5.708507146940058e+18,0.8240170817472532,16.371580972542073
234.0,1.7026140553942434e+20,6.841979109529572e+18,0.8242143341722049,16.38142138044392
235.0,2.040427650282782e+20,8.201455616813159e+18,0.824376350269197,16.38951582925733
236.0,2.4452536275573693e+20,9.832290553534644e+18,0.8245030697680664,16.395854323184047
237.0,2.930412786639457e+20,1.1789018247900686e+19,0.8245944242940991,16.40042795081954
238.0,3.511885274069118e+20,1.4137230821914096e+19,0.8246503373478371,16.403228905752243
239.0,4.208844428768839e+20,1.695584385136905e+19,0.8246707242985998,16.404250505871453
240.0,5.044298789286809e+20,2.0339832272526086e+19,0.8246554923924947,16.40348721141209
241.0,6.045864113505964e+20,2.4403535264099705e+19,0.8246045407751954,16.400934641623095
242.0,7.246692339706639e+20,2.9284652449106207e+19,0.8245177605292063,16.396589590065254
243.0,8.686589928130208e+20,3.5149071161789047e+19,0.8243950347283152,16.390450038262465
244.0,1.0413362497342303e+21,4.219670431104548e+19,0.8242362385066875,16.382515167764584
