Time,J,A,S,tau
0.0,100.0,10.0,0.711333289544685,196.02904328414544
1.0,99.9820536853672,8.956630008717063,0.7112312938770518,197.02830303650632
2.0,99.96493270744915,8.02226160635479,0.7111309932127207,198.02768305212993
3.0,99.94802822676161,7.185755278921988,0.7110316137245092,199.0270807506133
4.0,99.9313127170444,6.436825547068108,0.7109330446496468,200.02649368728643
5.0,99.91475972654733,5.766274448478275,0.7108351774143609,201.02591957306427
6.0,99.89834371583416,5.165879147681279,0.7107379053450777,202.02535624963855
7.0,99.88203990358495,4.628281296645924,0.7106411233788656,203.0248016663075
8.0,99.86582412227679,4.146897965292091,0.7105447277801592,204.0242538586246
9.0,99.84967268273519,3.715842715200014,0.7104486158650692,205.0237109286203
10.0,99.83356224283918,3.3298473709130567,0.7103526857258541,206.02317102585044
11.0,99.81746968032375,2.9841972563776045,0.7102568359579075,207.02263232919427
12.0,99.80137196901748,2.6746753181081915,0.7101609653904544,208.02209302922543
13.0,99.78524605529816,2.397507514063684,0.7100649728162126,209.0215513106369
14.0,99.76906873470669,2.149315323984376,0.7099687567221292,210.02100533465065
15.0,99.75281652705317,1.9270759242487654,0.7098722150199942,211.02045322109697
16.0,99.73646554694766,1.7280844658620176,0.7097752447726835,212.01989302965526
17.0,99.71999137121436,1.54991904167468,0.7096777419215842,213.01932274040257
18.0,99.70336889987506,1.3904123233282555,0.7095796010107406,214.0187402331079
19.0,99.68657220658196,1.2476253343855215,0.7094807149022185,215.0181432645803
20.0,99.6695743816278,1.1198219442849116,0.709380974492294,216.01752944444166
21.0,99.65234736340486,1.0054485003303364,0.7092802684231471,217.0168962086217
22.0,99.63486175161678,0.9031154486882101,0.7091784827812091,218.0162407894418
23.0,99.61708660585116,0.811579068478668,0.7090755007938626,219.01556018269653
24.0,99.59898922680634,0.7297267088949386,0.70897120252333,220.01485111120255
25.0,99.58053490894991,0.6565638325365052,0.7088654645432897,221.01410998290615
26.0,99.56168666628015,0.5912011493627158,0.7087581596086918,222.01333284358634
27.0,99.5424049330432,0.5328438496639103,0.7086491563274311,223.0125153242842
28.0,99.52264722158485,0.4807824407210614,0.7085383188124794,224.01165258037784
29.0,99.50236773329124,0.4343838575929537,0.7084255063200001,225.0107392212942
30.0,99.48151693232553,0.3930835959051737,0.7083105728961919,226.00976923220375
31.0,99.46004105596863,0.35637926962873556,0.7081933670051823,227.0087358830591
32.0,99.43788154781988,0.32382457498771705,0.7080737311369233,228.0076316221376
33.0,99.41497442866019,0.2950235867283931,0.7079515014274383,229.0064479562051
34.0,99.39124958131903,0.26962661982793085,0.7078265072735314,230.00517531289904
35.0,99.3666298906396,0.24732579492254175,0.7076985709040051,231.00380287415788
36.0,99.34103033489366,0.2278513394127371,0.7075675070204586,232.002318397413
37.0,99.31435684504956,0.2109689862226834,0.7074331223534986,233.00070799083613
38.0,99.28650508400275,0.19647686893615815,0.707295215300859,233.99895586936108
39.0,99.25735894591413,0.18420398982340946,0.7071535755041237,234.9970440540668
40.0,99.22678894850958,0.17400764578679187,0.7070079835258982,235.9949520460616
41.0,99.19465017568939,0.1657730563692075,0.7068582104283656,236.99265640934001
42.0,99.16078011456895,0.15941194310072315,0.7067040175121476,237.99013032654668
43.0,99.12499601797671,0.1548620641091818,0.706545156022131,238.98734305637853
44.0,99.08709195762879,0.1520867288777124,0.7063813669540555,239.98425932297837
45.0,99.04683457549994,0.15107889903295132,0.7062123806609069,240.98083843920244
46.0,99.00396013860508,0.1518558611037578,0.7060379172200667,241.97703367805505
47.0,98.9581686660883,0.15446535697019714,0.7058576861266891,242.97279105257434
48.0,98.9091189750211,0.1589855099637434,0.7056713866853154,243.96804826520955
49.0,98.85642158194763,0.16552854501792802,0.7054787082558057,244.9627332121889
50.0,98.79963102433409,0.17424452544664332,0.7052793308715426,245.95676235362964
51.0,98.73823712369524,0.18532476892185137,0.7050729261257959,246.95003885196152
52.0,98.6716538851185,0.1990077523766552,0.7048591582861574,247.94245020614858
53.0,98.59920733114706,0.21558597938525098,0.7046376858806926,248.9338656453653
54.0,98.5201206966734,0.23541274298403309,0.7044081637152058,249.92413295213777
55.0,98.43349738164885,0.2589121285740236,0.7041702454610115,250.913074793518
56.0,98.33830064418119,0.2865902356155299,0.7039235869148018,251.90048434157626
57.0,98.23332983118223,0.31904808012738645,0.7036678500790177,252.886120134069
58.0,98.11719289489793,0.3569969848915735,0.703402708169674,253.86970011715724
59.0,97.9882737571049,0.4012774025062769,0.703127851764544,254.85089455849786
60.0,97.84469400343781,0.4528801630528597,0.7028429963101523,255.82931771074811
61.0,97.6842686881651,0.5129713086518273,0.7025478911282644,256.80451817104256
62.0,97.50445414665107,0.5829221189332772,0.702242330291498,257.7759674768506
63.0,97.30228753347366,0.6643430865899813,0.7019261655744086,258.7430468650447
64.0,97.07431655087409,0.7591235064510518,0.7015993218242748,259.70503185196617
65.0,96.81651813467214,0.8694770586464312,0.7012618150808568,260.6610743541246
66.0,96.52420476330555,0.9979939680107461,0.7009137737920513,261.61018204512914
67.0,96.19191706862604,1.1477002415500956,0.700555463469422,262.5511946448778
68.0,95.81330152929347,1.3221243295376457,0.7001873151012694,263.4827568568602
69.0,95.38097225942532,1.525371293963647,0.6998099575806332,264.40328771768236
70.0,94.88635631797156,1.7622041639899158,0.6994242542978681,265.31094621111924
71.0,94.31952262103857,2.0381315684104506,0.6990313438756964,266.20359314134987
72.0,93.75305504091332,2.3915303775235386,0.6986326849150326,267.0787493229409
73.0,93.73583395024264,3.0172473057809137,0.6982301033715099,267.9335513670437
74.0,93.85111400127407,3.7398480888600227,0.6978258429384104,268.76470443081723
75.0,94.14370944302283,4.574528860246268,0.6974226153394795,269.5684347897285
76.0,94.67075041308404,5.538518721767666,0.6970236480638925,270.3404442683213
77.0,95.5047135666621,6.651217687862356,0.6966327275255231,271.0758679924477
78.0,96.7370499124499,7.934288955223684,0.6962542311007212,271.7692413608965
79.0,98.48254117990544,9.411692521901555,0.6958931444043971,272.41447904145525
80.0,100.88442845035115,11.109636313867139,0.6955550570229169,273.0048718423444
81.0,104.1203676403243,13.05641597874858,0.6952461290306049,273.53310818313855
82.0,108.4092563517536,15.282126355106511,0.6949730228599805,273.9913245792838
83.0,114.0188925441622,17.818220267820703,0.6947427936622911,274.3711912482491
84.0,121.27440408657773,20.696906018385477,0.6945627348547662,274.6640355648256
85.0,130.5672866884697,23.950383626046662,0.6944401779624193,274.8610042123342
86.0,142.3648293748809,27.609937928684825,0.6943822505544175,274.9532607482324
87.0,157.21961966582901,31.70492561844006,0.6943956011289036,274.9322109524137
88.0,175.7787541129697,36.26171254430379,0.6944861050578204,274.78974376977436
89.0,198.79233480480463,41.30263334050422,0.6946585701403143,274.51847181331766
90.0,227.12081795727954,46.84505392150062,0.6949164629167127,274.1119531394662
91.0,261.7408085211513,52.90061591687862,0.6952616769857796,273.5648759597012
92.0,303.7489623887344,59.474729001468695,0.6956943615389575,272.8731906066978
93.0,354.3637551574418,66.56635409170705,0.6962128226673178,272.0341780385801
94.0,414.92499495922476,74.1680908137376,0.6968135024948129,271.04645073302294
95.0,486.89107684708705,82.26655160622626,0.6974910331460887,269.90988885313214
96.0,571.8340814021429,90.84297763327734,0.6982383553688252,268.6255208319303
97.0,671.432897767931,99.87403252748219,0.69904688641447,267.19536204462185
98.0,787.4645947852835,109.332701001765,0.6999067191395159,265.62222749452536
99.0,921.7942736650385,119.1892204336624,0.7008068342381361,263.90953442378276
100.0,1076.3636210121047,129.41198258450157,0.7017353096663292,262.0611088804073
101.0,1253.1783288577033,139.96835723875563,0.7026795142506251,260.08100732166247
102.0,1454.2945353538773,150.8254049343008,0.7036262779399921,257.9733604722597
103.0,1681.8043456918438,161.9504628215111,0.7045620328040015,255.7422437084234
104.0,1937.8205334643706,173.31159748000798,0.7054729246485091,253.39157521206283
105.0,2224.4603208330454,184.87793854708963,0.7063448954083857,250.92503960730463
106.0,2543.82852468559,196.61989022732854,0.7071637410374324,248.34603688399824
107.0,2897.9995658422536,208.50925867681605,0.7079151470414853,245.6576503987407
108.0,3288.9990636751195,220.51928964879318,0.7085847076174403,242.8626326766181
109.0,3718.783905579282,232.62465931186776,0.7091579315745389,239.9634024728727
110.0,4189.222659848599,244.80139886873954,0.7096202407640102,236.96205537035644
111.0,4702.074241836654,257.02680557209527,0.7099569625884925,233.86037747525722
112.0,5258.966150049175,269.2793234248705,0.7101533210784287,230.6598655452676
113.0,5861.372392575425,281.5384137994999,0.7101944287480328,227.3617502761117
114.0,6510.590978251479,293.7844172349964,0.7100652814215773,223.9670206581334
115.0,7207.72128310164,305.99841621487445,0.7097507576931655,220.4764487340101
116.0,7953.642868486018,318.1621015737121,0.7092356245000299,216.89061451428054
117.0,8748.989879574108,330.25766094249843,0.7085045464611142,213.20992679943086
118.0,9594.120233376841,342.2676478917541,0.7075421071539206,209.43464377326123
119.0,10489.13080762466,354.1748352577452,0.7063328434016289,205.5649064256756
120.0,11433.769477463205,365.96225534276886,0.7048612630519475,201.60073290074862
121.0,12427.493260412995,377.61288811583876,0.7031119201428878,197.54206346662656
122.0,13469.39153313507,389.1098456139393,0.7010694339635607,193.38875529408173
123.0,14558.196976321355,400.4360563536257,0.6987185933309609,189.14060815093936
124.0,15692.280708330181,411.5743643864463,0.6960443921846222,184.7973743236667
125.0,16869.609413487873,422.507476863133,0.6930321356537198,180.35876811094602
126.0,18087.756943530476,433.2178597878664,0.6896675382170182,175.82447953001883
127.0,19343.914650907205,443.68779453943637,0.6859367820323318,171.19418290059363
128.0,20634.861990157064,453.89931926929006,0.681826667422912,166.46754497237853
129.0,21956.97994489207,463.8342446590768,0.6773247169664489,161.64423337692526
130.0,23306.261618873454,473.47416305677046,0.6724192900971463,156.72392359034438
131.0,24678.323272229467,482.800474225272,0.6670997037181001,151.70630510384046
132.0,26068.41793769616,491.79442603333274,0.6613563619855692,146.59108725775098
133.0,27471.451035831447,500.43715637430483,0.6551809116560887,141.37800511254326
134.0,28882.009247191167,508.70974435606496,0.6485663749965821,136.0668242794524
135.0,30285.79532532303,520.6112859469026,0.6567244153541099,52.491158648315896
136.0,31752.285063693653,581.7925078761726,0.6491647631831297,46.74870611615276
137.0,33472.94555853194,683.2912772478641,0.6395118693558207,43.76031711320508
138.0,35607.50118780565,824.4320710426072,0.6289883877153607,41.681026649098136
139.0,38314.86830136036,1006.3627624831491,0.6179622077468431,40.054944696487425
140.0,41756.58260421841,1230.3647577571476,0.6066069579801262,38.69925111128126
141.0,46095.35152138109,1497.354830729094,0.5950249679202512,37.52295665419691
142.0,51491.67194698067,1807.671202728896,0.5832855438329334,36.474751337326616
143.0,58099.6917200324,2160.970442989625,0.5714403585894569,35.523178071270806
144.0,66062.81998977758,2556.185602448476,0.5595306418064911,34.647762099884915
145.0,75509.23923495528,2991.5283647104566,0.5475909386094966,33.834542709921266
146.0,86547.71205222374,3464.5218068145055,0.5356512242981759,33.073630730194125
147.0,99263.79308634781,3972.05636953062,0.5237381618224168,32.35778899261811
148.0,113716.5952757865,4510.4667525138875,0.5118758967859054,31.681561381351514
149.0,129936.47440412958,5075.613367171604,0.5000865365631333,31.040727744696852
150.0,147923.22519947073,5662.980527246377,0.4883904987448819,30.43193989767914
151.0,167645.2680991335,6267.770479003677,0.4768067090260846,29.852483734224638
152.0,189039.6615069202,6885.003063248809,0.4653527616946653,29.300111468265683
153.0,212012.85031583128,7509.609087358112,0.4540450038174332,28.77292801732241
154.0,236442.31781169373,8136.520479139338,0.4428986130373782,28.269308196395478
155.0,262178.9124657234,8760.75309316113,0.431927633126179,27.78783704169318
156.0,289049.6460214129,9377.481946383574,0.4211450127602299,27.327268066618483
157.0,316861.2778668839,9982.10605794738,0.41056263323780656,26.886489907294553
158.0,345404.0096886622,10570.30491926096,0.40019132654493367,26.464502344374765
159.0,374455.5106626272,11138.086601056893,0.39004089241672035,26.06039838928012
160.0,403785.58775970916,11681.8017135691,0.3801201325316169,25.673349849162133
161.0,433150.6421314021,12216.400930288119,0.37043685824813505,25.30259561097441
162.0,462553.3470932168,12887.552083730703,0.36099791995564423,24.94743342726615
163.0,492644.75131624984,13823.446860079335,0.3518092409671381,24.60721255149635
164.0,524551.2672612495,15130.761756254136,0.3428758449229047,24.281327908185823
165.0,559758.0332970745,16901.639523693186,0.3342018902756634,23.969215280359634
166.0,600010.2477447498,19212.26748277372,0.3257907071469214,23.670347289928134
167.0,647211.78465413,22120.71216066657,0.31764483742388494,23.384229977752657
168.0,703321.2165137951,25665.281682379846,0.3097660768271816,23.110399916250092
169.0,770251.434930522,29863.841055101497,0.30215551866535345,22.84842166852973
170.0,849775.478073775,34714.1125089798,0.2948135998795808,22.59788560650174
171.0,943445.2093155823,40194.88208125181,0.2877401477737145,22.358405980705694
172.0,1052525.5827480361,46267.934400317725,0.28093442735354895,22.129619212935943
173.0,1177945.3209990896,52880.53332566707,0.27439519149534186,21.911182359362687
174.0,1320269.0443180075,59968.172301916224,0.2681207252789439,21.702771775841526
175.0,1479685.7183889507,67457.53453722651,0.2621088959794766,21.50408182017904
176.0,1656012.1864418387,75269.35158288834,0.2563572000903011,21.314823789498988
177.0,1848713.8715519647,83321.15384419066,0.25086280731178096,21.134724881498208
178.0,2056935.9316934918,91529.75615987067,0.24562260675008435,20.96352722600994
179.0,2279543.711059045,99813.43001765135,0.2406332497030014,20.800987108102113
180.0,2515168.8999419864,108093.74482447862,0.23589118971931183,20.64687407555448
181.0,2762261.3188158334,116295.74871480002,0.23139272298018004,20.500970322873293
182.0,3019136.7665803377,124393.1694454475,0.227134026200666,20.36306993015145
183.0,3284385.701474821,132569.89464702443,0.22311118850995024,20.232978279449267
184.0,3557732.211531407,141182.97623466453,0.21932024682864476,20.110511463855683
185.0,3840543.542810977,150691.05951959416,0.21575721562630754,19.995495760605444
186.0,4136038.732891276,161607.07475526253,0.21241811505785543,19.88776712145335
187.0,4449296.9623785755,174458.0452231447,0.20929899664383025,19.787170705251164
188.0,4787110.964124299,189750.77963757576,0.20639596670628335,19.693560439970092
189.0,5157727.059916087,207944.0916255616,0.20370520751227705,19.606798612278176
190.0,5570510.485962147,229428.04855289127,0.20122299621518452,19.526755485243285
191.0,6035570.89160182,254510.35476546292,0.19894572155787196,19.453308935406568
192.0,6563388.384483999,283409.27064355696,0.19686989849676007,19.38634411506784
193.0,7164459.231751088,316252.30488735635,0.19499218081405553,19.325753133222054
194.0,7848967.63031172,353079.6094446613,0.1933093716445144,19.271434756756662
195.0,8626536.881206613,393850.81771401997,0.19181843252554817,19.223294132747874
196.0,9506022.173813691,438454.651049073,0.19051648990044007,19.181242504347086
197.0,10495351.729066364,486719.52626708866,0.18940084083729422,19.145196985424086
198.0,11601463.6175234,538425.3323063118,0.18846895598915187,19.115080287584068
199.0,12830259.454351213,593314.6056672622,0.1877184829891473,19.090820537713554
200.0,14186612.317294102,651103.4676673892,0.18714724537026134,19.07235102754626
201.0,15674429.195976537,711497.0693023376,0.18675324268321386,19.05961001908047
202.0,17296799.816617716,774291.0197099207,0.18653464930197045,19.052540558037787
203.0,19056654.90277212,839530.5410967935,0.18648980848401603,19.051090289552867
204.0,20957953.125337582,907588.4710020953,0.1866172306276702,19.05521127891604
205.0,23007020.545450512,979192.4569260608,0.18691558685010073,19.064859853319078
206.0,25213848.544047616,1055414.7370224893,0.18738370116574612,19.079996416054705
207.0,27593324.722097624,1137642.9467767144,0.18802054455459655,19.100585330321824
208.0,30166152.53844958,1227531.275411457,0.18882522444702804,19.126594739195415
209.0,32959675.005664993,1326945.6269796721,0.18979697673328036,19.15799645095788
210.0,36008304.285441115,1437904.6275002207,0.19093515401969663,19.19476577892963
211.0,39353910.7760773,1562522.7716086786,0.19223921563638638,19.23688143499705
212.0,43045811.10680882,1702958.0691432809,0.1937087145412277,19.284325379130117
213.0,47140816.72037273,1861365.7495154405,0.19534328564570783,19.337082721141734
214.0,51702922.39179198,2039860.7010405757,0.1971426316231257,19.39514157880481
215.0,56803140.611291036,2240486.261347948,0.19910650972252644,19.45849298608279
216.0,62519041.837318,2465192.6421457147,0.20123471673986904,19.527130758908104
217.0,68934484.78506139,2715820.2555001276,0.20352707452589688,19.601051408360465
218.0,76139127.8005481,2994091.600934406,0.2059834143883739,19.680254013305785
219.0,84228128.18974374,3301606.0816849293,0.20860356154681992,19.76474013722386
220.0,93301699.04257676,3639841.317971041,0.2113873192483414,19.854513707036606
221.0,103464810.20349817,4010156.3696630932,0.21433445247738098,19.949580932508702
222.0,114826838.94135712,4413828.438105163,0.21744467208448703,20.049950190717517
223.0,127501511.73847118,4852164.460007021,0.22071761811826904,20.15563194718519
224.0,141607353.43097663,5326658.016801374,0.22415284428377405,20.2666386455524
225.0,157268790.42073143,5839166.788192433,0.2277498013190044,20.382984629864712
226.0,174617987.40504456,6392080.32941274,0.23150782210240828,20.50468603909684
227.0,193797185.444057,6988486.6076116655,0.23542610550531548,20.63176073084119
228.0,214961607.2011,7632304.90679228,0.239503702763734,20.764228179055966
229.0,238283139.43017843,8328404.635515545,0.2437395020060138,20.902109398828674
230.0,263953560.49608266,9082698.682616754,0.24813221582176082,21.045426853654472
231.0,292188832.6818133,9902200.430038711,0.25268036831201246,21.194204371174177
232.0,323232796.48756355,10795076.73090657,0.25738228271830854,21.348467066832352
233.0,357360905.36480767,11770655.898058297,0.2622360722352797,21.508241253426025
234.0,394884462.8465515,12839432.853205424,0.2672396283563516,21.6735543722159
235.0,436153189.45460874,14013052.411884092,0.272390614412863,21.844434909818485
236.0,481559192.11177105,15304267.138944017,0.2776864572607306,22.020912326550143
237.0,531538862.98459005,16726904.59789177,0.2831243414945258,22.20301698873342
238.0,586575085.9436231,18295798.060488325,0.2887012063384447,22.390780095833605
239.0,647199285.0742587,20026727.189463276,0.2944137404438926,22.584233624558863
240.0,713990955.4092147,21936346.621091213,0.30025838297241936,22.78341026585228
241.0,787579305.8009559,24042096.081523143,0.3062313216211712,22.98834337479209
242.0,868641014.9561824,26362129.822492916,0.31232849504085197,23.199066926622702
243.0,957899535.8645536,28915213.309826925,0.318545596392812,23.415615475077942
244.0,1056122814.0379285,31720635.647065908,0.32487807597191476,23.638024128465283
245.0,1164118720.089395,34798115.23644515,0.3313211496109887,23.866328527772467
246.0,1282732892.1515837,38167696.42628143,0.33786980342977785,24.10056484163213
247.0,1412841648.900332,41849698.99973394,0.34451880372539295,24.340769776042535
248.0,1555346911.51101,45864682.38728163,0.3512627068617878,24.58698059575042
249.0,1711170822.667286,50233452.68962421,0.35809586816096356,24.839235170181418
