Time,J,A,S,tau
0.0,100.0,10.0,0.9830548075086146,12.718966787600948
1.0,106.3904324472495,30.71896430073607,0.9705036041934715,12.072845227261059
2.0,140.34869729581084,50.844747839989125,0.9569098996209133,11.399222065343587
3.0,199.20569690892782,70.31741567808896,0.9422263663197269,10.697824443310923
4.0,280.12510651875886,89.07677386647232,0.9264079078242421,9.968361571735066
5.0,380.13116647183034,107.06245649899512,0.9094133737372634,9.210550377198532
6.0,496.13822822188484,124.21438162390734,0.8912067036101206,8.424116077442134
7.0,624.9823799713097,140.4732590527347,0.8717581768961307,7.608792754520768
8.0,760.9744737898756,158.33236717520836,0.8592185151733619,7.248042336677944
9.0,893.7277003139999,201.27801536095097,0.8501541807715558,7.1249473554531955
10.0,1049.0221668391423,268.7816716073703,0.8406437011524603,7.004976349223911
11.0,1248.4329079373613,356.1767590295854,0.8306805984854372,6.8880672138453
12.0,1505.199012816592,458.90928958565354,0.8202600160496002,6.774158744250491
13.0,1825.1170387857078,572.6025178353027,0.8093788854357948,6.663190608849797
14.0,2207.577712275594,693.064778822946,0.7980360906632931,6.555103337847623
15.0,2642.962373705618,820.6497231438905,0.7862326246902656,6.449838320010753
16.0,3108.5179651492354,978.6733879693405,0.7739717366532493,6.347337805479866
17.0,3602.7918464232976,1186.4944916374893,0.761259066770328,6.247544916398825
18.0,4140.6076558855975,1452.4876131531937,0.7481027650742874,6.150403659333742
19.0,4740.935740735151,1776.2507544395976,0.7345135903915548,6.055858939077638
20.0,5418.676037478197,2150.735234347931,0.720504987627456,5.963856574335763
21.0,6179.000436856433,2565.110684060926,0.706093137480335,5.874343311248802
22.0,7006.531625440881,3019.4709937737653,0.6912969812483736,5.787266840291792
23.0,7873.397722975077,3528.8204920342546,0.6761382096767745,5.70257580890993
24.0,8757.218007372703,4109.533200444029,0.6606412229992819,5.620219834516953
25.0,9645.97900211959,4770.459688661985,0.6448330532124893,5.540149515577569
26.0,10535.002625273575,5509.12368596011,0.6287432543436381,5.462316446243282
27.0,11420.606514768173,6312.459851338283,0.6124037483856447,5.386673217450988
28.0,12289.940068456346,7165.749079992762,0.5958486441916155,5.31317342824235
29.0,13118.486914574,8059.948092081248,0.57911401705874,5.2417716899063365
30.0,13877.429505397504,8989.612983073413,0.5622376555975083,5.17242362933418
31.0,14541.250461869518,9947.535343090127,0.5452587793573865,5.1050858911625205
32.0,15091.55575265658,10920.479977478455,0.5282177295879438,5.039716138039322
33.0,15516.336163328488,11888.62352787261,0.5111556412644376,4.976273051410222
34.0,15806.3561457571,12829.290675149927,0.4941140928143706,4.914716328722477
35.0,15953.394150289512,13720.64148389497,0.47713474591041594,4.85500667859742
36.0,15951.486395635418,14542.887781745892,0.46025898440075474,4.797105817791637
37.0,15799.1482387166,15277.865049118207,0.4435275484927244,4.740976466971038
38.0,15500.622356210675,15908.510012089842,0.42698017488307344,4.686582342008783
39.0,15065.551929316458,16419.332138443344,0.41065526469855174,4.633888147933876
40.0,14507.653273177018,16797.672274052653,0.3945895457611876,4.58285957282963
41.0,13843.48731606682,17034.737787918264,0.3788177849771267,4.533463274452975
42.0,13091.725948218153,17126.06771486846,0.36337251686302385,4.485666877129059
43.0,12272.295301094702,17071.5222430902,0.3482838050049994,4.439438956636857
44.0,11405.77624356482,16875.015285817757,0.3335790604264392,4.394749033564474
45.0,10512.328366566697,16544.22763870818,0.3192828703875756,4.351567561496276
46.0,9610.894467472275,16090.160221663771,0.30541689231752117,4.309865915399795
47.0,8718.594246514987,15526.546571358956,0.2919997867262196,4.269616381589841
48.0,7850.246954041639,14869.157378665843,0.27904718819735613,4.230792146164788
49.0,7018.090344188922,14135.051705308464,0.2665717172200838,4.193367283525635
50.0,6231.6779902946355,13341.83890774054,0.25458303329855037,4.157316744521714
51.0,5497.929285363693,12506.997454612916,0.24308792411441105,4.122616344728788
52.0,4821.274168109389,11647.282176449344,0.2320904238456282,4.089242752766075
53.0,4204.008306267262,10778.234010500139,0.22159197312369983,4.057173478562412
54.0,3646.4775387580557,9913.817586184701,0.2115915773182529,4.026386862621548
55.0,3147.4563131583423,9066.174129868488,0.20208600733250265,3.996862062663435
56.0,2704.534681968491,8245.490249259483,0.19307000961459764,3.96857904269679
57.0,2314.4365187212557,7459.965737937031,0.18453651976169042,3.94151856390047
58.0,1973.2373401902228,6715.873685444512,0.17647688813216855,3.9156621686311746
59.0,1676.746006942938,6017.681015993602,0.16888110820649085,3.89099217565582
60.0,1420.617700935219,5368.2254159587355,0.16173804210451545,3.867491662510859
61.0,1200.507018933209,4768.899763533435,0.15503562914957889,3.8451444611437413
62.0,1012.2536897609948,4219.884157631299,0.14876111034885298,3.8239351421299625
63.0,851.9122167571536,3720.3447074961723,0.14290121718743534,3.80384900873482
64.0,715.8611619008988,3268.656727387453,0.13744237025234998,3.784872084117393
65.0,600.795832354136,2862.58717934054,0.13237084919942274,3.766991103121373
66.0,503.7617323622241,2499.4743253334113,0.12767295717585125,3.750193502375963
67.0,422.1379200475132,2176.374896454752,0.12333516613458377,3.734467411218617
68.0,353.62298123086356,1890.191212631749,0.11934424861346003,3.719801642867169
69.0,296.2141501958153,1637.7756554179525,0.11568739486201104,3.706185685721932
70.0,248.17800781505676,1416.010689290907,0.11235231517788545,3.693609695261558
71.0,208.02871982615872,1221.8751600280596,0.10932732992218061,3.6820644857981666
72.0,174.49851741702537,1052.490126208097,0.10660144657113303,3.6715415231538726
73.0,146.51140657782994,905.1512274476332,0.10416442460557472,3.6620329169237222
74.0,123.15731294549556,777.3478347797243,0.10200682983849217,3.653531413306857
75.0,103.66945386599313,666.7733351625152,0.10012007989423007,3.6460303886042853
76.0,87.40450068930129,571.3286314172824,0.09849648056628164,3.639523842530388
77.0,73.82369430277058,489.11813985136655,0.09712925441289871,3.6340063917658343
78.0,62.47682449890347,418.4419374303264,0.09601256352193745,3.6294732642153686
79.0,52.98869009432156,357.7858917226445,0.09514152632063873,3.625920293414839
80.0,45.04693094593521,305.8087690808117,0.09451222878703736,3.6233439128174476
81.0,38.3917930688903,261.328332690206,0.09412173199541407,3.621741150727218
82.0,32.80754137976498,223.30755130812912,0.09396807610932903,3.6211096256904636
83.0,28.115076080077245,190.8406569281212,0.09405027996250208,3.6214475415745584
84.0,24.165764970359763,163.13931270265647,0.09436833794645043,3.62275368312806
85.0,20.836332247409498,139.51974117008436,0.0949232143678089,3.6250274121259767
86.0,18.02446388082872,119.3908976815357,0.0957168338780288,3.6282686633324466
87.0,15.64523681850218,102.24317616092468,0.09675206868473397,3.632477940610474
88.0,13.628189920774144,87.63824478674731,0.09803272282541167,3.637656313624731
89.0,11.914766551683867,75.20007289022128,0.09956351225229051,3.643805414662693
90.0,10.456267869656251,64.6066751169581,0.10135003992352548,3.650927435245255
91.0,9.212201236582269,55.58279557910139,0.10339876635815642,3.6590251232497333
92.0,8.148854479084884,47.893546652102735,0.10571697469480071,3.668101780407762
93.0,7.238090440918501,41.33879059303706,0.10831272853869098,3.6781612594221094
94.0,6.456433147964213,35.74816437692328,0.11119482275268826,3.6892079614003053
95.0,5.784292330154294,30.976802792432974,0.11437272644441729,3.7012468337413256
96.0,5.205249599461588,26.901668132101015,0.11785651688757737,3.7142833677844918
97.0,4.705549761585272,23.418309957677987,0.12165680345850628,3.728323596416508
98.0,4.273678417790613,20.438100158693505,0.12578464136837672,3.7433740921040557
99.0,3.8999553947758367,17.885893238165604,0.13025143489035773,3.7594419649661868
100.0,3.57623648074188,15.697986403178186,0.13506882877960702,3.7765348604542166
101.0,3.2956806685984468,13.820380323560371,0.14024858801625054,3.79466095734285
102.0,3.052534969246951,12.207312389116133,0.14580246617152617,3.8138289659545492
103.0,2.84195144641173,10.820001492031148,0.1517420627007959,3.83404812584185
104.0,2.6598427338933797,9.625582405967371,0.1580786697601569,3.8553282036982224
105.0,2.5027827108829577,8.59619472024617,0.1648231082802973,3.877679491150217
106.0,2.3679040148893264,7.70821827632561,0.1719855559304933,3.901112802501761
107.0,2.25281618170259,6.941625427538695,0.17957536818458153,3.9256394723238026
108.0,2.1555322910559034,6.279434808310555,0.1876008955256964,3.9512713528384418
109.0,2.074425393236328,5.707245895040084,0.19606929705182716,3.978020811129449
110.0,2.008188541117786,5.212847510090624,0.20498635381251878,4.005900726236242
111.0,1.9558027432517195,4.7858885867856795,0.2143562849751043,4.034924486005571
112.0,1.9164971724257274,4.417605011185448,0.22418157538817102,4.065105983494762
113.0,1.889750426170285,4.100582663033303,0.23446280508244352,4.096459613393395
114.0,1.8752706525652958,3.8285646475236588,0.2451984968546957,4.129000268133331
115.0,1.8729964717997436,3.5962871708671065,0.256384979848721,4.162743333247798
116.0,1.8831033232440244,3.3993426362041914,0.2680162730671394,4.1977046821164805
117.0,1.9059907557231297,3.234074526622819,0.28008399793167077,4.2339006722487476
118.0,1.9423443926733823,3.0974744590609045,0.29257729690182305,4.271348137918477
119.0,1.9931125873405662,2.9871201186902914,0.30548281643107633,4.310064385638033
120.0,2.059582744723195,2.9011070888243995,0.31878468646702907,4.350067185457354
121.0,2.1434140818535274,2.8380115438839577,0.33246454064203185,4.391374766955618
122.0,2.246681999600295,2.79686018617731,0.3465016004832338,4.434005809828729
123.0,2.372000300158686,2.777102199417339,0.36087274242368894,4.477979433097531
124.0,2.5226021352895067,2.7786108983469417,0.37555261611617013,4.523315190528349
125.0,2.702444357312593,2.8016900904857387,0.3905138311309779,4.570033058710446
126.0,2.916410285246667,2.8470863078115944,0.4057271075721036,4.618153426226023
127.0,3.1704798144505473,2.9160260238550277,0.42116150805536584,4.6676970832816025
128.0,3.471987244258968,3.0102636225476265,0.4367846657427267,4.718685210653645
129.0,3.8299473790438485,3.1321439854167368,0.45256303547221616,4.771139365715741
130.0,4.255452235676072,3.2846892305644797,0.4684621624551817,4.825081469254747
131.0,4.762167840749302,3.47170978644121,0.48444696293145545,4.8805337914980305
132.0,5.3669689240182805,3.697943584635096,0.5004820082952065,4.93751893675311
133.0,6.090734703497861,3.9692308247378825,0.5165318115507358,4.99605982726795
134.0,6.959364700612595,4.292731235496056,0.5325611093474052,5.056179685935509
135.0,8.005044581243903,4.677194938197732,0.5485351384221276,5.117902018553183
136.0,9.26786310359704,5.1332985125908905,0.5644198994750941,5.181250594971917
137.0,10.797848216954119,5.674059742420179,0.5801824053298977,5.24624942920867
138.0,12.657543622562947,6.315350771886599,0.5957909102373671,5.312922758728195
139.0,14.925332462478293,7.076530372916336,0.6112151175497578,5.38129502214905
140.0,17.699546332312977,7.98122933214875,0.6264263645068452,5.4513908372605
141.0,21.103769377938747,9.058320836423013,0.6413977818458723,5.52323497729985
142.0,25.293521941404244,10.343112109848494,0.6561044251713667,5.596852346381856
143.0,30.46471738985517,11.87882728382758,0.6705233818651554,5.672267954702721
144.0,36.86444981311206,13.718429515836922,0.6846338495794947,5.749506892224544
145.0,44.804522319958465,15.92686988655203,0.6984171883281297,5.828594302449351
146.0,54.678656138021275,18.583876127109047,0.7118569491689669,5.909555355431278
147.0,66.98423025058315,21.787359673630764,0.7249388756575075,5.992415219802303
148.0,82.34957245453882,25.657644898907797,0.7376508859476557,6.077199035543431
149.0,101.56837570794451,30.342652325828404,0.7499830328240598,6.163931886115804
150.0,125.64290382373582,36.024272083069135,0.7619274457814984,6.252638770864379
151.0,155.83810550316528,42.926183099287535,0.7734782569385011,6.343344577885224
152.0,193.74922101860227,51.32343094390055,0.7846315130959685,6.436074057657574
153.0,241.38600097598345,61.55413981263329,0.7953850762388347,6.530851797816973
154.0,301.27729166332466,74.03380017325891,0.8057385147431,6.627702199511976
155.0,376.6004573797737,89.27266901904066,0.8156929874735982,6.726649455863154
156.0,471.34095259826717,107.89690542512207,0.8252511228465461,6.827717533131449
157.0,590.4882837662122,130.67417645146102,0.8344168947921589,6.930930155304797
158.0,740.275630745665,158.54459394184178,0.8431954973931575,7.03631079292953
159.0,928.471520526366,192.65798519412354,0.8515932198011776,7.143882657148721
160.0,1164.7331497568023,234.41864796339033,0.8596173228507394,7.253668700065763
161.0,1461.0321882460426,285.5389120451401,0.8672759186047694,7.365691622731315
162.0,1832.1651364207721,348.10302222190234,0.8745778538811985,7.479973892258184
163.0,2296.361528639593,424.6430393994998,0.8815325986306934,7.596537769805655
164.0,2876.004345523736,518.2286629585093,0.8881501398642399,7.715405351446116
165.0,3598.4778664866585,632.5731092403232,0.8944408816684898,7.836598624236797
166.0,4497.158813784437,772.1573510719126,0.9004155516983129,7.960139540172985
167.0,5612.566746376998,942.3752446570311,0.9060851144010472,8.086050111100988
168.0,6993.689255708991,1149.7022816270228,0.9114606911062336,8.214352528124781
169.0,8699.496482069138,1401.890772157695,0.9165534870083808,8.345069309555095
170.0,10800.657379680193,1708.1944659587607,0.921374724978422,8.478223482029058
171.0,13381.467287157331,2079.625634762234,0.9259355860615618,8.613838800077627
172.0,16541.99225878515,2529.2475234873314,0.9302471564545043,8.75194001014135
173.0,20400.430054963523,3072.505141193089,0.9343203807027489,8.892553165836562
174.0,25095.681237461995,3727.5968425991405,0.9381660208177874,9.035706002155422
175.0,30790.11533991532,4515.888925891336,0.9417946209853809,9.181428377198506
176.0,37672.51095660313,5462.375004416801,0.9452164774940294,9.32975279121929
177.0,45961.11918993486,6596.180238326525,0.9484416135910265,9.480714993825748
178.0,55906.82987261691,7951.111146835894,0.9514797587683765,9.634354691002079
179.0,67796.36422371263,9566.248390809315,0.9543403322060194,9.790716365216936
180.0,81955.4154874896,11486.579877996845,0.9570324299797575,9.949850223861175
181.0,98751.6377089034,13763.665432318045,0.9595648158092442,10.11181328746826
182.0,118597.44728471982,16456.334490995596,0.9619459145432625,10.276670644638944
183.0,141952.4446325021,19631.38869442412,0.9641838088283777,10.444496871504295
184.0,169325.3331851216,23364.31803488296,0.9662862378080834,10.615377662479546
185.0,201275.3052537125,27739.98534710286,0.9682605983323967,10.789411653317124
186.0,238412.62348149766,32853.28638730103,0.9701139476429597,10.966712498415783
187.0,281398.33791200304,38809.72130081824,0.9718530082270527,11.147411161466419
188.0,330942.96960897924,45725.88722915019,0.9734841734814081,11.331658502719206
189.0,387804.0354121677,53729.812895796036,0.9750135150241428,11.519628107367106
190.0,452782.3206218775,62961.10816114231,0.9764467909491272,11.711519383512801
191.0,526716.6891336486,73570.88557670888,0.9777894547728195,11.907560949619281
192.0,610477.5702849934,85721.37381585648,0.979046665300753,12.108014241226146
193.0,704958.7999427001,99585.18299652591,0.9802232969673342,12.313177359953464
194.0,811068.0215677089,115344.14085692557,0.9813239507490336,12.523389075474933
195.0,929715.5734241873,133187.64093585717,0.9823529654118404,12.739032937925257
196.0,1061801.9795607962,153310.43268442948,0.9833144291664122,12.960541374533989
197.0,1208204.286311359,175909.7987812304,0.984212191519697,13.188399653423932
198.0,1369760.9744621401,201182.09278593867,0.9850498756506704,13.423149504571509
199.0,1547256.2461695452,229318.54666223735,0.9858308899047498,13.66539249389481
200.0,1741404.4648032975,260500.48778754444,0.9865584413347213,13.915792066263379
201.0,1952832.6052070782,294893.7681164646,0.9872355468644612,14.175075444967456
202.0,2182065.005276143,332642.8423091714,0.9878650469491045,14.444033270200341
203.0,2429508.090655626,373864.3064004447,0.9884496174217595,14.723518176258874
204.0,2695436.0973896375,418640.23497882887,0.9889917817232912,15.014441267661688
205.0,2979981.5706662433,467012.10441065446,0.9894939239302414,15.31776582502839
206.0,3283108.4825613643,518972.92677217745,0.9899582992722293,15.634500553984903
207.0,3604629.3521635006,574464.0968539268,0.9903870470899493,15.965685676503512
208.0,3944187.982755218,633370.3513695736,0.9907822011939027,16.312380495906826
209.0,4301254.280494055,695517.2266690622,0.99114570126933,16.675646962663944
210.0,4675138.32803249,760670.2794468353,0.9914793993033556,17.056529863665546
211.0,5064987.3163488945,828537.0711462962,0.9917850708699208,17.456036288587757
212.0,5469798.313466416,898771.2284563446,0.9920644216056934,17.875113419244578
213.0,5888431.750111847,970978.9917472781,0.9923190932916995,18.314626138685533
214.0,6319628.134833367,1044727.9991287068,0.9925506686154414,18.775335391062285
215.0,6762027.54693054,1119557.9384685694,0.9927606745935448,19.257878379375427
216.0,7214191.338113376,1194992.5361023168,0.9929505846941212,19.762751659889513
217.0,7674625.379633281,1270552.2297478402,0.9931218197595332,20.290298068389504
218.0,8141804.124930277,1345766.8132537403,0.993275747888359,20.840698200470015
219.0,8614194.737613011,1420187.3477641258,0.9934136834825966,21.413966886371334
220.0,9090280.534789395,1493396.707596014,0.9935368857014709,22.00995477628572
221.0,9568583.03999048,1565018.26561832,0.9936465565782474,22.628354822933172
222.0,10047682.826570928,1634722.338313719,0.9937438390423463,23.268713346525015
223.0,10526234.855061231,1702230.3999323368,0.9938298152593358,23.9304441569877
224.0,11002984.933248978,1767317.1191890584,0.993905504826187,24.612845711552428
225.0,11476782.345250584,1829810.3358639583,0.9939718634189995,25.31512012894669
226.0,11946586.429134479,1889587.859471599,0.9940297839314175,26.03639439029852
227.0,12411466.804694142,1946574.610558011,0.9940800964716363,26.775738262035716
228.0,12870620.722816844,2000740.3736698139,0.9941235649477294,27.5321826841057
229.0,13323358.568315176,2052090.088834205,0.9941608962524181,28.304739356862733
230.0,13769101.080892136,2100661.983949446,0.9941927365379793,29.092414304152232
231.0,14207395.779454324,2146521.919284756,0.9942196725450879,29.894223175275705
232.0,14637871.956915064,2189754.7556610703,0.9942422435887655,30.709198971013954
233.0,15060283.33197939,2230464.595512153,0.9942609300414339,31.536407688495952
234.0,15474449.476604566,2268765.225949134,0.9942761742278481,32.3749443364415
235.0,15880295.071631638,2304780.52206988,0.9942883645640718,33.22395376145798
236.0,16277799.553318506,2338638.149637778,0.9942978587159823,34.082614300732125
237.0,16667024.093623139,2370468.3539912337,0.9943049678369339,34.95016231908974
238.0,17048076.186797697,2400401.5055588325,0.9943099772452556,35.82586952227017
239.0,17421122.11415651,2428565.5187061974,0.9943131345165849,36.709065379841206
240.0,17786367.010323595,2455085.9315693686,0.9943146645868277,37.59911602257401
241.0,18144055.338331725,2480083.2334153308,0.9943147633302679,38.49543929450576
242.0,18494463.138932995,2503673.742363638,0.9943136063713569,39.39749048146423
243.0,18837891.014310773,2525967.9571948824,0.9943113478801257,40.304767793743366
244.0,19174663.94910148,2547070.98468898,0.994308123947495,41.21680666502757
245.0,19505121.371866513,2567082.429401161,0.9943040552978616,42.133176304720486
246.0,19829620.242652006,2586095.8503121682,0.9942992468158481,43.05348157002354
247.0,20148525.750717614,2604200.1802802617,0.9942937926717187,43.97735268317908
248.0,20462214.795388117,2621477.9975322937,0.9942877731563248,44.904453571576454
249.0,20771068.292285908,2638008.200466564,0.9942812612234784,45.83446673381368
