Time,J,A,S,tau
0.0,100.0,10.0,0.8700494644511239,12.706653342257857
1.0,93.1453096537474,21.487015793173754,0.843531455048213,11.927246129840565
2.0,92.81957203889361,32.34881362032127,0.8159876537572395,11.113585709470405
3.0,97.74973182232605,42.564648681316974,0.7874859258744471,10.2652870521138
4.0,106.7290559309598,52.11610302400665,0.7581032012844166,9.381928591027444
5.0,118.63216863203417,60.987051376349804,0.7279273908283823,8.46309920186482
6.0,132.42700515040414,69.16393126403253,0.6970571363045521,7.508398986959971
7.0,148.2855592918973,75.46170199453124,0.671105864325575,6.726898343991617
8.0,163.20822460366867,81.19705396158194,0.6622680884817821,6.5948043684947155
9.0,173.26203236085613,91.38679373034658,0.6533444770136855,6.466533499550572
10.0,180.89508609798182,104.7527379386108,0.6443426575157938,6.341989380629965
11.0,187.6176405119579,120.17012346484448,0.635270546827911,6.221077568012138
12.0,194.22638869383684,136.66750471770848,0.6261363297629529,6.103705561683662
13.0,201.04524775551798,153.3772012811197,0.6169484361387969,5.989782830457319
14.0,208.43810686537913,169.0638569270951,0.6077155158831525,5.879220829473507
15.0,214.75128695141464,184.5614723832845,0.598446412372989,5.771933011078991
16.0,218.87608129945863,200.6372839984309,0.589150135202762,5.667834835133017
17.0,220.5606994277328,217.40576658824676,0.5798358318855414,5.5668437738706285
18.0,219.97945003605193,234.57505524161505,0.5705127593560894,5.46887931872945
19.0,217.4971442328918,251.60933449653155,0.5611902500762117,5.373862954425999
20.0,213.52946408039165,267.8449726551811,0.5518776830755602,5.281718164270951
21.0,208.17631557677387,282.9202652970228,0.5425844509666922,5.192370408125026
22.0,201.41346890272536,296.6757764338251,0.5333199308345564,5.1057471252133855
23.0,193.28350785910465,308.98300468073376,0.5240934567361435,5.0217777208980765
24.0,183.93709034570819,319.6875930236332,0.5149142777128104,4.940393503991781
25.0,173.62007210222387,328.60225674180833,0.5057915358868882,4.861527709205403
26.0,162.6096507501357,335.5532576553637,0.4967342324040892,4.785115445595899
27.0,151.16150601436377,340.42947755006014,0.48775120269379474,4.7110936880546035
28.0,139.50288950682295,343.18717871764716,0.4788510864779671,4.639401244979325
29.0,127.83856108866189,343.8386320571788,0.4700423024403693,4.569978726747168
30.0,116.35426206294139,342.4404751445434,0.4613330248305934,4.502768521022488
31.0,105.21345544958615,339.0869755795342,0.4527311593453267,4.437714762834363
32.0,94.55178837301561,333.906463483416,0.44424432298945266,4.374763300081501
33.0,84.4746938423523,327.0564137560964,0.43587982630397265,4.313861665431017
34.0,75.05759899729586,318.7166760414908,0.42764465541928715,4.254959047982518
35.0,66.34802674881549,309.0818423574975,0.41954545840488877,4.198006252910222
36.0,58.36957309747516,298.3539456294037,0.41158853376310683,4.142955682912653
37.0,51.12490571098855,286.7360756960302,0.40377982129758494,4.089761293491161
38.0,44.598970218401206,274.4268674038746,0.39612489160374514,4.038378570444735
39.0,38.7637784499998,261.61585005753767,0.3886289446260378,3.988764497052539
40.0,33.58114845477601,248.4799898471048,0.3812968058443304,3.9408775163248895
41.0,29.00573149789479,235.1810161588913,0.374132923283683,3.894677508044805
42.0,24.98903187095219,221.86374537424177,0.36714137309932426,3.8501257600070242
43.0,21.480024023523452,208.65537921295711,0.36032586087262675,3.807184925204494
44.0,18.428125822673596,195.66519150223954,0.3536897269182903,3.76581900799951
45.0,15.78428480571456,182.98506437531762,0.34723595578529043,3.7259933249494037
46.0,13.501857932703258,170.69026894379576,0.3409671840175772,3.6876744803371326
47.0,11.53750291075555,158.84063756335132,0.3348857119719537,3.650830338402116
48.0,9.85139890046314,147.48190297992858,0.3289935157733475,3.615429995612951
49.0,8.407443319619196,136.64715671216354,0.3232922611397879,3.581443754081784
50.0,7.173258531265069,126.3583402820957,0.3177833182194489,3.5488430957778316
51.0,6.120102636843475,116.62772664441712,0.31246777759278965,3.5176006572773337
52.0,5.222566632793781,107.45929885555142,0.3073464663342237,3.4876902055567216
53.0,4.458441871543096,98.85010262470762,0.3024199659170331,3.4590866140727616
54.0,3.808395279661702,90.79144937560073,0.2976886298750038,3.4317658396982975
55.0,3.2556830162063846,83.27001284602954,0.2931526020199894,3.4057049003806177
56.0,2.7858677678721975,76.26880565399253,0.2888118348837809,3.3808818535222755
57.0,2.3865483039383437,69.76803775270594,0.2846661082460125,3.35727577508686
58.0,2.0471069898095795,63.74586162878831,0.2807150476169286,3.334866739430404
59.0,1.7584778429544343,58.17901100162481,0.27695814254920387,3.3136357998708497
60.0,1.5129394942154362,53.04334418332714,0.27339476467747276,3.2935649699880987
61.0,1.3039282017102223,48.3142977061202,0.27002418536447426,3.2746372055924717
62.0,1.1258730595337576,43.96726118176676,0.2668455928607027,3.2568363874353685
63.0,0.9740520175527586,39.977882802344,0.2638581088931652,3.240147304635146
64.0,0.8444666606756118,36.32231390573436,0.26106080460380326,3.2245556388068968
65.0,0.7337339404184956,32.977400696909754,0.258452715767812,3.2100479488890072
66.0,0.6389930274432355,29.92083054243034,0.2560328572305038,3.196611656658632
67.0,0.5578255095924887,27.131239550242174,0.25380023650939626,3.1842350329275564
68.0,0.488187257501423,24.588287416349555,0.25175386651602205,3.172907184409468
69.0,0.4283503491004732,22.272704589823093,0.2498927773632861,3.162618041263388
70.0,0.37685411047786943,20.166317830765518,0.2482160272110899,3.1533583452818768
71.0,0.332463278398212,18.252056181704354,0.2467227121388162,3.1451196386874876
72.0,0.29413267797905157,16.513941964660873,0.24541197502036782,3.1378942535797507
73.0,0.26097744882526597,14.937069970672697,0.24428301338299943,3.131675302001891
74.0,0.23224792981223927,13.507577295794562,0.24333508623940792,3.126456666612741
75.0,0.20730849232872198,12.212606055885757,0.24256751988500216,3.122232991951303
76.0,0.18561971294760557,11.040260867436423,0.24197971265557108,3.1189996762809504
77.0,0.16672336547168598,9.979562678492318,0.2415711386434871,3.116752863999903
78.0,0.15022979505006348,9.020398919248082,0.24134135042282578,3.1154894386068763
79.0,0.13580730546947456,8.153477985754982,0.24128998054666004,3.1152070162315413
80.0,0.12317315942137949,7.370274730009991,0.24141674228623286,3.1159039396135624
81.0,0.11208608518569486,6.6629822652193695,0.24172142916615122,3.1175792726539107
82.0,0.10233993428671107,6.024463168690486,0.24220391352544254,3.1202327954399025
83.0,0.0937583389240986,5.448202058074569,0.24286414407231252,3.1238649997484305
84.0,0.08619028677745719,4.928259286597096,0.2437021424759882,3.128477084967132
85.0,0.07950607250101366,4.459229085361161,0.24471799886567272,3.1340709547265613
86.0,0.07359440490118496,4.036195830456937,0.2459118665163141,3.140649213366284
87.0,0.06835957939026607,3.654695435564711,0.24728395550677182,3.148215163320144
88.0,0.0637191052628391,3.310678635271456,0.2488345254488253,3.1567728027769446
89.0,0.05960186469044509,3.0004758400074336,0.25056387738118124,3.166326823859834
90.0,0.05594661722973427,2.7207641152670385,0.2524723447804051,3.176882610785359
91.0,0.052700321510882435,2.4685380711743314,0.2545602836237304,3.188446238661984
92.0,0.049817095444184084,2.241081170911572,0.25682806176176787,3.2010244716609226
93.0,0.04725710043209443,2.0359404442346114,0.25927604751671496,3.2146247637863
94.0,0.04498613283016155,1.850901124009307,0.2619045976190215,3.229255257541141
95.0,0.04297459187052406,1.6839653918120454,0.2647140443873531,3.2449247830034675
96.0,0.04119638477925502,1.5333333981682624,0.26770468224537364,3.2616428592120745
97.0,0.03962945617277622,1.3973825281251304,0.2708767538881221,3.2794196938254454
98.0,0.03825434232581067,1.2746520945534123,0.2742304359616075,3.2982661819941206
99.0,0.037054494719492,1.1638271524999833,0.2777658239728148,3.3181939099292213
100.0,0.03601578066970671,1.0637240886503332,0.28148291759576877,3.339215151589831
101.0,0.03512585054712304,0.9732789079010493,0.28538160492817427,3.361342872805917
102.0,0.03437455402575661,0.8915342459792712,0.2894616473054382,3.3845907292345196
103.0,0.033752837531917934,0.8176303470329378,0.2937226636969465,3.408973069236795
104.0,0.033253835293167354,0.7507935992532629,0.2981641153793966,3.4345049318103635
105.0,0.03287145922849133,0.6903297346495306,0.30278529049854414,3.4612020506116514
106.0,0.03260139673673066,0.6356143986900472,0.3075852895649605,3.4890808501262858
107.0,0.03244011169625503,0.5860874355079609,0.31256301033773126,3.5181584508234747
108.0,0.0323855324370536,0.5412453847860497,0.3177171347697941,3.548452663832824
109.0,0.03243645672671181,0.500636645830813,0.3230461145769945,3.5799819966072812
110.0,0.032592996794599836,0.46385553001210084,0.3285481601457865,3.6127656462352755
111.0,0.03285618111639272,0.4305383085443269,0.3342212273940781,3.646823505259197
112.0,0.03322800442605826,0.40035869268018437,0.34006300931716943,3.682176155333896
113.0,0.03371209113720651,0.3730238415330096,0.3460709245232486,3.718844867318764
114.0,0.03431291840718894,0.3482715853287454,0.35224211019109836,3.75685160195878
115.0,0.03503640270505896,0.3258669355890558,0.358573416308901,3.796219002030478
116.0,0.03589018337181088,0.3055995403578363,0.3650613976368552,3.836970394099235
117.0,0.036883054909644615,0.28728155474607375,0.3717023133527497,3.879129783981834
118.0,0.03802579432684582,0.27074515480576306,0.37849212395132,3.9227218495122846
119.0,0.03933147226672843,0.25584070992460584,0.3854264892981169,3.96777193716258
120.0,0.04081528059384067,0.24243531804517157,0.392500771427063,4.014306058645673
121.0,0.04249496409567324,0.23041122584181942,0.39971003901267516,4.0623508812802465
122.0,0.04439144539714021,0.21966448914405268,0.4070490711186395,4.111933720404131
123.0,0.04652940928674115,0.21010384080577701,0.4145123631314488,4.163082529921461
124.0,0.04893743314455376,0.20164991901904614,0.42209413770375803,4.21582589687567
125.0,0.051649051620714634,0.19423432161439363,0.4297883539200646,4.270193027369096
126.0,0.054703448950930204,0.18779900693626164,0.43758872020083783,4.326213736494433
127.0,0.05814650426331898,0.18229573841847763,0.44548870856569706,4.383918433482636
128.0,0.06203211469412259,0.17768567687473505,0.45348156852564364,4.443338106770694
129.0,0.06642351031916216,0.173939169934406,0.4615603449201464,4.504504308968753
130.0,0.0713948411215645,0.17103572721403296,0.4697178977402139,4.567449144784754
131.0,0.07703334018814785,0.16896391999099483,0.47794692143976436,4.632205245554327
132.0,0.08344199876312398,0.16772160007491435,0.48623996336985487,4.698805751295179
133.0,0.09074210841712568,0.16731628456055225,0.4945894496697346,4.767284292305929
134.0,0.09907721773023181,0.16776560929788928,0.5029877045464327,4.837674962106867
135.0,0.10861696377155233,0.16909808422995076,0.5114269770602505,4.910012297308174
136.0,0.11956267025502752,0.17135392825799087,0.5198994614587351,4.984331245451448
137.0,0.13215316477215633,0.17458625509521,0.5283973237989731,5.060667140589998
138.0,0.14667217419489575,0.17886247447319584,0.536912726064923,5.139055673185297
139.0,0.16345723672808327,0.18426601560597222,0.545437850513556,5.219532858558271
140.0,0.18291035024269775,0.19089835231215882,0.5539649235742159,5.302135002066087
141.0,0.20551051949562318,0.19888146048571986,0.562486240255132,5.386898665222898
142.0,0.23182908091880752,0.20836071825405172,0.5709941872996864,5.473860628103531
143.0,0.2625479574844745,0.21950831600495624,0.5794812656801299,5.563057849613756
144.0,0.29848117032552857,0.23252729274045056,0.5879401129827448,5.654527428122993
145.0,0.3406007245549503,0.24765623227433395,0.5963635241868387,5.748306558424127
146.0,0.3900672722647908,0.2651747601663161,0.6047444715618623,5.84443248747316
147.0,0.44826644352971073,0.2854099393018535,0.6130761233787394,5.942942468415986
148.0,0.5168517519556146,0.3087437010592094,0.6213518613372028,6.043873712960291
149.0,0.5977950997984036,0.33562144598870786,0.6295652966249153,6.147263342165266
150.0,0.6934459885029319,0.36656198415709373,0.6377102845385085,6.253148335737625
151.0,0.8066006483948949,0.4021689820879721,0.6457809376112271,6.361565479939582
152.0,0.9405820874479333,0.44314412761583855,0.6537716373100251,6.4725513147082765
153.0,1.0993335680565683,0.4903021495083989,0.6616770438478548,6.5861420781197895
154.0,1.2875250061909922,0.544588003801924,0.669492104736493,6.702373651417138
155.0,1.5106744125019966,0.6070963649654908,0.6772120616693881,6.821281503256892
156.0,1.7752870332326491,0.6790938004366003,0.6848324559172576,6.9429006322074285
157.0,2.089009729637718,0.7620437234973048,0.6923491322046375,7.067265510723996
158.0,2.460804579971489,0.857634278275543,0.699758240786732,7.194410027561218
159.0,2.9011420840262367,0.9678096907929593,0.7070562383544533,7.324367430168463
160.0,3.4222094581542124,1.0948051797667693,0.714239887721928,7.457170269659923
161.0,4.038136990165057,1.2411852359923377,0.7213062557208773,7.592850345399704
162.0,4.7652419706886855,1.4098858723871217,0.7282527100340296,7.731438650187861
163.0,5.6222819153662345,1.6042610664786883,0.7350769151647613,7.872965318954327
164.0,6.6307152205301625,1.8281326384942846,0.7417768268608836,8.017459579501356
165.0,7.814968186127546,2.085844032305526,0.7483506855997291,8.164949704898012
166.0,9.202697388983527,2.3823182278057597,0.7547970094396662,8.315462969857137
167.0,10.825033808061647,2.723118621974036,0.76111458582851,8.469025612755265
168.0,12.716810673612953,3.114512621784902,0.76730246252223,8.625662800581967
169.0,14.916760168596232,3.563538175685046,0.7733599380878136,8.78539859911003
170.0,17.467654981544253,4.0780717495935965,0.7792865518157978,8.948255951573843
171.0,20.41639079578274,4.666896920372101,0.7850820730924215,9.114256664052341
172.0,23.814003144324253,5.339772410871662,0.7907464902758999,9.283421397607441
173.0,27.715596861707994,6.107498553695818,0.7962799992956591,9.455769669685402
174.0,32.18014795559537,6.981981662899694,0.8016829923697564,9.631319869661327
175.0,37.270229683250655,7.97629179740561,0.8069560459184769,9.810089280092955
176.0,43.05157687409097,9.104715830280625,0.812099908938834,9.992094115607022
177.0,49.592532345484706,10.38280146494109,0.8171154911132383,10.177349573602628
178.0,56.9633598639123,11.827390410833415,0.8220038508714995,10.365869899818753
179.0,65.23540532491694,13.456639811061734,0.826766183697257,10.557668472119259
180.0,74.48013984852264,15.29002891449009,0.8314038104580939,10.752757900435872
181.0,84.76801042425942,17.348350446022994,0.8359181662760682,10.951150153974998
182.0,96.16728012200551,19.65368305660647,0.8403107891306407,11.152856697533649
183.0,108.74274341322261,22.229341163334126,0.844583308777422,11.357888656742666
184.0,122.55430786467127,25.099806711028876,0.8487374364387374,11.566257013182424
185.0,137.65557581611162,28.29063971693823,0.852774954685453,11.77797282018296
186.0,154.09258054187535,31.828354931815625,0.8566977068251846,11.99304743415169
187.0,171.90216743789307,35.74029060644355,0.8605075885113989,12.211492809367078
188.0,191.11101780248674,40.05443286277315,0.8642065373993439,12.433321768529476
189.0,211.73415270969664,44.79923566200808,0.8677965256236381,12.658548366584489
190.0,233.77415926844856,50.00340144094144,0.8712795508257765,12.887188225501797
191.0,257.2202499043115,55.69564648252988,0.8746576285594664,13.119258942168765
192.0,282.0475388560735,61.90444838134053,0.8779327854799763,13.35478052371736
193.0,308.2169104154547,68.65776823738982,0.8811070518506416,13.593775810853863
194.0,335.67471042165556,75.98276315475673,0.8841824557458767,13.83627098771884
195.0,364.35302227714163,83.90547956655904,0.8871610168779926,14.082296079522003
196.0,394.16998339250017,92.45054885790172,0.8900447418597782,14.33188549794253
197.0,425.0306626256492,101.64086144569623,0.8928356187651887,14.585078579123586
198.0,456.82789091233604,111.49726178802175,0.8955356136168194,14.841920159699594
199.0,489.44361080813496,122.03822667826826,0.8981466660953467,15.102461136619516
200.0,522.750264362754,133.27956309963454,0.9006706865755865,15.366759043911303
201.0,556.6124128164219,145.234116932418,0.9031095534973751,15.634878613172273
202.0,590.888500510096,157.91150006694073,0.9054651112794123,15.906892312609886
203.0,625.4327222910854,171.31784088869387,0.9077391687769432,16.18288085208747
204.0,660.0969520886207,185.45556231913727,0.9099334982819298,16.46293364007662
205.0,694.7326889277442,200.32319259065,0.9120498350615454,16.747149176939594
206.0,729.1929988734069,215.9152186860699,0.9140898772623203,17.035635339423873
207.0,763.3342922015873,232.2219618283355,0.9160552870501272,17.328509679804725
208.0,797.0181772823615,249.22952147262058,0.9179476910566725,17.625899441605345
209.0,830.1130218434237,266.9197679835358,0.9197686821398207,17.9279415070201
210.0,862.4954702114542,285.2703330487943,0.9215198215088585,18.234782327944107
211.0,894.0515989564152,304.2547598123956,0.923202641186205,18.546577378717853
212.0,924.6780288518096,323.8426160052177,0.9248186462905793,18.863490637299837
213.0,954.282687428062,343.9996732633816,0.9263693199009992,19.185693994151105
214.0,982.7857843839846,364.6881089481407,0.9278561240082519,19.51336616733003
215.0,1010.1198171459824,385.86690356942415,0.9292805041638188,19.84669133676982
216.0,1036.2297101425877,407.4921654616235,0.9306438933004356,20.18585783492819
217.0,1061.073043523138,429.51745536873193,0.931947715980607,20.531056641518965
218.0,1084.619928809857,451.8942320259561,0.9331933907830048,20.8824792935648
219.0,1106.852261488509,474.57236933718366,0.9343823341955502,21.240315815463433
220.0,1127.763178641506,497.50060458696726,0.9355159640388185,21.60475266092388
221.0,1147.3565813399475,520.6270139667271,0.9365957032343157,21.975970297365308
222.0,1165.6463352078429,543.8995604688471,0.9376229809909118,22.354140438590328
223.0,1182.6552151851647,567.266614030189,0.9385992352242567,22.739423520318955
224.0,1198.4137393064686,590.6773686899382,0.9395259142549851,23.13196689360862
225.0,1212.9596949134434,614.082417262827,0.940404479261385,23.53190105962116
226.0,1226.336768675868,637.4341939588653,0.9412364015298444,23.939337540772705
227.0,1238.5934412596619,660.6872615999682,0.9420231630533361,24.35436757644539
228.0,1249.7822925927962,683.7988404077888,0.9427662597092022,24.77705844127908
229.0,1259.9589044086572,706.7291547874875,0.9434671931118338,25.207451417030473
230.0,1269.1808787694818,729.4413168276242,0.9441274720120828,25.64556321610708
231.0,1277.5072102558022,751.9023003777296,0.9447486123653932,26.09137824748417
232.0,1284.997412776945,774.082210670579,0.9453321270417966,26.544854804072042
233.0,1291.7108696301543,795.9550503792248,0.9458795312866547,27.005918803317897
234.0,1297.70629769046,817.4985780514614,0.9463923295409925,27.4744646771557
235.0,1303.0413504505393,838.6939197105199,0.9468720212142463,27.950358602464348
236.0,1307.7718320633044,859.5265091515814,0.9473200870254288,28.433429953378184
237.0,1311.9520938596534,879.9845397545035,0.9477379956902069,28.923484313032855
238.0,1315.6338295915593,900.0605174131231,0.9481271881395936,29.420289248731176
239.0,1318.8670427839338,919.7494150836602,0.9484890860831494,29.92359012470574
240.0,1321.6987310611908,939.0500761723209,0.9488250766740668,30.433096605721406
241.0,1324.1740951763054,957.9635786546073,0.949136520678138,30.948496985549287
242.0,1326.3352110044655,976.4944002739061,0.9494247376639006,31.469446172370766
243.0,1328.2225482566748,994.6488020999866,0.9496910182153452,31.995580550647357
244.0,1329.8735608442037,1012.4360061027774,0.9499366035751943,32.526504741372186
245.0,1331.3243197154968,1029.8666262508295,0.9501627057978168,33.061807294635926
246.0,1332.6080909049872,1046.9538320076701,0.9503704791784705,33.60104551534497
247.0,1333.7571549871197,1063.7117123383832,0.9505610538510768,34.14376464369456
