Time,J,A,S,tau
0.0,100.0,10.0,0.854388204943738,2.1972587693150873
1.0,86.05598853918735,53.15649000040229,0.8200889933388091,1.8672859832946684
2.0,133.49765488921201,81.88994481900068,0.7984707457208293,1.6521312770051166
3.0,196.8910596081952,123.0860439043884,0.7984830892614395,1.6522190851558372
4.0,294.82749186086903,194.51234933947987,0.7985046297732803,1.6523723407387423
5.0,452.5013711028772,297.0750984679302,0.7985353574148575,1.6525910111948956
6.0,692.2682600815751,460.8329980640906,0.7985752586915024,1.6528750538976924
7.0,1067.8138891916547,710.743411931194,0.7986243164643017,1.653224416140912
8.0,1648.1986398307374,1098.7975355140222,0.7986825099611758,1.6536390351219092
9.0,2550.0021399200123,1698.5893650921591,0.7987498147901816,1.6541188379201694
10.0,3949.9501815777176,2627.477151184886,0.7988262029547977,1.654663741470599
11.0,6125.963214448411,4066.884956480128,0.7989116428714953,1.6552736525325462
12.0,9511.388295217097,6299.0969323814425,0.7990060993892655,1.655948467653659
13.0,14784.089780950877,9764.13033038764,0.7991095338113666,1.6566880731294937
14.0,23005.9978973915,15147.884944085781,0.7992219039190203,1.6574923449581471
15.0,35842.73463428044,23521.693950222696,0.799343163997252,1.6583611487906773
16.0,55911.30338167248,36560.61473759305,0.7994732648626697,1.6592943398767812
17.0,87329.91276218429,56887.67288275222,0.7996121538933014,1.66029176300631
18.0,136590.00121949642,88616.24768467166,0.7997597750603529,1.6613532524462975
19.0,213941.88403724434,138206.8424358576,0.799916068961933,1.6624786318738967
20.0,335599.8448514791,215822.5852703971,0.8000809728586752,1.6636677143051253
21.0,527260.5170930328,337477.7879556616,0.8002544207112265,1.6649203020195933
22.0,829724.4846953511,528449.9374513616,0.8004363432196014,1.6662361864813635
23.0,1307903.1598940291,828708.7402061768,0.8006266678643003,1.6676151482559005
24.0,2065271.4185379776,1301571.2740668228,0.8008253189492508,1.6690569569234885
25.0,3267123.102537407,2047529.6222973766,0.8010322176464084,1.6705613709888678
26.0,5178054.453446715,3226385.6468377137,0.8012472820421287,1.6721281377877095
27.0,8222547.211362324,5092763.8772438895,0.8014704271850907,1.6737569933894494
28.0,13083072.232534565,8053202.897291662,0.8017015651359304,1.6754476624973493
29.0,20859382.04120586,12758156.860907398,0.8019406050183185,1.6771998583450993
30.0,33327703.75317709,20250559.64244869,0.8021874530716758,1.6790132825910336
31.0,53363595.95028606,32206329.06424661,0.8024420127052239,1.6808876252091127
32.0,85633431.62583524,51324532.94661717,0.8027041845535904,1.6828225643779058
33.0,137728034.42216977,81962000.2061826,0.8029738665336492,1.6848177663666108
34.0,222025959.83713216,131167775.77188897,0.8032509539028116,1.6868728854194481
35.0,358763604.0444956,210373870.66695616,0.8035353393184597,1.6889875636374274
36.0,581107733.2743977,338164912.62525177,0.803826912898716,1.6911614308588334
37.0,943556657.9786243,544827589.5045017,0.8041255622842647,1.6933941045374834
38.0,1535894963.3425844,879841043.0829226,0.8044311727013863,1.6956851896200356
39.0,2506427768.1017084,1424243596.1813397,0.804743627025952,1.6980342784215063
40.0,4100783307.585114,2311099820.8291373,0.805062805848505,1.7004409505001725
41.0,6726867056.3188925,3759468507.194486,0.8053885875402095,1.7029047725311621
42.0,11063936328.4846,6130918871.760316,0.8057208483197539,1.7054252981797455
43.0,18246190681.589844,10023826542.258701,0.8060594623210312,1.708002067973847
44.0,30172786210.30159,16431113508.83987,0.8064043016616346,1.7106346091765607
45.0,50032551894.74826,27004857919.481583,0.8067552365120431,1.7133224356584555
46.0,83195026771.1633,44501372253.68089,0.807112135165481,1.7160650477701795
47.0,138727112729.521,73531922674.40842,0.8074748641083744,1.7188619322154546
48.0,231983173655.1832,121832487071.68092,0.8078432880913463,1.721712561924674
49.0,389038873065.2916,202417368046.5859,0.8082172702007102,1.7246163959294971
50.0,654306408949.5931,337242297856.19946,0.8085966719303711,1.7275728792383684
51.0,1103645638220.6028,563452205668.7921,0.8089813532541232,1.730581442713641
52.0,1867011865985.809,944068430873.6763,0.8093711726982256,1.7336415029499699
53.0,3167674302400.009,1586319769813.149,0.8097659874142725,1.7367524621549157
54.0,5390349849345.537,2673177899300.2314,0.8101656532522175,1.7399137080311684
55.0,9199857972152.555,4517757275407.888,0.8105700248335791,1.7431246136615268
56.0,15748508112196.855,7657427668596.319,0.8109789556247067,1.7463845373961664
57.0,27039313225773.164,13017103062139.855,0.8113922980100807,1.7496928227427657
58.0,46564332015790.19,22193343978836.51,0.8118099033655887,1.7530487982596812
59.0,80429399617799.75,37950098078957.305,0.8122316221317188,1.7564517774523978
60.0,139341976579523.44,65086166192677.59,0.8126573038866234,1.7599010586736004
61.0,242133858822749.16,111957529851018.5,0.8130867974189888,1.763395925026874
62.0,422022721209282.9,193156337015715.38,0.813519950800675,1.76693564427463
63.0,737771878730100.2,334239106116339.0,0.813956611459054,1.7705194687500558
64.0,1293638751187724.5,580094533305433.9,0.8143966262490197,1.7741466352738584
65.0,2275130415170627.5,1009795732502414.0,0.8148398415245977,1.777816365075447
66.0,4013275852274471.5,1763033189293053.2,0.8152861032101254,1.7815278637194494
67.0,7100475247500548.0,3087294936953188.0,0.8157352568709413,1.7852803210370793
68.0,1.259989669717271e+16,5422303334923452.0,0.8161871477835487,1.789072911063375
69.0,2.2425005807855256e+16,9551564091735154.0,0.8166416210052,1.7929047919797088
70.0,4.002930558924329e+16,1.6875087525798326e+16,0.817098521442866,1.7967751060626507
71.0,7.166332573803065e+16,2.9901560869070972e+16,0.8175576939215409,1.8006829796385644
72.0,1.286712902890993e+17,5.313887603072009e+16,0.8180189832518482,1.8046275230449993
73.0,2.3169908989712086e+17,9.47099273014267e+16,0.8184822342969048,1.8086078305982791
74.0,4.184233581727841e+17,1.692919348289712e+17,0.8189472920384028,1.812622980568293
75.0,7.577873098844348e+17,3.034779779014964e+17,0.8194140016418789,1.8166720351599746
76.0,1.3762842701014648e+18,5.4558182981172915e+17,0.8198822085211281,1.8207540405023435
77.0,2.506617220734822e+18,9.836159377163174e+17,0.820351758401734,1.82486802664474
78.0,4.5779946869143583e+18,1.7783389783453916e+18,0.8208224973836779,1.8290130075609459
79.0,8.384137261263444e+18,3.224160735499492e+18,0.8212942720029991,1.8331879811610132
80.0,1.5396587741354738e+19,5.861667289010212e+18,0.8217669292924743,1.8373919293112773
81.0,2.835050955513532e+19,1.0686033750054902e+19,0.8222403168412866,1.8416238178625888
82.0,5.234234837847735e+19,1.9533993381747937e+19,0.8227142828536652,1.8458825966869898
83.0,9.689205261815959e+19,3.580402409939488e+19,0.8231886762064459,1.850167199723219
84.0,1.798254606306497e+20,6.580001854673875e+19,0.8236633465055664,1.8544765450308134
85.0,3.346009188384844e+20,1.2124389647021089e+20,0.8241381441414366,1.8588095348535074
86.0,6.241662648070528e+20,2.239852420354459e+20,0.8246129203431859,1.8631650556916846
87.0,1.167225717736589e+21,4.148489574964572e+20,0.82508752723175,1.867541978384406
88.0,2.1881354467287832e+21,7.702941777492279e+20,0.8255618178717915,1.8719391582009974
89.0,4.111892436495101e+21,1.4338505230705259e+21,0.8260356463224294,1.8763554349424099
90.0,7.745335722656689e+21,2.675566866762245e+21,0.8265088676867546,1.8807896330527234
91.0,1.4623529672350808e+22,5.004679550868829e+21,0.8269813381601344,1.885240561740659
92.0,2.767323494333173e+22,9.383580265218957e+21,0.8274529150772646,1.8897070151116855
93.0,5.248619815692344e+22,1.763501260714808e+22,0.8279234569579801,1.8941877723105744
94.0,9.976761451265504e+22,3.32185468538246e+22,0.8283928235517943,1.898681597674822
95.0,1.900529049199457e+23,6.271413951567994e+22,0.8288608758811608,1.9031872408991057
96.0,3.6281157875629676e+23,1.1866224485160716e+23,0.8293274762834535,1.9077034372108512
97.0,6.940493794028121e+23,2.250109580719426e+23,0.829792488451636,1.912228907557406
98.0,1.3304018755980277e+24,4.27583126702099e+23,0.8302557774736365,1.9167623588046996
99.0,2.5552848011969064e+24,8.142253980298453e+23,0.8307172098703929,1.9213024839479493
100.0,4.917450200693315e+24,1.5536642534478656e+24,0.8311766536325801,1.9258479623344316
101.0,9.481244385102713e+24,2.970566964740242e+24,0.8316339782560053,1.9303974598986304
102.0,1.8314518293947259e+25,5.690782676031465e+24,0.8320890547756536,1.9349496294101318
103.0,3.5441380675217955e+25,1.0922854210564418e+25,0.8325417557984051,1.9395031107342862
104.0,6.8705403726851285e+25,2.1004502757895096e+25,0.8329919555343788,1.944056531106242
105.0,1.3341854170257122e+26,4.046518683521503e+25,0.8334395298269388,1.9486085054183306
106.0,2.595175781586494e+26,7.809517968160065e+25,0.8338843561813242,1.9531576365213272
107.0,5.056179783131139e+26,1.5098053514992798e+26,0.8343263137919167,1.9577025155398142
108.0,9.866511828275506e+26,2.9238324659235197e+26,0.834765283568144,1.9622417222019208
109.0,1.9282807575563806e+27,5.671517250291588e+26,0.8352011481589905,1.9667738251839522
110.0,3.7741795829144325e+27,1.1018996794462211e+27,0.835633791976153,1.9712973824700055
111.0,7.397772731837149e+27,2.144181320213752e+27,0.8360631012157907,1.9758109417271996
112.0,1.4520639710595802e+28,4.178672888502534e+27,0.836488963878908,1.9803130406966831
113.0,2.854024120521539e+28,8.155556449596452e+27,0.8369112697903445,1.984802207600903
114.0,5.616906246355717e+28,1.593998838808632e+28,0.8373299106163664,1.989276961567549
115.0,1.106841204748556e+29,3.1197719048353838e+28,0.8377447798808871,1.9937358130704443
116.0,2.1837511455917913e+29,6.114194087910167e+28,0.8381557729802682,1.9981772643879898
117.0,4.313519541522125e+29,1.1998269760282899e+29,0.8385627871967519,2.0025998100793547
118.0,8.530075173791482e+29,2.3574506911452455e+29,0.8389657217104804,2.007001937479012
119.0,1.688681951633981e+30,4.637595906577833e+29,0.8393644776101276,2.0113821272099335
120.0,3.3465623068349905e+30,9.133802136210996e+29,0.8397589579021407,2.0157388537158716
121.0,6.63877727712785e+30,1.8009461924757757e+30,0.8401490675185732,2.0200705858132078
122.0,1.3182502645016723e+31,3.5548633931733135e+30,0.8405347133235481,2.024375787262662
123.0,2.6200590216156767e+31,7.02426247322737e+30,0.8409158041183091,2.028652917361383
124.0,5.212073781713365e+31,1.389367572104109e+31,0.8412922506449034,2.0329004315557038
125.0,1.037719275314915e+32,2.750777708896839e+31,0.8416639655884749,2.0371167820749907
126.0,2.0677712899478223e+32,5.451288009570978e+31,0.8420308635781767,2.041300418586916
127.0,4.1234670668952335e+32,1.081264752317309e+32,0.842392861186731,2.04544978887446
128.0,8.22894707978485e+32,2.1465362032149595e+32,0.8427498769286027,2.049563339534979
129.0,1.6433583807330248e+33,4.2648347148457785e+32,0.8431018312568449,2.0536395167015455
130.0,3.2840652240443035e+33,8.480251881293873e+32,0.8434486465585842,2.057676766786834
131.0,6.56701296539288e+33,1.6874966386718778e+33,0.843790247149185,2.0616735372496935
132.0,1.3139733232783135e+34,3.360394656174326e+33,0.8441265592651016,2.065628277384566
133.0,2.630593600741488e+34,6.696324480158122e+33,0.8444575110554173,2.069539439133799
134.0,5.269337780285109e+34,1.3352662491020232e+34,0.844783032572124,2.073405477922915
135.0,1.056039911565433e+35,2.6642246090061136e+34,0.8451030557591165,2.077224853518727
136.0,2.117452704712612e+35,5.31902863119431e+34,0.8454175144399685,2.0809960309102538
137.0,4.247604519401558e+35,1.0625262347131063e+35,0.8457263443044835,2.0847174812122073
138.0,8.524309285366007e+35,2.123637379012349e+35,0.846029482894059,2.0883876825907692
139.0,1.7113849146484835e+36,4.246612422761118e+35,0.8463268695859062,2.092005121211381
140.0,3.437148833075746e+36,8.496003586781871e+35,0.8466184455761245,2.0955682922079584
141.0,6.90558188445632e+36,1.7005346317280418e+36,0.8469041538617117,2.0990757006731995
142.0,1.3878524505488735e+37,3.4052117576119356e+36,0.8471839392215026,2.1025258626691254
143.0,2.790083319375981e+37,6.821504286580596e+36,0.8474577481961106,2.1059173062572936
144.0,5.610641874534946e+37,1.3670476157292117e+37,0.8477255290669026,2.109248572547785
145.0,1.1285480105951524e+38,2.7405942632975446e+37,0.8479872318340456,2.112518216765913
146.0,2.2705492169238446e+38,5.496096814405597e+37,0.8482428081937032,2.115724809335845
147.0,4.569164540374828e+38,1.1025631882422705e+38,0.8484922115143962,2.118866936979605
148.0,9.196646360228058e+38,2.21250188954195e+38,0.8487353968126204,2.1219432038305457
149.0,1.8514054540783084e+39,4.441060989537675e+38,0.8489723207277565,2.1249522325595858
150.0,3.7277383576935505e+39,8.916714948964675e+38,0.8492029414963398,2.1278926655128276
151.0,7.506792682313907e+39,1.790733092920366e+39,0.8494272189257679,2.1307631658590083
152.0,1.5118958668542675e+40,3.597140913923662e+39,0.8496451143674851,2.133562418744729
153.0,3.0453806670127464e+40,7.227334432867802e+39,0.849856590689751,2.136289132456075
154.0,6.134904661728383e+40,1.4524010681134277e+40,0.8500616122500291,2.138942039584146
155.0,1.2359897394792166e+41,2.919286441528997e+40,0.8502601448670999,2.1415198981928483
156.0,2.490335156075687e+41,5.868715712620542e+40,0.8504521557929601,2.1440214929865924
157.0,5.018010603487503e+41,1.1799950768180693e+41,0.8506376136845842,2.146445636475519
158.0,1.0111877559760466e+42,2.3729211583203443e+41,0.8508164885756527,2.1487911701363274
159.0,2.037765791778287e+42,4.7725183623375486e+41,0.8509887518482924,2.151056965565643
160.0,4.1067187365025856e+42,9.599947682500437e+41,0.8511543762049504,2.153241925624128
161.0,8.276571249880398e+42,1.9312702241684488e+42,0.8513133356404606,2.155344985568185
162.0,1.6680812223387143e+43,3.885673714438409e+42,0.8514656054143998,2.1573651141669625
163.0,3.3619583276085206e+43,7.818715695577596e+42,0.851611162023819,2.159301314802057
164.0,6.775992569198155e+43,1.573428293736929e+43,0.8517499831764274,2.1611526265467784
165.0,1.3657036160211127e+44,3.166636353027152e+43,0.8518820477643314,2.1629181252230283
166.0,2.752584857558685e+44,6.373622853404036e+43,0.8520073358383942,2.16459692443218
167.0,5.5478336048379405e+44,1.2829480405892954e+44,0.8521258285833161,2.166188176558046
168.0,1.1181574229588805e+45,2.582641878313034e+44,0.8522375082935122,2.167691073738752
169.0,2.2536029199542702e+45,5.199356641811635e+44,0.852342358349864,2.1691048488048756
170.0,4.5419824113476346e+45,1.0468000794334631e+45,0.8524403631974397,2.1704287761816947
171.0,9.153891450986995e+45,2.1076808907998678e+45,0.8525315083242367,2.1716621727521135
172.0,1.8448332683086875e+46,4.2439639023173456e+45,0.8526157802410481,2.1728043986788075
173.0,3.717908687818509e+46,8.546001361134363e+45,0.8526931664625,2.1738548581822297
174.0,7.492546976455152e+46,1.720986935413426e+46,0.8527636554893417,2.174813000272756
175.0,1.5099024591807932e+47,3.4658897472921154e+46,0.8528272367920535,2.1756783194346654
176.0,3.0426794063180124e+47,6.98029045495221e+46,0.8528839007958178,2.176450356259412
177.0,6.131276954032636e+47,1.4058964752359333e+47,0.8529336388669321,2.177128698027125
178.0,1.235471484140074e+48,2.8317413552274778e+47,0.8529764433006918,2.1777129792333962
179.0,2.4894364980251235e+48,5.703924876355319e+47,0.8530123073108054,2.178202882060764
180.0,5.0159802998658405e+48,1.1489830388074948e+48,0.8530412250203787,2.1785981367926466
181.0,1.0106401109437326e+49,2.3145820500644296e+48,0.853063191454495,2.178898522168633
182.0,2.0362126147700726e+49,4.662840607363943e+48,0.8530782025344423,2.179103865680331
183.0,4.1023743556861685e+49,9.393926096179988e+48,0.8530862550735836,2.1792140438059504
184.0,8.264807851325353e+49,1.8926146522591708e+49,0.8530873467749192,2.1792289821840196
185.0,1.6650045720832735e+50,3.813251431627026e+49,0.8530814762303286,2.179148655724487
186.0,3.3541524964191723e+50,7.683279020351323e+49,0.8530686429215145,2.1789730886577185
187.0,6.756702406733702e+50,1.5481588884035694e+50,0.853048847222645,2.1787023545208637
188.0,1.3610397855313483e+51,3.1196203081884856e+50,0.853022090404683,2.178336576081367
189.0,2.7415144688600636e+51,6.286444220862639e+50,0.8529883746414054,2.177875925198668
190.0,5.521962219005198e+51,1.2668492452372451e+51,0.8529477030170756,2.1773206226233888
191.0,1.1121893209142787e+52,2.553059493836486e+51,0.8529000795357652,2.1766709377358238
192.0,2.2399888669100652e+52,5.1453210116279134e+51,0.8528455091322825,2.1759271882236533
193.0,4.511217103100599e+52,1.036999998542305e+52,0.8527839976846757,2.1750897397003324
194.0,9.08492841206596e+52,2.0900617547800827e+52,0.8527155520282796,2.174159005265534
195.0,1.8294810405763567e+53,4.2126212539072044e+52,0.8526401799712419,2.1731354450083114
196.0,3.6839319340576484e+53,8.490977812649893e+52,0.8525578903115004,2.172019565455609
197.0,7.417732138238932e+53,1.7114870971394072e+53,0.8524686928551349,2.170811918966695
198.0,1.4934980032795765e+54,3.449838379536569e+53,0.8523725984360496,2.169513103076309
199.0,3.006840612773065e+54,6.953949331027778e+53,0.8522696189369142,2.1681237597880347
200.0,6.0532146993195205e+54,1.4017480378569552e+54,0.8521597673112892,2.166644574819987
201.0,1.218510926472429e+55,2.82560989231318e+54,0.8520430576068835,2.1650762768056238
202.0,2.452662711767256e+55,5.695814290508724e+54,0.8519195049898415,2.1634196364511036
203.0,4.936377039721822e+55,1.1481494428425421e+55,0.8517891257700066,2.1616754656526864
204.0,9.934316087323707e+55,2.3143936260933193e+55,0.8516519374270639,2.1598446165757963
205.0,1.999047654098145e+56,4.6651880175188284e+55,0.8515079586374812,2.1579279806988696
206.0,4.022169634992679e+56,9.403533238650617e+55,0.8513572093021768,2.155926487824564
207.0,8.091807920000627e+56,1.89539271758862e+56,0.8511997105748011,2.1538411050605926
208.0,1.627700336370552e+57,3.820233479398339e+56,0.8510354848905757,2.1516728357736454
209.0,3.273727579952861e+57,7.699435423389323e+56,0.8508645559955705,2.1494227185182013
210.0,6.583316415732728e+57,1.5516783395896337e+57,0.8506869489763567,2.147091825943749
211.0,1.323658699690759e+58,3.1268973424606113e+57,0.8505026902899273,2.1446812636826036
212.0,2.660912532993658e+58,6.300708643294336e+57,0.8503118077938023,2.1421921692210977
213.0,5.348139378994141e+58,1.2694738097208775e+58,0.8501143307762402,2.139625710757074
214.0,1.07469702811005e+59,2.5574707874064037e+58,0.8499102899864424,2.1369830860456696
215.0,2.159105657639673e+59,5.151624310652651e+58,0.8496997176647003,2.1342655212366535
216.0,4.336700493847944e+59,1.0375706626352353e+59,0.8494826475723658,2.1314742697051052
217.0,8.708333582959335e+59,2.0894128138480126e+59,0.8492591150215809,2.1286106108782863
218.0,1.7482086714042655e+60,4.2068474342554115e+59,0.8490291569046875,2.125675849060864
219.0,3.508534768193771e+60,8.468517525348589e+59,0.8487928117232174,2.122671312260514
220.0,7.039214040051163e+60,1.7043873763457503e+60,0.8485501196164187,2.1195983510164713
221.0,1.4118208615593656e+61,3.42950126169853e+60,0.848301122389206,2.116458337232489
222.0,2.830626882462636e+61,6.899007772866945e+60,0.8480458635394986,2.113252663016639
223.0,5.673144209371882e+61,1.387478117561021e+61,0.8477843882848533,2.109982739529403
224.0,1.1365613671532295e+62,2.789586206819685e+61,0.8475167435883327,2.1066499958418814
225.0,2.276038296408098e+62,5.606834627632776e+61,0.8472429781835603,2.103255877805806
226.0,4.555886813315248e+62,1.1265473298766868e+62,0.84696314259887,2.099801846936534
227.0,9.115105463140208e+62,2.2626857121493205e+62,0.846677289180538,2.096289379310755
228.0,1.8227805847259017e+63,4.5428755980789015e+62,0.8463854721149975,2.0927199644797954
229.0,3.6431644458644926e+63,9.117119815665564e+62,0.8460877474500229,2.0890951043998993
230.0,7.277507556935376e+63,1.828911890819713e+63,0.8457841731148178,2.0854163123803873
231.0,1.4528911503630065e+64,3.6671074950375595e+63,0.8454748089389588,2.08168511205057
232.0,2.8987912138043904e+64,7.34915861824687e+63,0.8451597166701803,2.0779030363463664
233.0,5.779905035991933e+64,1.4720459705117358e+64,0.8448389599909218,2.074071626517107
