Time,J,A,S,tau
0.0,100.0,10.0,0.8926707184483748,16.46160375133715
1.0,100.03235149970969,19.465039369893546,0.8747477658449772,15.871561338622694
2.0,107.87185705667913,28.543231394661774,0.8558875689190315,15.255667065076672
3.0,122.74602185649478,37.21022280507644,0.8361018587036322,14.613693108727766
4.0,143.83588954798094,45.442863123602535,0.8154064840882173,13.945361148492893
5.0,170.28566661279373,53.21909254174478,0.7938240398299968,13.250400190138139
6.0,201.21246031770116,60.51817835422326,0.7713842448598359,12.528547035059653
7.0,235.71674096641667,67.32095634783863,0.7481242574649645,11.779546750629736
8.0,272.8933970589951,73.61007475776306,0.7240889191808637,11.003153148827403
9.0,311.84300030451186,79.37023766049174,0.6993309085757788,10.199129258559411
10.0,351.7950205109947,84.43538552687407,0.6792772450176676,9.600038880709034
11.0,388.3255930294994,93.62856260520316,0.6691714358932188,9.439348849984295
12.0,423.43855912358066,108.77494998005784,0.6589222950971854,9.28271627644278
13.0,461.3424847593064,128.7473768277909,0.6485392576112151,9.130064633699135
14.0,504.939818331584,152.4536505643841,0.6380323196242894,8.981317723626992
15.0,555.9423255193373,178.85027755969293,0.6274120113936152,8.836399789251178
16.0,615.0060599539121,206.95476938475537,0.6166893658427836,8.6952356202805
17.0,681.8805943995732,235.85633095603836,0.6058758829926425,8.5577506500687
18.0,755.5683368570606,264.7238484207216,0.5949834907824919,8.423871046521988
19.0,834.2701023977507,293.04015381442065,0.5840245024791476,8.293523795213776
20.0,913.9346977374206,323.1594077747026,0.5730115692277832,8.166636768942777
21.0,992.079962424378,357.705253264686,0.5619576315887851,8.043138798947554
22.0,1068.542103117437,397.96883977216726,0.5508758671529792,7.922959733572104
23.0,1144.3079716132675,444.161882421427,0.5397796369756531,7.806030494475137
24.0,1220.652339765257,495.6664976839415,0.528682431029669,7.692283128660503
25.0,1298.570774002455,551.2680732850008,0.5175978066338445,7.58165083556855
26.0,1378.4339324458372,609.3609466028297,0.5065393334375452,7.474068013328382
27.0,1459.6720225047957,668.3242126360259,0.4955205331933241,7.369470285291537
28.0,1540.141014863515,727.6702538631154,0.4845548227011273,7.2677945297590325
29.0,1617.0578094873752,787.8765359168544,0.4736554554797057,7.168978899015096
30.0,1688.0963334979783,849.5647049292072,0.4628354644295166,7.072962835091536
31.0,1751.7593731603877,913.0075230500178,0.45210760939472244,6.979687088461708
32.0,1807.328968044876,977.9088881917916,0.4414843214128272,6.889093723534619
33.0,1854.6145009310467,1043.3749002520763,0.43097766022602724,6.801126137279136
34.0,1893.6575676881337,1108.0362960836405,0.42059925661202147,6.715729038935285
35.0,1924.2983154684985,1170.4496732059777,0.41036027604871167,6.632848476354964
36.0,1945.9824142760424,1229.4858239901955,0.4002713791551599,6.552431818359006
37.0,1957.9657802015372,1284.3728341910528,0.39034268324495347,6.47442776463039
38.0,1959.614779130984,1334.5570991643056,0.3805837375737277,6.3987863342064575
39.0,1950.615073149252,1379.5449550698168,0.3710034947100193,6.325458861690408
40.0,1931.0474970715957,1418.7934203841357,0.36161028639584375,6.254397985412128
41.0,1901.355000390011,1451.6806316745003,0.3524118092311054,6.185557641941494
42.0,1862.2126560369177,1477.5829473110143,0.34341511332129737,6.1188930542596065
43.0,1814.40207446718,1495.9877136711375,0.3346265953396937,6.0543607198249525
44.0,1758.7556060689813,1506.5624514705064,0.326051996482139,5.991918398074178
45.0,1696.159706954807,1509.1681040772255,0.317696406163104,5.93152509943536
46.0,1627.556558474038,1503.8400426168914,0.3095642670395758,5.8731410633773775
47.0,1553.9564031203968,1490.7556098270672,0.3016593838126365,5.816727752758076
48.0,1476.430403904333,1470.2067368393439,0.29398494316347157,5.76224783872372
49.0,1396.0672920933305,1442.5906930299395,0.28654353205832944,5.709665179630466
50.0,1313.926961012848,1408.4071100228157,0.27933715679524024,5.658944806187304
51.0,1231.0156077610259,1368.2491383832892,0.27236726782509163,5.6100529115173625
52.0,1148.2673156351977,1322.787875619109,0.26563479037089466,5.562956830114029
53.0,1066.525456429846,1272.753043337798,0.2591401527985894,5.517625019767763
54.0,986.5310742548673,1218.9108242425075,0.25288331534659697,5.474027049707936
55.0,908.9290194919647,1162.0403605381296,0.24686380655948909,5.432133584979011
56.0,834.2594376798752,1102.9154346948874,0.24108075746915286,5.391916365584806
57.0,762.9521549446685,1042.2882330682953,0.2355329345432639,5.353348191792054
58.0,695.3355202809869,980.8740142001942,0.23021877554777473,5.316402912982326
59.0,631.6438055254267,919.3391961548839,0.22513642701301,5.281055407225719
60.0,572.0207890749178,858.2920702152077,0.2202837787089443,5.247281564562094
61.0,516.527153489997,798.2751862872068,0.21565849741206822,5.21505827589574
62.0,465.15777169822917,739.7609778115922,0.21125806343987252,5.18436341757243
63.0,417.8484413463399,683.1501546824379,0.20707980394155565,5.155175832825095
64.0,374.48256076641303,628.7711682377214,0.20312092433854462,5.127475318927549
65.0,334.9076483944103,576.8829667581044,0.19937854106639885,5.10124261598495
66.0,298.94077333879693,527.6783935520822,0.1958497111874812,5.076459391084022
67.0,266.37884689604675,481.2895796810933,0.192531461438184,5.053108223158137
68.0,237.0046654768826,437.7934152999779,0.18942081499086014,5.031172592438347
69.0,210.59214062580554,397.21702383894933,0.18651481676364248,5.010636863611471
70.0,186.91283778821224,359.5442068887722,0.1838105576081113,4.991486278103599
71.0,165.74250790537877,324.7235602554674,0.18130519702181863,4.9737069421947355
72.0,146.86278084080274,292.6739808257401,0.1789959828249126,4.957285809467062
73.0,130.0634018634803,263.2896363040477,0.1768802707486431,4.942210675652908
74.0,115.14566810544488,236.4476272698732,0.17495554096305627,4.928470164000033
75.0,101.92268755353555,212.01112922261225,0.17321941411250524,4.9160537167297385
76.0,90.22070203429381,189.83537334202455,0.17166966440803666,4.904951582771721
77.0,79.87913323226229,169.77026727008754,0.17030423267044925,4.895154810276302
78.0,70.75075305504554,151.66447268393748,0.16912123602425386,4.8866552340671605
79.0,62.70133746529985,135.36763638352565,0.1681189778958895,4.879445469578219
80.0,55.609216458116315,120.73287093985778,0.1672959550318172,4.873518902038835
81.0,49.36463356367348,107.61842494748075,0.16665086360533568,4.868869678032949
82.0,43.868967705678934,95.8890458557672,0.16618260393806517,4.865492697799303
83.0,39.034021111729935,85.41672749372638,0.16589028401607425,4.863383607670927
84.0,34.78118766540652,76.08136043991159,0.16577322114417128,4.862538791712935
85.0,31.040599709037487,67.77110891385189,0.16583094244101296,4.862955364384716
86.0,27.750295897387367,60.382555487990224,0.16606318420050065,4.864631164148965
87.0,24.855550764528488,53.820511781160576,0.16646988999955237,4.867564746770411
88.0,22.308098685721177,47.997871569685266,0.16705120708244703,4.871755378163314
89.0,20.065429153271534,42.83532407393417,0.16780748169966628,4.877203028178072
90.0,18.09015399037289,38.26097427378033,0.16873925337952903,4.883908365282207
91.0,16.349506919213763,34.209837740018116,0.16984724779489282,4.891872750505162
92.0,14.814769212160968,30.623416254258636,0.17113236809450272,4.901098231304425
93.0,13.460774979629297,27.449232701473672,0.1725956851846527,4.911587536239063
94.0,12.26550507844008,24.640339081467957,0.17423842691823668,4.923344070409152
95.0,11.209746386557105,22.154814215632307,0.17606196573728092,4.936371909822166
96.0,10.276716033316644,19.95533228989696,0.17806780498561833,4.950675796012693
97.0,9.451742439975964,18.008740501444944,0.18025756411858523,4.9662611313326686
98.0,8.722034439513376,16.285634161725405,0.18263296273067084,4.983133974755459
99.0,8.076455515489144,14.759969552447833,0.1851958030622064,5.001301036433535
100.0,7.5052976362981,13.408723594945918,0.18794795137979878,5.020769672731853
101.0,7.000087348730407,12.211578699145917,0.19089131825848246,5.041547881826313
102.0,6.553463449904422,11.150614109641861,0.19402783760626363,5.06364429940525
103.0,6.159032570871186,10.210040702721374,0.19735944450775525,5.087068193167587
104.0,5.811249050569242,9.375961120816987,0.2008880521070482,5.111829457829753
105.0,5.505263752042424,8.63617318603174,0.20461552775414227,5.13793861090673
106.0,5.236927201024938,7.979942250347246,0.20854366754227943,5.165406787538142
107.0,5.002640773664892,7.397851454653673,0.2126741711462157,5.194245733912336
108.0,4.79931905427063,6.8816432456370205,0.21700861488955345,5.224467804324518
109.0,4.62433704807058,6.424077947762647,0.22154842516835221,5.25608595305651
110.0,4.475446590750996,6.018827979135574,0.22629485149637765,5.289113730549723
111.0,4.3508061448008295,5.660349729691571,0.231248938208452,5.323565275544164
112.0,4.2488649966811005,5.343815386799268,0.23641149816884488,5.3594553107815415
113.0,4.168404273033747,5.065010981901791,0.24178308517506308,5.396799133252685
114.0,4.10848243984727,4.820277883745987,0.2473639663297769,5.4356126110864516
115.0,4.068408953933526,4.6064489656068375,0.2531540985644269,5.475912172145762
116.0,4.04777780405923,4.420787767278538,0.25915310049733037,5.517714797873403
117.0,4.046418909992616,4.260952283336994,0.2653602294462911,5.561038016461651
118.0,4.064408413752429,4.124950908354275,0.27177436044550257,5.6058998908409405
119.0,4.102073466166436,4.011110132337796,0.27839396402629746,5.6523190114049235
120.0,4.160019334900063,3.918042197273922,0.2852170862051373,5.700314484245554
121.0,4.2391136804796865,3.844628307773545,0.29224133300146976,5.7499059223624505
122.0,4.340518067974026,3.789997216511403,0.2994638558325847,5.801113433108945
123.0,4.465693462062854,3.7535158340511128,0.3068813403016218,5.853957609461306
124.0,4.616463479119818,3.734772461298419,0.31448999458194304,5.908459514873474
125.0,4.795054964878489,3.733567277728112,0.3222855462004847,5.964640664755913
126.0,5.004132825003564,3.7499155260469825,0.33026323242834266,6.022523020417919
127.0,5.2468338093025775,3.784050700355787,0.33841780770912705,6.08212897174798
128.0,5.526867440412113,3.8364221098880047,0.3467435431623063,6.143481317878595
129.0,5.848585081746067,3.907706387755416,0.3552342318767563,6.206603253478451
130.0,6.217066986610249,3.9988214325768157,0.3638832008402428,6.271518351420989
131.0,6.6382286820051934,4.110943296326802,0.37268332526675685,6.338250543898146
132.0,7.118966731515889,4.2455214545594115,0.3816270441279618,6.406824100087605
133.0,7.667321782991733,4.404306626290098,0.3907063761799601,6.477263607424144
134.0,8.29262006824893,4.589385831027562,0.39991294875039596,6.549593951285258
135.0,9.005719832478588,4.803212225124957,0.4092380194946615,6.623840288643092
136.0,9.819233177586431,5.048655493612443,0.4186725060236506,6.7000280280206965
137.0,10.747803237350915,5.329047853328737,0.4282070185244499,6.778182801930013
138.0,11.808477735725686,5.648243696499415,0.4378318888663361,6.858330440615689
139.0,13.021058419341161,6.010687782859811,0.4475372092471991,6.940496945131286
140.0,14.408540604362443,6.421496475786307,0.45731286880178124,7.024708460050648
141.0,15.997669589100763,6.886545207595466,0.4671485903540966,7.110991241739723
142.0,17.819510566093317,7.412571777785231,0.4770339711143447,7.199371628349438
143.0,19.910143736684137,8.007299412311353,0.4869585225918181,7.2898760083861225
144.0,22.311505846737667,8.679566245040899,0.4969117100301162,7.382530785347286
145.0,25.072250769914714,9.43948288455544,0.5068829942433647,7.477362345384093
146.0,28.248861491242,10.298610240845992,0.516861871169836,7.574397020302006
147.0,31.90683759533512,11.270153015204446,0.5268379114304622,7.673661051022769
148.0,36.12213503800311,12.369187060987946,0.536800798691144,7.7751805486073735
149.0,40.98269760747257,13.612916650183562,0.5467403678198219,7.878981456377441
150.0,46.5902814187273,15.020961018945243,0.55664664060798,7.985089509164254
151.0,53.062508827425944,16.61567808599699,0.5665098599349634,8.093530191845604
152.0,60.535177971142055,18.42252797922874,0.5763205220860375,8.204328697138454
153.0,69.16486597540593,20.470480807811036,0.5860694068778981,8.317509882399268
154.0,79.13184912569233,22.792472265687284,0.5957476054551719,8.433098225581391
155.0,90.64336474384557,25.425911345685922,0.6053465456216752,8.551117780448589
156.0,103.93723837684996,28.41324547577063,0.6148580145966398,8.671592131153913
157.0,119.2858989764794,31.80258572132418,0.62427417911996,8.794544346321251
158.0,137.00079145108987,35.648400010432916,0.6335876029046976,8.919996932827384
159.0,157.43724455436262,40.01227524029333,0.6427912612415118,9.047971789112536
160.0,180.99974781788265,44.963754644161625,0.6518785529293092,9.178490158810288
161.0,208.1476687742542,50.5812545241366,0.6608433095256991,9.311572584593451
162.0,239.40140917445297,56.953063849746805,0.6696798019434745,9.447238862518333
163.0,275.3489838276951,64.17843052990652,0.6783827444777502,9.585507997228236
164.0,316.65299871472723,72.3687374595232,0.6869472963567449,9.726398158395536
165.0,364.0579931209417,81.64877001637616,0.6953690609258458,9.869926638846794
166.0,418.3980763426406,92.15807703106898,0.7036440826237306,10.016109814968509
167.0,480.6048570517204,104.05242571733845,0.7117688418142463,10.16496310968398
168.0,551.7155386234617,117.50534616355414,0.7197402476026961,10.316500959105744
169.0,632.8810478516796,132.70976741014695,0.7275556289094418,10.470736783726052
170.0,725.3741399855022,149.87973989426646,0.7352127238738501,10.627682964881778
171.0,830.5973288128765,169.25223956063823,0.7427096677624819,10.787350827781937
172.0,950.090494670302,191.0890461308275,0.7500449795401594,10.949750632483568
173.0,1085.538008550982,215.67868354276294,0.7572175472607994,11.114891574448572
174.0,1238.7751722576809,243.33841734127446,0.7642266124416093,11.28278179664874
175.0,1411.7939096637356,274.4162889176439,0.7710717535072669,11.453428415167062
176.0,1606.747176296163,309.2931884863771,0.7777528686783441,11.626837561725456
177.0,1825.9523870792648,348.38491421212007,0.7842701580023093,11.80301444544767
178.0,2071.893373530771,392.14419563428964,0.7906241048367709,11.981963437891054
179.0,2347.2202598217023,441.06272925033795,0.7968154573793704,12.163688186120488
180.0,2654.748060671575,495.6731858924328,0.8028452099815809,12.348191757271492
181.0,2997.4535842630808,556.5509577152142,0.8087145833834282,12.53547682157184
182.0,3378.4680091116156,624.3159442571168,0.8144250060049205,12.725545883983928
183.0,3801.0709747209066,699.6341885893905,0.8199780948048461,12.918401563057937
184.0,4268.679693805378,783.219053116352,0.8253756354955177,13.114046933412395
185.0,4784.833776357174,875.8326182804004,0.8306195645646668,13.312485951504412
186.0,5353.184069642777,978.2862613723845,0.8357119493586886,13.513723945293787
187.0,5977.470022569705,1091.4413519348523,0.8406549702365915,13.71776822759592
188.0,6661.506023094349,1216.209141181085,0.845450901268233,13.924628794425622
189.0,7409.15157630264,1353.5506212405614,0.8501020928207514,14.13431919365543
190.0,8224.294354465357,1504.4752838738345,0.8546109526762725,14.346857491068377
191.0,9110.81791284297,1670.039944226757,0.8589799289328036,14.56226748693245
192.0,10072.578787076258,1851.3459894046512,0.8632114918643586,14.780580017062164
193.0,11113.374851257098,2049.5366426690643,0.8673081168751587,15.001834611263414
194.0,12236.913473260222,2265.792682776511,0.8712722674012243,15.226081311487485
195.0,13446.78550779139,2501.3270664128436,0.8751063779841285,15.453382732747928
196.0,14746.431198625873,2757.3786212034242,0.8788128377240328,15.683816555518668
197.0,16139.108906706842,3035.203956972693,0.8823939740624479,15.917478277297887
198.0,17627.86444387985,3336.0677371297356,0.885852036993416,16.154484325641338
199.0,19215.501681019723,3661.231088514853,0.8891891839366088,16.3949755166304
200.0,20904.557968237426,4011.9378136006726,0.8924074649413963,16.63912091649556
201.0,22697.268938158795,4389.398183678808,0.8955088088500793,16.887122250439027
202.0,24595.554220140737,4794.770098994373,0.8984950107199241,17.139218361901133
203.0,26600.98161394016,5229.13716498623,0.901367720398898,17.395690441750617
204.0,28714.764154622248,5693.484214453805,0.9041284333172984,17.656866906107076
205.0,30937.725451074435,6188.668670610557,0.9067784827460041,17.923129251113217
206.0,33270.29364136752,6715.388304461245,0.9093190347276114,18.194917617538426
207.0,35712.50227959019,7274.146538386018,0.9117510873640688,18.472735813503057
208.0,38264.000062166946,7865.232339092336,0.9140754811773387,18.757152129454475
209.0,40923.893846053994,8488.623750877021,0.9162928839733091,19.048818360900288
210.0,43691.026731759426,9144.041466377961,0.9184038397127641,19.348448214385
211.0,46563.69196448865,9830.815970096335,0.9204087573614659,19.656842548779263
212.0,49539.877588059964,10547.907072056722,0.9223079506837989,19.9748736128877
213.0,52617.14938051754,11293.859278731667,0.9241016690009214,20.30348651372731
214.0,55792.62682071912,12066.758027460748,0.9257901406671095,20.64369538254673
215.0,59063.09797043858,12864.231706345607,0.92737361431606,20.996570100654377
216.0,62424.9608055328,13683.442166128123,0.9288524164835972,21.36322434480356
217.0,65874.24953566474,14521.0998169406,0.9302270070220632,21.74479803238037
218.0,69406.64446882265,15373.494006590172,0.9314980378037402,22.14243661351913
219.0,73017.47746696271,16236.542299522607,0.9326664121772642,22.557267016322907
220.0,76701.74054340189,17105.85974296349,0.933733342362967,22.990370493724566
221.0,80454.10754566515,17976.849340450484,0.9347003953793583,23.442754677339522
222.0,84268.94389530136,18844.805063723594,0.935569530939795,23.915325904780225
223.0,88140.32627038301,19705.023886324678,0.9363431260345328,24.408863183107474
224.0,92062.0694684456,20552.9218932877,0.9370239845825852,24.92399521709628
225.0,96027.76014156724,21384.148625127444,0.9376153314608832,25.46118167379911
226.0,100030.8015637565,22194.695406125466,0.9381207907448732,26.02069926694094
227.0,104064.4824550541,22980.98509888243,0.9385443427799793,26.602636202448128
228.0,108122.04071766914,23739.939263202272,0.9388902705144976,27.206893570263187
229.0,112196.73849865313,24469.03067240882,0.9391630984681322,27.833190513727445
230.0,116281.93982626077,25166.288027980845,0.9393675199160056,28.481081739231087
231.0,120371.16285422578,25830.32352850252,0.9395083350144052,29.149966825665942
232.0,124458.25810691241,26460.31233296272,0.9395903569601414,29.83911453264906
233.0,128537.32346541822,27055.88900768004,0.9396183750532925,30.54769560185835
234.0,132602.9514584215,27617.21030953755,0.9395970550315271,31.274787501647086
235.0,136650.1595982574,28144.77332446944,0.9395309296448119,32.01941705608899
236.0,140674.46549764372,28639.460231081393,0.9394243091767341,32.7805678713449
237.0,144671.93916915587,29102.38310481962,0.9392813028373529,33.557209017125516
238.0,148639.199229725,29534.899749804543,0.9391057213931202,34.348310092372685
239.0,152573.38426701794,29938.489854412877,0.9389011676590532,35.15285050929873
240.0,156472.2605081089,30314.760758739205,0.9386708923125637,35.96984413573042
241.0,160334.0213646742,30665.365715533375,0.9384179546351855,36.798327937517904
242.0,164157.49715933725,30991.984903853176,0.9381450513517032,37.637395772123156
243.0,167941.86158178854,31296.298198749504,0.9378547108678269,38.486170292448584
244.0,171686.88350680776,31579.942042455725,0.9375491188100066,39.34384194160509
245.0,175392.6027321092,31844.52594635461,0.937230316145417,40.209631438145905
246.0,179059.580764307,32091.57532392516,0.9369000400603866,41.08282887579926
247.0,182688.59235698028,32322.574357084162,0.9365599037148518,41.96275408911854
248.0,186280.84679768255,32538.906666775285,0.9362112648520012,42.848791399017536
249.0,189837.72336610494,32741.90760205271,0.9358553739811549,43.74035350549144
