Time,J,A,S,tau
0.0,100.0,10.0,0.8597585886001144,2.2769278281543737
1.0,160.14795930709877,48.566548896884015,0.851802117396086,2.170480588200593
2.0,348.4129917654545,84.01533828308116,0.843857234785099,2.0632995503522475
3.0,646.7098813677783,162.74975599482653,0.8433054017740765,2.056024122775065
4.0,1288.5037510762716,348.2219885882253,0.8431974313315176,2.054767788562927
5.0,2597.105990300799,658.3024115591735,0.8430946185385576,2.053573315679587
6.0,5088.833835903914,1334.9592204378628,0.8429970036722451,2.05244089385354
7.0,10182.822738682182,2668.6559727399213,0.842904624976675,2.051370702194974
8.0,20240.208310783702,5269.764653320159,0.8428175186427391,2.050362909236487
9.0,40175.36274245653,10553.650038213618,0.8427357187889762,2.0494176729720865
10.0,80012.94004660015,20970.90094775819,0.8426592574435247,2.0485351408943893
11.0,158975.89764804725,41718.47280504402,0.8425881645271945,2.0477154500299926
12.0,316058.1272255306,83097.27938728842,0.8425224678376788,2.0469587269729903
13.0,628414.6127776398,165222.60257660015,0.8424621930349077,2.046265087916591
14.0,1248883.2275007467,328728.57499741553,0.8424073636275621,2.0456346386827984
15.0,2482420.98006886,653857.9796718729,0.8423580009607557,2.045067474750135
16.0,4933692.133082861,1300154.8761176865,0.8423141242048938,2.0445636812793646
17.0,9804791.582263784,2585406.5909296684,0.8422757503457188,2.044123333137193
18.0,19485395.26672244,5140128.0217256555,0.8422428941755487,2.043746494917918
19.0,38722152.5372586,10218325.23188,0.8422155682857165,2.043433220963015
20.0,76950238.86967412,20312098.13743025,0.842193783060216,2.043183555378626
21.0,152920004.401607,40372697.07562031,0.8421775466705553,2.0429975320509457
22.0,303895897.3632449,80241126.85589539,0.842166865071829,2.0428751746594807
23.0,603949566.3551174,159471675.61812645,0.8421617420000042,2.0428164966881814
24.0,1200316791.4280386,316922182.6823657,0.8421621789704256,2.0428215014344313
25.0,2385702794.4884224,629813344.1653492,0.8421681752775403,2.0428901820158876
26.0,4742071284.349945,1251599922.785523,0.8421797279958436,2.0430225213751716
27.0,9426627331.575756,2487252249.033894,0.8421968319820391,2.043218492282414
28.0,18740745274.525127,4942884899.31257,0.8422194798784183,2.0434780573356486
29.0,37261910773.06952,9823199131.536875,0.842247662117449,2.0438011689590767
30.0,74096299797.58228,19522837055.88875,0.8422813669275755,2.0441877693991857
31.0,147362320520.31216,38802162746.76559,0.8423205803402197,2.044637790718761
32.0,293116429699.52716,77125400474.48616,0.8423652861979795,2.045151154788789
33.0,583126558789.5609,153310839580.83746,0.8424154661640173,2.045727773278277
34.0,1160271160021.1978,304780752087.2546,0.8424710997326307,2.0463675476419985
35.0,2309059522069.815,605963829159.6777,0.8425321642409956,2.0470703691062035
36.0,4596153606064.17,1204912469051.2605,0.8425986348820711,2.0478361186523046
37.0,9150448911153.914,2396177348057.881,0.8426704847186588,2.048664666998574
38.0,18221463942258.004,4765867856734.654,0.8427476846986008,2.0495558745798794
39.0,36292887272113.69,9480459791520.924,0.8428302036711061,2.050509591525484
40.0,72303844533218.8,18861916727633.0,0.8429180084041905,2.0515256576349685
41.0,144081074061350.9,37533215565567.36,0.8430110636032186,2.0526039023522755
42.0,287185193588856.75,74700516854719.62,0.8431093319305288,2.0537441447379425
43.0,572572405956554.4,148700873692885.6,0.8432127740261278,2.0549461934395556
44.0,1141867082745696.5,296066685454574.7,0.8433213485294395,2.0562098466604595
45.0,2277827195955982.0,589597350708940.6,0.8434350121020853,2.057534892126766
46.0,4545160057085857.0,1174397544742338.2,0.8435537194516863,2.058921107052725
47.0,9072013149418554.0,2339762920383881.5,0.8436774233566594,2.0603682581044707
48.0,1.8112855392835024e+16,4662608636790563.0,0.8438060746919946,2.061876101362203
49.0,3.61744037518397e+16,9293719093988052.0,0.843939622455991,2.063444382280873
50.0,7.226853991971178e+16,1.852919090335006e+16,0.8440780137979296,2.065072835649375
51.0,1.4442175119383027e+17,3.6951524324799176e+16,0.8442211940466641,2.066761185548325
52.0,2.887042058797781e+17,7.370885770968136e+16,0.8443691067401067,2.0685091453064683
53.0,5.773142788127101e+17,1.4706882626448685e+17,0.8445216936555859,2.070316417455742
54.0,1.1548123769964984e+18,2.935196408160169e+17,0.8446788948410554,2.072182693685068
55.0,2.310742270795324e+18,5.859641404244573e+17,0.8448406486471282,2.0741076547928983
56.0,4.625229496420898e+18,1.170102039540363e+18,0.8450068917599148,2.076090970638572
57.0,9.260986552484622e+18,2.337203397125966e+18,0.8451775592346419,2.078132300092517
58.0,1.8549134019716264e+19,4.669714809338296e+18,0.845352584530023,2.0802312909853495
59.0,3.716485200420131e+19,9.332672654642395e+18,0.8455318995433609,2.082387580055899
60.0,7.448747587044712e+19,1.8657095270066205e+19,0.8457154346463555,2.084600792898209
61.0,1.4933981847217645e+20,3.730822470294387e+19,0.8459031187215903,2.0868705439075415
62.0,2.995081551758394e+20,7.462557236068532e+19,0.846094879199675,2.089196436225425
63.0,6.00871003442487e+20,1.4931141801695995e+20,0.8462906420970162,2.0915780616837787
64.0,1.205846482820185e+21,2.988271637159358e+20,0.8464903320541916,2.094015000748134
65.0,2.420690816746628e+21,5.982297737304696e+20,0.8466938723749011,2.0965068224599848
66.0,4.860950822817923e+21,1.1979420220127416e+21,0.8469011850654702,2.0990530843782937
67.0,9.764174688678085e+21,2.3995072198879357e+21,0.8471121908748793,2.1016533325201694
68.0,1.9619132394000523e+22,4.807565444813203e+21,0.8473268093352911,2.1043071013007215
69.0,3.9432223454416414e+22,9.634814639517815e+21,0.847544958803053,2.1070139134721306
70.0,7.927695231412107e+22,1.931409694003108e+22,0.8477665565001468,2.1097732800619156
71.0,1.594276237225883e+23,3.8727185962657215e+22,0.8479915185560585,2.1125847003104155
72.0,3.206990110455958e+23,7.76721474486991e+22,0.8482197600500485,2.115447661607491
73.0,6.45275689087963e+23,1.5581871171695906e+23,0.8484511950537866,2.1183616394284326
74.0,1.2986812749010463e+24,3.126624041137449e+23,0.8486857366743357,2.121326097269071
75.0,2.614358567567638e+24,6.275235821506153e+23,0.8489232970974533,2.1243404865800817
76.0,5.264152721122119e+24,1.259734725760664e+24,0.8491637876311878,2.1274042467004715
77.0,1.0601999395616717e+25,2.5294080332588563e+24,0.8494071187497441,2.1305168047902083
78.0,2.1356889897438768e+25,5.079784220959009e+24,0.8496532001375925,2.133677575761997
79.0,4.303025485245035e+25,1.020360909848182e+25,0.8499019407337995,2.1368859622121534
80.0,8.67141579639465e+25,2.049934097023098e+25,0.8501532487765524,2.1401413543505594
81.0,1.7477550717651853e+26,4.119065119609058e+25,0.8504070318478566,2.143443129929653
82.0,3.5232191914454156e+26,8.277991882428103e+25,0.8506631969183791,2.146790654172423
83.0,7.103316080579201e+26,1.6638478210010615e+26,0.8509216503924183,2.1501832796993727
84.0,1.4323153641144826e+27,3.344713712598224e+26,0.8511822981529726,2.1536203464543973
85.0,2.888455247958191e+27,6.724427385568301e+26,0.8514450456068879,2.1571011816295416
86.0,5.825529099144618e+27,1.3520624146428884e+27,0.8517097977300595,2.1606250995885885
87.0,1.1750082672198763e+28,2.7187991004986453e+27,0.8519764591126677,2.164191401789432
88.0,2.3701464367427074e+28,5.467516762367751e+27,0.8522449340044229,2.167799376705194
89.0,4.78113355356895e+28,1.0995861457916695e+28,0.8525151263597976,2.171448299744025
90.0,9.6449632698617e+28,2.2115046407179224e+28,0.8527869398832281,2.1751374331675666
91.0,1.9457036944197322e+29,4.447941572797775e+28,0.8530602780742582,2.1788660260080084
92.0,3.92510720947491e+29,8.94614476195182e+28,0.8533350442726069,2.1826333139837306
93.0,7.91803058599182e+29,1.7993317954341093e+29,0.8536111417031393,2.1864385194134703
94.0,1.5972234193574915e+30,3.618910042389628e+29,0.8538884735207192,2.1902808511290033
95.0,3.221728219116246e+30,7.278269023774766e+29,0.854166942854919,2.1941595043863114
96.0,6.497984283903922e+30,1.4637087286029662e+30,0.8544464528545728,2.198073660775223
97.0,1.3104686165314472e+31,2.943403533862463e+30,0.8547269067321446,2.202022488127529
98.0,2.642557257341685e+31,5.918419907168671e+30,0.8550082078078973,2.206005140423576
99.0,5.327991486907763e+31,1.1899116241784189e+31,0.8552902595538371,2.210020757697354
100.0,1.0740770226226686e+32,2.3920412119989765e+31,0.8555729656374135,2.214068465940122
101.0,2.164868448970458e+32,4.8079462324085885e+31,0.8558562299649576,2.2181473770026177
102.0,4.3625771684833414e+32,9.662276204702668e+31,0.8561399567248318,2.2222565884959153
103.0,8.789447271765193e+32,1.9414224330943865e+32,0.8564240504302745,2.2263951836910225
104.0,1.7704273779568568e+33,3.900077063915198e+32,0.8567084159619163,2.230562231417322
105.0,3.5652011326028976e+33,7.833045397219183e+32,0.8569929586099466,2.234756785960001
106.0,7.177456543663797e+33,1.5728385304191434e+33,0.8572775841159092,2.238977886956603
107.0,1.4445380179436392e+34,3.1573693513315505e+33,0.8575621987141031,2.2432245592929094
108.0,2.906367397767876e+34,6.336451190304629e+33,0.8578467091725697,2.2474958129983564
109.0,5.845564654526225e+34,1.2712704658125127e+34,0.8581310228336376,2.2517906431412213
110.0,1.175298441402487e+35,2.549721193526527e+34,0.8584150476540074,2.256108029723874
111.0,2.3621471568890968e+35,5.112131741471254e+34,0.8586986922443498,2.260446937578407
112.0,4.7456341093711e+35,1.0246080242851034e+35,0.8589818659083913,2.264806316262972
113.0,9.530189586650687e+35,2.0528236675139413e+35,0.8592644786814678,2.2691850999592513
114.0,1.9130237756137137e+36,4.111265970076104e+35,0.8595464413685122,2.273582207371468
115.0,3.838330484991281e+36,8.230409639260783e+35,0.8598276655814593,2.2779965416274224
116.0,7.697669459509331e+36,1.6469532278972384e+36,0.8601080637760332,2.2824269901820835
117.0,1.542989157489427e+37,3.294178159810499e+36,0.8603875492878947,2.286872424724285
118.0,3.091328461661536e+37,6.585838254919508e+36,0.8606660363681184,2.291331701087176
119.0,6.190106965091085e+37,1.3160289751173745e+37,0.8609434402179713,2.295803659163053
120.0,1.2388367204168908e+38,2.6284675464510183e+37,0.861219677022963,2.3002871228233275
121.0,2.477908311963408e+38,5.247048093157007e+37,0.8614946639861367,2.304780899844387
122.0,4.953408241430911e+38,1.0468762222255704e+38,0.8617683193605729,2.309283781840171
123.0,9.896084114468556e+38,2.087546870098329e+38,0.8620405624810691,2.313794544202344
124.0,1.9758583403549552e+39,4.160357304963324e+38,0.862311313794968,2.31831194604901
125.0,3.942524327752866e+39,8.286508188596754e+38,0.8625804948920979,2.32283473018293
126.0,7.861624081604075e+39,1.649499684882434e+39,0.8628480285337949,2.3273616230603205
127.0,1.5666169951916001e+40,3.2814517493595925e+39,0.8631138386809686,2.331891334771291
128.0,3.119748727761464e+40,6.523887633411386e+39,0.8633778505211803,2.3364225590331023
129.0,6.208352705306657e+40,1.2961859873452456e+40,0.8636399904946965,2.340953973197429
130.0,1.2346023657299322e+41,2.5736086233828807e+40,0.8639001863194837,2.3454842382728778
131.0,2.4533865555944585e+41,5.106533047645242e+40,0.8641583670151071,2.3500119989640638
132.0,4.8717773776606125e+41,1.0125409436997975e+41,0.8644144629254977,2.354535883728593
133.0,9.666875462531508e+41,2.006302429892732e+41,0.8646684057405528,2.3590545048533293
134.0,1.9167123830400287e+42,3.97257716186318e+41,0.8649201285165322,2.363566458551386
135.0,3.7974761647303424e+42,7.860233141992245e+41,0.8651695656952147,2.368070325081286
136.0,7.51788794209628e+42,1.5541069410103065e+42,0.8654166531217784,2.372564668889807
137.0,1.487150707158261e+43,3.070465639770828e+42,0.8656613280613709,2.377048038780011
138.0,2.9394655957103937e+43,6.061794132708624e+42,0.8659035292143336,2.3815189681060147
139.0,5.805401203752878e+43,1.1958252153457e+43,0.8661431967300455,2.3859759749960494
140.0,1.1456264167060188e+44,2.357219655507184e+43,0.8663802722193527,2.390417562605384
141.0,2.2589024044165404e+44,4.642957703891907e+43,0.8666146987655527,2.394842219400674
142.0,4.450334037927686e+44,9.13794412858532e+43,0.8668464209339013,2.399248419477304
143.0,8.760436753486782e+44,1.797042752280599e+44,0.8670753847796131,2.403634622911276
144.0,1.723036651228644e+45,3.5311956307037868e+44,0.867301537854324,2.4079992761471782
145.0,3.38607657873938e+45,6.933239523061494e+44,0.8675248292109955,2.4123408124237296
146.0,6.648608030697065e+45,1.3601899679860908e+45,0.8677452094072302,2.4166576522383703
147.0,1.304352173937517e+46,2.6663062845122228e+45,0.8679626305069779,2.4209482038523205
148.0,2.556748294079378e+46,5.222351119714399e+45,0.8681770460806146,2.4252108638374628
149.0,5.007363824423708e+46,1.022036511417513e+46,0.8683884112033747,2.4294440176663383
150.0,9.798459018495819e+46,1.9985274078819757e+46,0.8685966824521213,2.433646040346491
151.0,1.9157268053470355e+47,3.9047793699307754e+46,0.8688018179004439,2.437815297100279
152.0,3.742282273612245e+47,7.622987766526174e+46,0.8690037771120762,2.441950144091187
153.0,7.304104795675319e+47,1.4869494786816373e+47,0.8692025211326275,2.446048929197571
154.0,1.4243789900808048e+48,2.898075580116496e+47,0.8693980124796247,2.4501099928346473
155.0,2.77532063247362e+48,5.643730201074314e+47,0.8695902151308714,2.454131668825387
156.0,5.402951267756812e+48,1.0981626344421368e+48,0.869779094511127,2.458112285320886
157.0,1.0509468759350788e+49,2.135069930443987e+48,0.8699646174771158,2.462050165770573
158.0,2.04250983479345e+49,4.1476682487031946e+48,0.8701467523008863,2.465943629942502
159.0,3.966280153289918e+49,8.050894406783197e+48,0.8703254686515318,2.469790994993798
160.0,7.695572191956941e+49,1.5614730917982773e+49,0.8705007375753026,2.4735905765911337
161.0,1.4918992986688932e+50,3.0260596069326207e+49,0.8706725314741348,2.477340690080934
162.0,2.889896109649436e+50,5.859704217851091e+49,0.8708408240826315,2.481039651708835
163.0,5.593355724314185e+50,1.1337886157763728e+50,0.8710055904435315,2.4846857798876845
164.0,1.0817173535710475e+51,2.19204721612633e+50,0.8711668068817119,2.488277396513191
165.0,2.0903078435685716e+51,4.234797599877904e+50,0.8713244509767705,2.491812828326106
166.0,4.0361383000535194e+51,8.174932386306856e+50,0.8714785015342412,2.4952904083196104
167.0,7.78727817778148e+51,1.5769159322660224e+51,0.8716289385555028,2.4987084771903474
168.0,1.5013225468240428e+52,3.039556081401037e+51,0.8717757432064411,2.5020653848313277
169.0,2.8922516586482185e+52,5.854552389077014e+51,0.8719188977849358,2.5053594918647017
170.0,5.567718435424629e+52,1.1268447717039542e+52,0.8720583856872405,2.5085891712121704
171.0,1.0710338413641652e+53,2.1673376314847893e+52,0.8721941913733404,2.5117528097005826
172.0,2.058826549378421e+53,4.165686834270466e+52,0.872326300331362,2.514848809700037
173.0,3.9548782529924155e+53,8.001105275627521e+52,0.8724546990411288,2.5178755907915926
174.0,7.591886011331043e+53,1.5357576449021222e+53,0.8725793749369491,2.520831591461485
175.0,1.4563846692809925e+54,2.945852443994969e+53,0.8727003163697327,2.5237152708185118
176.0,2.792024859129473e+54,5.647047153247451e+53,0.8728175125685368,2.5265251103310766
177.0,5.3491695673226536e+54,1.081834241335842e+54,0.8729309536016426,2.5292596155801776
178.0,1.0241998870566396e+55,2.0712662065854333e+54,0.8730406303372675,2.531917318024441
179.0,1.9598460294110618e+55,3.9632752872482215e+54,0.8731465344040231,2.534496776773134
180.0,3.7480542700175694e+55,7.579196136784027e+54,0.8732486581512304,2.536996580362935
181.0,7.163817336610363e+55,1.4486061500738585e+55,0.8733469946092063,2.5394153485340922
182.0,1.3685040470451004e+56,2.7672199171947046e+55,0.8734415374496356,2.541751734001487
183.0,2.612877503886938e+56,5.283373388624316e+55,0.8735322809461474,2.5440044242159745
184.0,4.986226671796374e+56,1.0082344261552335e+56,0.8736192199352135,2.54617214311133
185.0,9.510728749589276e+56,1.9231042694897653e+56,0.8737023497774871,2.5482536528320066
186.0,1.8132319642950504e+57,3.6664344422480103e+56,0.873781666319704,2.550247755436893
187.0,3.455412343345963e+57,6.987047059464679e+56,0.8738571658572609,2.552153294574197
188.0,6.582072296282672e+57,1.330948059784284e+57,0.8739288450975918,2.5539691571225855
189.0,1.253288726462985e+58,2.5342849718164095e+57,0.8739967011244602,2.5556942747937166
190.0,2.3854754000709126e+58,4.823764023971433e+57,0.874060731363279,2.5573276256913284
191.0,4.538828975836884e+58,9.178303987316424e+57,0.8741209335475769,2.5588682358220987
192.0,8.633117121891083e+58,1.745799042594533e+58,0.8741773056867161,2.56031518055357
193.0,1.641558536808517e+59,3.319642221884738e+58,0.8742298460349741,2.561667586014548
194.0,3.120470934546003e+59,6.310495080836964e+58,0.8742785530620875,2.562924630433461
195.0,5.930197224831528e+59,1.1992803946347102e+59,0.8743234254253662,2.5640855454103733
196.0,1.1267139059950695e+60,2.278627401069777e+59,0.8743644619434653,2.5651496171184562
197.0,2.1402478579305225e+60,4.3284400478874365e+59,0.8744016615719095,2.566116187430934
198.0,4.064721920086591e+60,8.220634250709537e+59,0.8744350233804558,2.566984654969736
199.0,7.718350179042728e+60,1.5610092403617755e+60,0.8744645465323717,2.567754476072299
200.0,1.4653978947820082e+61,2.9637551445271096e+60,0.8744902302657044,2.5684251656732138
201.0,2.781856459049485e+61,5.6263455426411e+60,0.8745120738766059,2.5689962980976913
202.0,5.28047026638846e+61,1.0679927423255011e+61,0.8745300767047777,2.569467507764079
203.0,1.002258867933148e+62,2.027116245945943e+61,0.8745442381210845,2.569838489792977
204.0,1.9022489204548816e+62,3.8474069625273867e+61,0.8745545575173862,2.570109000520808
205.0,3.6103195222631364e+62,7.302093873551753e+61,0.8745610342986236,2.5702788579159934
206.0,6.85212870013761e+62,1.3858850829507185e+62,0.8745636678771908,2.57034794189628
207.0,1.3005219232517208e+63,2.6303786444837974e+62,0.8745624576696165,2.5703161945460145
208.0,2.4684983273104663e+63,4.992651789617542e+62,0.8745574030955677,2.570183620232609
209.0,4.685777510645703e+63,9.477132413522593e+62,0.8745485035791842,2.5699502856216996
210.0,8.895590752239301e+63,1.799144184195404e+63,0.8745357585527415,2.5696163195909376
211.0,1.6889734548333833e+64,3.415930265982852e+63,0.8745191674626325,2.569181913042638
212.0,3.207275682349509e+64,6.486592982568036e+63,0.8744987297776504,2.5686473186159247
213.0,6.091520003950402e+64,1.2319681921907869e+64,0.8744744449995481,2.5680128502993105
214.0,1.1571812276425902e+65,2.3402812439097384e+64,0.8744463126758374,2.567278882945046
215.0,2.198739263282521e+65,4.446648159183822e+64,0.8744143324147906,2.566445851686871
216.0,4.1788132870475687e+65,8.450920471492885e+64,0.8743785039025919,2.5655142512631572
217.0,7.9441826920348475e+65,1.6065420026294042e+65,0.874338826922584,2.5644846352477373
218.0,1.5106801791695979e+66,3.0549715795356103e+65,0.8742953013765472,2.5633576151910367
219.0,2.873642953111389e+66,5.811113799975512e+65,0.874247927307937,2.562133859674408
220.0,5.46814271576515e+66,1.1057544322284447e+66,0.8741967049270077,2.5608140932808463
221.0,1.0408863020585946e+67,2.1048200263773558e+66,0.8741416346377366,2.5593990954855332
222.0,1.9821324988817976e+67,4.008094530085124e+66,0.8740827170664592,2.5578896994698965
223.0,3.7760468796259697e+67,7.635496088417308e+66,0.8740199530921239,2.556286790863088
224.0,7.196587195744174e+67,1.4551988327507147e+67,0.8739533438780642,2.5545913064150056
225.0,1.3721745926100835e+68,2.774613533965762e+67,0.873882890905187,2.5528042326051517
226.0,2.6175476646820097e+68,5.2928172053068006e+67,0.8738085960064668,2.550926604191771
227.0,4.995638032668151e+68,1.0101468243738204e+68,0.8737304614026373,2.5489595027058876
228.0,9.539090648625767e+68,1.9288751922827987e+68,0.8736484897389637,2.5469040548949304
229.0,1.822430396897988e+69,3.6851433847700308e+68,0.8735626841229781,2.544761431120758
230.0,3.483621802210128e+69,7.04439534931558e+68,0.8734730481630628,2.5425328437169474
231.0,6.662773168096043e+69,1.3473497725862009e+69,0.8733795860077553,2.5402195453102663
232.0,1.2750603007523525e+70,2.578530735100873e+69,0.8732823023856563,2.5378228271112513
