Time,J,A,S,tau
0.0,100.0,10.0,0.6697949336030063,38.58263154351515
1.0,99.69396804875056,9.050348790567202,0.668613735528846,39.56838495723959
2.0,99.39790925701615,8.195232413743904,0.6674498668010487,40.554953138755614
3.0,99.11134231061968,7.425377824032886,0.6663027028512184,41.54224219190886
4.0,98.83358632154597,6.7321397271330605,0.665171639836032,42.530192048213
5.0,98.5640118192331,6.107770528250064,0.6640560701750503,43.51874776699287
6.0,98.30203581032553,5.545311149123428,0.6629553845801432,44.507859027904466
7.0,98.0471174876063,5.03852236037462,0.6618689737525261,45.49747969016017
8.0,97.79875440758289,4.581802103277182,0.6607962298292381,46.48756739926009
9.0,97.55647878155631,4.1701210662858275,0.6597365475670094,47.47808320699981
10.0,97.31985444667278,3.7989677066440617,0.6586893253453914,48.46899125994347
11.0,97.08847379741556,3.4642870244739647,0.6576539659482424,49.46025848561273
12.0,96.86195522159466,3.1624418238246754,0.656629877206152,50.45185432985644
13.0,96.63994068321429,2.8901628745485057,0.6556164724890322,51.44375050974813
14.0,96.42209346573641,2.644514202515094,0.6546131710461104,52.435920783919144
15.0,96.20809629033681,2.4228602881908246,0.6536193982944392,53.428340760165945
16.0,95.9976493429712,2.222832294079656,0.6526345859215628,54.42098769597012
17.0,95.79046873526262,2.0423019801793814,0.6516581720046937,55.41384034141493
18.0,95.5862848542539,1.8793575897535093,0.6506896009565745,56.40687877309482
19.0,95.3848410439404,1.732280557728981,0.6497283235009236,57.400084260049134
20.0,95.18589222562791,1.599527626245443,0.6487737965094906,58.39343912535631
21.0,94.98920375181943,1.4797108801879988,0.6478254828659097,59.38692662998396
22.0,94.79455024068406,1.3715843718211769,0.646882851227888,60.38053085603016
23.0,94.60171456502792,1.2740270082730223,0.645945375806792,61.37423660446032
24.0,94.41048686443317,1.1860337422556924,0.6450125360901113,62.368029295792674
25.0,94.22066360899949,1.1066997730220451,0.6440838165357926,63.36189487591204
26.0,94.03204677110267,1.0352134987107284,0.6431587062963551,64.35581973147278
27.0,93.8444429588538,0.9708462214404191,0.6422366988603853,65.34979060279885
28.0,93.65766265067111,0.912942898494986,0.6413172917422869,66.34379450513394
29.0,93.47151943751938,0.8609170447622567,0.640399986150363,67.337818650483
30.0,93.28582927212072,0.8142427814863291,0.639484286627838,68.33185037046837
31.0,93.100409763867,0.7724483089262988,0.638569700730709,69.32587704192265
32.0,92.9150794710806,0.7351119107378739,0.6376557386979125,70.31988601164203
33.0,92.72965719782717,0.7018569236594251,0.6367419131187778,71.31386452120063
34.0,92.5439612998791,0.6723472660422646,0.6358277386191136,72.30779963143901
35.0,92.35780898535991,0.6462834092456556,0.6349127315658167,73.30167814490746
36.0,92.1710155971557,0.6233993050419122,0.6339964097870414,74.29548652490872
37.0,91.9833938865522,0.6034601274338016,0.6330782923071171,75.28921081270158
38.0,91.79475327318703,0.5862585386745119,0.6321578991108258,76.28283654153196
39.0,91.60489905531803,0.5716129392803734,0.6312347509372774,77.27634864285528
40.0,91.41363162684556,0.5593653636355027,0.6303083691021387,78.2697313526363
41.0,91.22074559196663,0.5493796009383399,0.6293782753627531,79.26296810241692
42.0,91.02602891912944,0.5415397819850285,0.6284439918192282,80.25604141479587
43.0,90.8292619445784,0.5357483961220916,0.6275050408707524,81.24893277701064
44.0,90.63021649490575,0.5319257847445955,0.6265609452135322,82.2416225294318
45.0,90.42865462278316,0.5300105812503302,0.6256112279055747,83.23408970093227
46.0,90.22432720393476,0.5299565478434272,0.6246554125310488,84.22631182304684
47.0,90.01697423175813,0.5317263553347031,0.6236930233190245,85.21826496811917
48.0,89.80631964567453,0.5353168989784385,0.6227235856411841,86.20992306359335
49.0,89.59207541069819,0.5407204757104076,0.6217466260760293,87.20125842257843
50.0,89.37393545545179,0.5479533393736947,0.6207616731661226,88.19224093498386
51.0,89.15157502803372,0.5570420176360052,0.6197682580903925,89.18283796444798
52.0,88.92465069103699,0.568030135278925,0.6187659149912602,90.1730143430137
53.0,88.69279580126403,0.580976236916688,0.6177541823019977,91.1627317429645
54.0,88.45561918071569,0.5959542128033269,0.6167326036755404,92.15194847865104
55.0,88.21270304222223,0.6130536914609729,0.6157007291107018,93.14061920434607
56.0,87.96360013942012,0.6323833977022605,0.6146581163538106,94.1286945037224
57.0,87.70783035976295,0.6540680315346418,0.6136043327216268,95.11612039016394
58.0,87.44487771637365,0.6782525561073308,0.6125389569118399,96.10283786227652
59.0,87.17418679081442,0.7051023533133116,0.6114615811717151,97.08878237370473
60.0,86.89515881278729,0.7348048821339703,0.610371813760963,98.07388324592814
61.0,86.60714725952045,0.7675717191713505,0.60926928178544,99.05806300543041
62.0,86.30945356250655,0.8036401226705443,0.60815363415671,100.04123672848928
63.0,86.00132132431554,0.8432747648775453,0.6070245454121559,101.02331116191775
64.0,85.68193097409927,0.8867713079239253,0.6058817195450316,102.00418389851349
65.0,85.35039349932757,0.9344586391952394,0.6047248944803436,102.98374240646169
66.0,85.00574365161204,0.9867018939207167,0.6035538470329412,103.96186297009498
67.0,84.64693252520166,1.0439057793065685,0.6023683984159922,104.9384095250767
68.0,84.27281946329371,1.1065182145445258,0.6011684203411649,105.91323237940249
69.0,83.88216324824373,1.175034299119889,0.5999538417513383,106.88616681150538
70.0,83.47361253409515,1.2500006188793609,0.5987246562249882,107.85703153682681
71.0,83.04569525589115,1.3320205832362668,0.5974809302295049,108.825627000295
72.0,82.59680810504648,1.4217580677948842,0.5962228115593016,109.79173365594374
73.0,82.125203774509,1.5199428376637287,0.5949505394014479,110.75510988187341
74.0,81.62897849849577,1.627377458287322,0.5936644544369702,111.71548991470478
75.0,81.27751289552734,1.8478102308814088,0.5923650103625852,112.67258146896978
76.0,81.05917192385375,2.1547586348706282,0.5910527849902412,113.6260634693448
77.0,80.87943460070511,2.484838478398713,0.589728494049489,114.57558316346581
78.0,80.7457998638875,2.8402785946860645,0.5883930032521004,115.52075363346103
79.0,80.6670165349579,3.2235117752219713,0.587047343293717,116.46115062634487
80.0,80.65326618893585,3.6371876669879475,0.585692722576762,117.39630987548213
81.0,80.716398855507,4.084189507647455,0.5843305432282705,118.32572364358725
82.0,80.87016996584249,4.567646419625371,0.5829624135812269,119.24883800673838
83.0,81.13054784800048,5.090948535664542,0.5815901633913418,120.16504945338308
84.0,81.51602968900676,5.657758927596821,0.5802158561115486,121.07370205366001
85.0,82.04801692420051,6.272023379550448,0.5788417999833502,121.97408477725305
86.0,82.75124856191262,6.937980778148866,0.5774705592461222,122.86542864350315
87.0,83.65424874909466,7.660165369472032,0.5761049588417609,123.7469051699103
88.0,84.78988575573753,8.443410125836532,0.574748090009826,124.61762440696468
89.0,86.19594751345795,9.292842047128,0.5734033087729647,125.47663434648835
90.0,87.915777160729,10.213870912510865,0.5720742289911128,126.32292130412395
91.0,89.99902013837833,11.212173166980413,0.5707647112346274,127.15541091791624
92.0,92.50240023171719,12.293667061076714,0.569478843315326,127.97297070049615
93.0,95.49053301839045,13.464476837896836,0.5682209115393181,128.77441439286872
94.0,99.0368632357881,14.730888705750912,0.5669953647399549,129.55850752851487
95.0,103.22464261119609,16.099296336363025,0.5658067680348297,130.32397489229527
96.0,108.14788344000029,17.576134095707644,0.5646597457176189,131.06951021296828
97.0,113.91242094091865,19.167800304957684,0.563558915241368,131.79378744846085
98.0,120.63702200476828,20.88056954281106,0.5625088101932756,132.49547408468965
99.0,128.45436781926605,22.720496804770978,0.5615137953096987,133.17324624082968
100.0,137.51208411260538,24.69331433335431,0.5605779745720398,133.82580506666213
101.0,147.97382135582663,26.804320244101604,0.5597050911726935,134.45189462443395
102.0,160.02000082909979,29.058271891654556,0.5588984293834416,135.05031981275476
103.0,173.848742678178,31.45927168892221,0.55816070971849,135.61996529250436
104.0,189.67635121454748,34.010668856201306,0.557493996279147,136.15981260933754
105.0,207.73791578055534,36.71495823547631,0.5568996006018,136.66895763548752
106.0,228.2873943108929,39.57370588657054,0.5563780078433593,137.14662429968178
107.0,251.59775922217347,42.58747618909294,0.5559288032181737,137.59217787216897
108.0,277.9605714079079,45.75579442149016,0.5555506291689994,138.00513294764667
109.0,307.6855608711647,49.07711384012262,0.5552411454051024,138.3851604459058
110.0,341.0996206862733,52.548822417293934,0.5549970243595126,138.73208843612178
111.0,378.54575476454676,56.167254564011074,0.5548139500577048,139.04590186561143
112.0,420.3814709347772,59.92774103728071,0.5546866522523033,139.32673618099741
113.0,466.977080196036,63.82466167047143,0.5546089422778999,139.57487020530365
114.0,518.7135203149508,67.85152978604745,0.5545737796357844,139.79071383929318
115.0,575.9800476262402,72.00107468001258,0.5545733362171354,139.974795824012
116.0,639.1715308170662,76.26534719600463,0.5545990843590108,140.12774774121
117.0,708.6856632126337,80.63581869444238,0.5546418801452673,140.2502886853682
118.0,784.9197958071937,85.10348914106358,0.5546920559670238,140.3432086787774
119.0,868.2677559096536,89.65899173623941,0.5547395144189369,140.40735221904404
120.0,959.1164120920064,94.29269109985891,0.5547738166519915,140.44360295579435
121.0,1057.8421239322208,98.99477657739611,0.5547842696953723,140.4528690203441
122.0,1164.807143796744,103.75534757274971,0.5547600087824051,140.4360697044309
123.0,1280.3559097764444,108.56448820761737,0.554690072890642,140.3941236708947
124.0,1404.8114201621638,113.41233239625359,0.5545634737449946,140.3279388383706
125.0,1538.471385630352,118.28911937405667,0.5543692583829248,140.23840369873147
126.0,1681.6046173821026,123.18523912467195,0.5540965648685662,140.12638038483408
127.0,1834.44751810962,128.0912670577677,0.553734670902675,139.99269933401817
128.0,1997.200759653499,132.99799228884464,0.5532730360850109,139.83815531529544
129.0,2170.02490793288,137.89644446015214,0.5527013466639101,139.66350352686777
130.0,2353.037166990435,142.77790106935737,0.5520095501510995,139.46945827094203
131.0,2546.312518531726,147.6338802245938,0.5511878582634504,139.25669534916096
132.0,2749.8715631056357,152.456199980137,0.5502268379836989,139.0258437506143
133.0,2963.689176453659,157.23689326446046,0.5491173570782808,138.77749696881537
134.0,3187.6845735945744,161.9682864420004,0.5478506665484153,138.51220554205793
135.0,3421.718740303573,166.6429455747836,0.5464184191243175,138.23048144455996
136.0,3665.60265410689,171.25368358695263,0.5448126307826356,137.9328028922683
137.0,3919.078740143783,175.7935725224181,0.5430258179776719,137.61960889439644
138.0,4184.094874432133,175.6343590903593,0.6045643628949096,68.57098695006938
139.0,4444.232361744153,181.40749571608134,0.6289185385079062,50.37453407286707
140.0,4716.913738406905,197.4412740294312,0.6358953794204287,44.398720466057654
141.0,5021.576272510609,220.42589578968295,0.6380272444157306,40.93403924030273
142.0,5372.553518612101,249.6643109324635,0.6377290649444528,38.550246656993366
143.0,5783.149755286494,284.92350790900065,0.6359310301916159,36.76286038611605
144.0,6266.418653256064,326.14651394248165,0.6330993203399989,35.35042291915405
145.0,6835.432195254311,373.35529060320323,0.6295049534783352,34.19358233454791
146.0,7503.357056384198,426.6074471742348,0.6253216306447765,33.22085790817444
147.0,8283.453889237533,485.97235379601403,0.6206687769805106,32.386160278286994
148.0,9189.02899465603,551.5163193154654,0.6156329912321192,31.658118313320585
149.0,10233.329960473442,623.2930455353605,0.6102797796160341,31.014478346261143
150.0,11429.452184426513,701.335799515923,0.6046604497429494,30.438923872065672
151.0,12790.195382035301,785.652215862584,0.5988163708640483,29.919173706532153
152.0,14327.916140372805,876.2199005163428,0.5927817173524177,29.445787502440243
153.0,16054.391191485427,972.9828380846305,0.5865853265982606,29.011375021683133
154.0,17980.627881586992,1075.8491860498198,0.580251972290157,28.610067731258145
155.0,20116.742292005638,1184.6892297798886,0.5738032852084977,28.23714075643375
156.0,22471.767183658565,1299.334292268412,0.5672583935553329,27.888755542344562
157.0,25053.50266739167,1419.5764080767851,0.5606344236049629,27.561761096428114
158.0,27868.375401540117,1545.1683960564783,0.5539468636550262,27.25355043299155
159.0,30921.297133727432,1675.8245376684747,0.547209841254338,26.96195224251018
160.0,34215.54100501378,1811.2222917782944,0.5404363476076962,26.685145118367203
161.0,37752.65110567161,1951.0036892941569,0.533638397830962,26.421594218038027
162.0,41532.34324695594,2094.777751347257,0.5268271659265118,26.169999705440855
163.0,45552.42421767454,2242.123200562696,0.5200130901950534,25.929256341152037
164.0,49809.9762094512,2389.6964502043493,0.5132059649226601,25.69841700885764
165.0,54285.78462957048,2538.967530633305,0.5064149991956723,25.476670619171163
166.0,58976.97989842683,2707.942037090087,0.4996488784369828,25.26331855750248
167.0,63924.33816601358,2908.205870273037,0.4929158080880347,25.057757073165384
168.0,69195.90535371701,3149.391273071705,0.48622355036118037,24.85946265725501
169.0,74881.52903391462,3440.2423311307566,0.47957945501071614,24.667979819767247
170.0,81089.68879429587,3788.9155627821515,0.4729904845346319,24.482910947866948
171.0,87944.92980796316,4203.070087867523,0.4664632352261622,24.30390782787503
172.0,95585.48210313635,4689.87283637847,0.4600039549508174,24.13066449398795
173.0,104160.85295610057,5255.9633064136315,0.4536185582773145,23.96291120993128
174.0,113829.38451432066,5907.398522370608,0.44731263944775457,23.80040937220078
175.0,124755.64179372058,6649.589733278325,0.44109148385084507,23.642947198840705
176.0,137107.70577604542,7487.237112782936,0.43496007803498354,23.490336076284144
177.0,151054.59761540656,8424.26680624169,0.4289231184866731,23.342407427957177
178.0,166763.4538763282,9463.777870392307,0.4229850206800523,23.199010028815263
179.0,184396.74510309362,10607.995694035162,0.4171499265656881,23.06000776056416
180.0,204109.90145768214,11858.238429437019,0.4114217120704501,22.92527763114835
181.0,226048.41161970305,13214.896072728518,0.40580399462560646,22.794708132919713
182.0,250346.04611805867,14677.426665063282,0.40030014092329413,22.66819774418033
183.0,277122.32721025747,16244.358938016265,0.3949132730886619,22.545653764525014
184.0,306480.915182432,17913.316283578824,0.3896462766711242,22.42699120779488
185.0,338507.9738208349,19681.050903668616,0.3845018084432513,22.31213188380912
186.0,373271.30420823395,21543.03620083868,0.3794823030772096,22.2010036273128
187.0,410816.3643649481,23489.94508083654,0.3745899818512552,22.0935395872679
188.0,451155.4687887859,25524.39305533745,0.3698268611680857,21.98967762253385
189.0,494312.35036084667,27670.17319738543,0.3651947577478177,21.88935982187093
190.0,540372.2973584521,29963.559889151533,0.36069529909991077,21.79253203852559
191.0,589509.0018682912,32449.954895135867,0.35632993190943735,21.699143505333854
192.0,642002.8873725531,35181.760724760534,0.35209992965793707,21.609146503121437
193.0,698251.3200564587,38216.66873385736,0.34800640215434947,21.52249605515906
194.0,758774.8581448738,41616.197109452616,0.34405030322036173,21.439149686704177
195.0,824218.8791399432,45444.295747844866,0.34023244015483906,21.359067187996256
196.0,895350.5191290712,49766.084699611354,0.3365534819629751,21.28221042961207
197.0,973054.9285941169,54646.63094622077,0.33301396813174783,21.20854318702513
198.0,1058325.3303246868,60149.8443038657,0.32961431744709724,21.138030990963685
199.0,1152254.8179735995,66337.42468233983,0.3263548360394848,21.070641001081096
200.0,1256023.2790788326,73267.95169419421,0.3232357263638577,21.00634188316616
201.0,1370884.4153639148,80996.04264604721,0.3202570948050058,20.9451037161895
202.0,1498153.3340725747,89571.66476277423,0.31741896026055233,20.886897894995826
203.0,1639189.3722758896,99039.54874123356,0.3147212614920876,20.831697057503433
204.0,1795385.314355435,109438.74620148202,0.31216386510585636,20.779475009170834
205.0,1968150.5540986096,120802.29364801398,0.3097465724496607,20.73020666602462
206.0,2158899.6581508745,133157.05101175702,0.30746912703765544,20.683867992722035
207.0,2369040.4183702595,146523.21805594303,0.3053312208727266,20.64043596029263
208.0,2599958.768855369,160911.5832833524,0.3033325009454917,20.59988849657201
209.0,2853001.671445301,176332.5298359149,0.3014725753785849,20.562204445574835
210.0,3129491.46866041,192815.7536179142,0.2997510189876322,20.52736353653146
211.0,3430781.5894706585,210421.41773503556,0.2981673783142309,20.495346347788978
212.0,3758343.1304685115,229246.14476089392,0.29672117680536436,20.4661342775946
213.0,4113855.550040245,249426.47042263407,0.29541191920714177,20.43970951720943
214.0,4499298.908345854,271140.4714908591,0.2942390954868199,20.41605502604597
215.0,4917057.055394276,294607.74171233777,0.2932021850677818,20.39515450989949
216.0,5369998.127802467,320088.835771976,0.29230065943745615,20.3769924017413
217.0,5861556.375824242,347883.163584458,0.29153398522822166,20.36155383799692
218.0,6395816.01166745,378326.62537277,0.2909016269027064,20.348824644054506
219.0,6977570.568397327,411788.883007148,0.29040304844054254,20.33879131852206
220.0,7612377.871639876,448669.8726164392,0.29003771507763837,20.33144101394688
221.0,8306621.626487527,489396.37165676337,0.2898050948049071,20.32676152554245
222.0,9067539.51503157,534418.6160547656,0.2897046588327977,20.324741278211345
223.0,9903253.757464495,584206.5758659812,0.28973588214913526,20.325369310449286
224.0,10822812.856413644,639246.4761092031,0.28989824386774654,20.328635265643257
225.0,11836191.702131305,700037.6695573372,0.29019122653876955,20.334529381282568
226.0,12954304.290371615,767089.434070093,0.2906143156151835,20.343042475494908
227.0,14189031.592740798,840918.0924572287,0.2911669987105413,20.354165940548356
228.0,15553200.642424421,922044.0551061496,0.2918487638546571,20.367891734057782
229.0,17060584.809681043,1010987.7613348766,0.2926590979829557,20.384212367970996
230.0,18725917.201558877,1108273.8547348739,0.29359748518939177,20.40312090425344
231.0,20564869.736752134,1214448.068405442,0.29466340405441005,20.424610948224142
232.0,22594114.807915527,1330099.6298269732,0.2958563252915606,20.44867664012945
233.0,24831466.354715925,1455886.5952435392,0.29717570910620916,20.47531265331016
234.0,27296023.169674776,1592563.1081641184,0.2986210017465391,20.504514190116772
235.0,30008414.069119826,1741005.1679308754,0.30019163245938746,20.536276976522412
236.0,32991130.296949364,1902236.698410081,0.3018870100880265,20.570597263410747
237.0,36268839.25124339,2077455.3679865352,0.3037065190175913,20.607471825865815
238.0,39868793.23671044,2268054.7391139185,0.30564951560688464,20.646897961624727
239.0,43821326.33246521,2475646.5981152724,0.3077153241789687,20.688873496523676
240.0,48160289.77610548,2702082.3456431334,0.30990323254902474,20.733396788373536
241.0,52923577.712591216,2949469.810790865,0.31221248811012847,20.780466730479294
242.0,58153744.74453359,3220190.7772644833,0.3146422933873039,20.83008276278636
243.0,63898501.54981756,3516917.637795211,0.3171918013467978,20.882244882086454
244.0,70211308.6728246,3842625.0122685507,0.3198601113198384,20.936953652382307
245.0,77152067.9039091,4200602.786328062,0.3226462643019223,20.994210223943547
246.0,84787614.43969776,4594468.6134277675,0.3255492382453965,21.054016352294713
247.0,93192331.24688387,5028175.091401866,0.32856794400356637,21.116374417940758
248.0,102448864.91316283,5506019.015790091,0.3317012205593553,21.18128745644182
249.0,112648548.72857559,6032650.409524055,0.33494783049503085,21.248759189589936
250.0,123891988.76198131,6613075.173341883,0.3383064561269059,21.318794058009782
