Time,J,A,S,tau
0.0,100.0,10.0,0.872069564565255,19.43062225404969
1.0,194.44770302421148,46.839594063538684,0.8735398838006774,19.58813570699506
2.0,458.40066293215284,82.93423396793212,0.8749956371829081,19.743069261046458
3.0,888.557938634417,118.30202408680596,0.87643613784605,19.89536766426534
4.0,1481.6742331049413,152.96027808304075,0.8778607410085129,20.044983203594914
5.0,2234.555678636135,186.92584434926457,0.8792687888599734,20.191868671907436
6.0,3144.0563198927216,220.21511608800762,0.880659610554538,20.33597737896853
7.0,4207.074450616731,252.84404162308468,0.8820325221951232,20.477263163752806
8.0,5420.548475798448,284.82813869891464,0.883386826929304,20.615680403129037
9.0,6781.454194868554,316.18249982701946,0.8847218149134822,20.751184027131664
10.0,8286.801173900107,346.9218048405589,0.8860367634547566,20.883729527867118
11.0,9933.630164783537,377.0603274249287,0.8873309370871225,21.013272972324376
12.0,11719.007713301167,406.61195459806174,0.8886035877200195,21.139771013321926
13.0,13640.026115548013,435.5901824773049,0.8898539547408597,21.263180903780942
14.0,15693.800347305862,464.0081261842522,0.8910812651993415,21.3834605088023
15.0,17877.46195052787,491.87854386971264,0.8922847340780612,21.500568314899798
16.0,20188.161726629216,519.2138195176791,0.8934635643751717,21.614463450342672
17.0,22623.061949105646,546.0259968275819,0.894616947537758,21.72510568918205
18.0,25179.336451270923,572.3267725129118,0.8957440635864905,21.83245547398955
19.0,27854.1688337742,598.1275089465256,0.8968440816907695,21.936473912872483
20.0,30644.75083987859,623.4392334243936,0.897916160289272,22.037122806630205
21.0,33548.281022141666,648.2726351161905,0.8989594472461789,22.134364680873876
22.0,36561.95482957376,672.6381218919673,0.8999730808947674,22.22816275795154
23.0,39696.36621204613,749.4039571486261,0.899731690663233,22.19125528618811
24.0,43434.451970336566,996.678290875353,0.899059262603622,22.1101316143484
25.0,48617.26898742948,1411.9218525385543,0.8983744874651132,22.028447473291326
26.0,56056.82019313048,1987.9026950326281,0.8976774166622677,21.946239842865857
27.0,66529.80630293961,2717.59121046951,0.8969681075617884,21.863545522274563
28.0,80778.08048986332,3594.153345495176,0.896246623663386,21.780401103701365
29.0,99509.09840439078,4610.943996202684,0.8955130347770938,21.696842947067218
30.0,123396.32186429834,5761.5007994605285,0.8947674172001521,21.612907155789664
31.0,153079.62944324687,7039.538058051195,0.8940098538887842,21.528629553724592
32.0,189165.68128042854,8438.941092102925,0.8932404346317347,21.44404566297577
33.0,232228.31436122494,9953.760591856106,0.8924592562120874,21.359190683162048
34.0,282808.9067439869,11578.207375998849,0.891666422574194,21.274099471349693
35.0,341416.7209236386,13306.64739145666,0.8908620449810835,21.188806523299544
36.0,408529.2399227121,15133.596977783838,0.89004624216923,21.103345955692802
37.0,484592.51831899723,17053.718305914914,0.8892191405068276,21.01775148892387
38.0,570021.6747883694,19061.814331452973,0.8883808741107103,20.932056432813255
39.0,665200.9278680563,21152.826108694342,0.8875315850325243,20.84629366946973
40.0,770484.2693755119,23321.827389406462,0.8866714233376101,20.760495642425454
41.0,886195.6841631427,25564.0215355513,0.8858005472670256,20.674694341949436
42.0,1012629.5422765323,27874.737847758624,0.8849191233585756,20.588921293100434
43.0,1150048.9817793956,30251.709631559348,0.8840273265814041,20.503207544015293
44.0,1298878.4327966261,32999.885440106984,0.8831253403527334,20.417583660932348
45.0,1462171.6712396326,36999.87934714554,0.8822133567084807,20.33207971357847
46.0,1647547.893602316,43138.83026980906,0.88129157638436,20.24672526899185
47.0,1866979.084182883,52238.68848116648,0.8803602088899272,20.161549383946447
48.0,2136439.540813475,65058.362469895015,0.879419472580337,20.07658059834152
49.0,2475562.469623812,82295.82254677049,0.8784695947182556,19.99184692940647
50.0,2907304.3464299585,104590.14967885768,0.8775108115282755,19.907375866545408
51.0,3457616.6012113104,132523.56163651275,0.8765433682378815,19.82319436709775
52.0,4155125.846909944,166623.3897948715,0.8755675191100384,19.739328852696875
53.0,5030821.914064327,207364.02236431977,0.8745835274653386,19.655805206307047
54.0,6117753.97777978,255168.82091806238,0.8735916656924475,19.572648769966534
55.0,7450735.466845404,310412.00618191966,0.8725922152473636,19.489884343160547
56.0,9066058.96461805,373420.50653977186,0.8715854666421338,19.40753618172688
57.0,11001219.824944517,444475.80378631153,0.8705717194170025,19.325627997636442
58.0,13294647.147665828,523815.7236914238,0.8695512821104622,19.24418295880964
59.0,15985448.421779256,611636.2415455353,0.8685244722030818,19.16322369020398
60.0,19113163.449295737,708093.2145531018,0.8674916160622879,19.08277227464545
61.0,22717523.74720274,813304.1506798296,0.8664530488663156,19.002850254747862
62.0,26838227.807772886,927350.8580172257,0.8654091145169494,18.92347863506533
63.0,31514942.940055337,1050963.2106931077,0.8643601655422912,18.84467788474401
64.0,36795049.03740119,1188743.7476221097,0.8633065629784015,18.766467940553408
65.0,42756665.96804425,1350416.1451241118,0.8622486762428392,18.688868210629337
66.0,49533617.91828563,1550290.8529174533,0.8611868829998082,18.611897578085273
67.0,57337159.98495215,1806690.3224709465,0.8601215690050805,18.53557440540183
68.0,66474567.021910936,2141403.160531168,0.8590531279371751,18.459916539089967
69.0,77364632.10354455,2579167.880882121,0.8579819612192946,18.384941314628584
70.0,90550325.38676953,3147183.3317992236,0.856908477824183,18.310665561812694
71.0,106708762.46833423,3874647.4496037024,0.8558330940679398,18.23710561028438
72.0,126658566.84900953,4792323.07247249,0.8547562333897832,18.164277295430807
73.0,151364865.62875658,5932130.620146368,0.8536783261180501,18.09219596455237
74.0,181942074.25565672,7326767.470787097,0.8525998092238034,18.020876483234932
75.0,219654607.00731447,9009353.508709209,0.851521126061217,17.95033324198658
76.0,265915658.941797,11013102.663044399,0.8504427260964142,17.880580163033706
77.0,322284296.9679823,13371019.347075664,0.8493650646222982,17.81163070738625
78.0,390460955.423911,16115619.891213065,0.8482886024623398,17.743497882023338
79.0,472281482.9630542,19278678.44412452,0.8472138056610907,17.676194247372383
80.0,569709948.9287367,22891021.390208986,0.8461411451672839,17.60973192458392
81.0,684831817.9314315,26985622.77395434,0.8450710964974354,17.54412260357746
82.0,819882785.3941783,31616749.840325758,0.8440041394000505,17.479377550378082
83.0,977394938.4403391,36888182.29354787,0.8429407574983441,17.415507615384247
84.0,1160477798.9656582,42977657.753466375,0.8418814379291554,17.35252324119158
85.0,1373209157.3640223,50156514.33233487,0.8408266709719769,17.290434470577228
86.0,1621109805.8762221,58804819.23971129,0.8397769496656798,17.229250954780706
87.0,1911677835.9744434,69422516.9564437,0.8387327694205775,17.16898196161806
88.0,2254963983.0688205,82636915.11616749,0.8376946276203914,17.109636383604197
89.0,2664166063.2560434,99206779.51891366,0.8366630232159457,17.051222746324385
90.0,3156226361.742909,120023524.92776789,0.8356384563134011,16.993749216686705
91.0,3752420081.871627,146109820.64265746,0.8346214277555433,16.93722361107189
92.0,4478919108.087311,178615800.2248662,0.8336124386964637,16.88165340369767
93.0,5367319486.232463,218813327.86298248,0.8326119901722263,16.827045734880862
94.0,6455128144.692425,268088605.08767566,0.8316205826662093,16.77340741914051
95.0,7786199447.056257,327933257.6959703,0.8306387156701834,16.720744953450463
96.0,9411111537.095592,399934293.9978478,0.8296668872431167,16.66906452541603
97.0,11387484743.92041,485763375.1003014,0.8287055935661993,16.618372021251883
98.0,13780246503.321089,587179852.8952887,0.8277553284959055,16.56867303383484
99.0,16661987289.135134,706121357.1955452,0.8268165831169451,16.519972870708703
100.0,20113960727.972214,844938081.6766392,0.825889845292963,16.472276561864838
101.0,24228409646.100964,1006748958.48871,0.8249755992172907,16.42558886752214
102.0,29112713986.7596,1195883499.3249729,0.8240743249661916,16.379914285882876
103.0,34895704519.04218,1418379434.0610757,0.8231864980514318,16.335257060650907
104.0,41736346492.79358,1682508984.8338962,0.822312588974493,16.291621188479244
105.0,49834806140.557274,1999309366.8173764,0.8214530627862308,16.249010426409274
106.0,59445861956.111626,2383100889.4725385,0.820608378647562,16.20742829906903
107.0,70894568999.30008,2851976634.416719,0.8197789893929196,16.166878105740516
108.0,84593891726.68025,3428247983.002574,0.818965341102263,16.127362927424493
109.0,101064066864.42653,4138840285.577229,0.8181678726760018,16.088885633668596
110.0,120953488845.37189,5015631371.5711355,0.8173870154134573,16.05144888921743
111.0,145060693850.3727,6095723006.139993,0.8166231926028183,16.015055160654118
112.0,174357099877.82928,7421647704.160472,0.8158768191161391,15.979706722815603
113.0,210010319270.03146,9041510112.3054,0.8151483010085417,15.945405664998487
114.0,253407626634.63226,11009080256.483274,0.814438035131181,15.912153897136301
115.0,306179450980.7863,13384085023.810123,0.8137464087518448,15.879953155768801
116.0,370224837332.01776,16233300920.578102,0.8130737991803684,15.848805009781449
117.0,447743605910.74304,19633051581.6953,0.8124205734092085,15.818710866088377
118.0,541282170591.04376,23673508365.83404,0.8117870877647031,15.789671975129632
119.0,653802113741.1355,28465008088.68324,0.8111736875637767,15.76168943612692
120.0,788781038400.0243,34146422957.795998,0.8105807067862709,15.734764202252075
121.0,950354175399.598,40895494083.2399,0.8100084677613364,15.708897085632707
122.0,1143505775283.5713,48940990784.447296,0.8094572808600076,15.684088762111635
123.0,1374318367186.8577,58576435132.77801,0.8089274442029905,15.66033977588878
124.0,1650284568599.2998,70175071758.79033,0.8084192433859947,15.63765054402183
125.0,1980686890203.8901,84205838929.94194,0.8079329512121558,15.616021360681383
126.0,2377050131710.063,101249990057.86766,0.807468827438558,15.595452401260866
127.0,2853665248608.7915,122017959876.76738,0.8070271185435794,15.575943726364441
128.0,3428185771683.737,147366277885.25195,0.806608057502469,15.557495285554362
129.0,4122298321652.6074,178314219811.35684,0.8062118635754759,15.540106920928782
130.0,4962460746576.72,216059891410.8527,0.8058387421195199,15.52377837059462
131.0,5980705878914.172,261996777770.15192,0.8054888844094341,15.508509271906401
132.0,7215520773850.94,317734054686.3578,0.8051624674703282,15.494299164518782
133.0,8712821581553.662,385126124287.9427,0.804859653934946,15.481147493344098
134.0,10527074455892.873,466318593869.05145,0.8045805919124496,15.469053611286604
135.0,12722657711894.652,563818261726.6311,0.8043254148671514,15.458016781780676
136.0,15375584134825.748,680593894033.3799,0.8040942415221947,15.448036181235723
137.0,18575725720255.78,820214247792.8951,0.8038871757770977,15.439110901274173
138.0,22429733882021.023,987028974934.9037,0.8037043066342973,15.43123995076796
139.0,27064859078194.35,1186395658671.5244,0.8035457081493054,15.42442225777796
140.0,32633860582537.41,1424955397834.4263,0.8034114393974794,15.418656671306755
141.0,39321251638897.81,1710959049942.1377,0.8033015444491163,15.413941962847979
142.0,47351121401054.16,2054642899474.9912,0.8032160523658183,15.410276827830913
143.0,56996703782406.38,2468651641786.482,0.8031549772162099,15.407659886901463
144.0,68591938487805.15,2968508151564.644,0.8031183180996043,15.406089687000739
145.0,82545265519608.23,3573125405556.9453,0.8031060591879419,15.405564702328235
146.0,99355739252134.83,4305355156131.88,0.803118169789447,15.406083335166548
147.0,119631675124524.52,5192577866096.372,0.8031546044201794,15.407643916507142
148.0,144112108760249.75,6267347401928.832,0.8032153028905668,15.410244706548031
149.0,173691205648147.38,7568121703256.123,0.8033001904153126,15.41388389507937
150.0,209446146137806.72,9140144375150.84,0.8034091777314201,15.418559601675467
151.0,252669453971089.06,11036561414652.428,0.8035421612280772,15.424269875745914
152.0,304906830223326.06,13319869876506.477,0.8036990231004361,15.431012696499861
153.0,368002197231425.75,16063827038836.26,0.8038796315120068,15.438785972723439
154.0,444152588083689.06,19355957744364.613,0.8040838407664394,15.44758754240854
155.0,535975723334144.56,23300785096706.754,0.8043114915020695,15.457415172311096
156.0,646593649501420.0,28023933318929.46,0.8045624108961623,15.46826655733623
157.0,779737248151626.1,33677253021534.707,0.8048364128764952,15.48013931976973
158.0,939876549720205.2,40445073637331.56,0.8051332983533203,15.493031008447053
159.0,1132381663828065.8,48551706983151.49,0.8054528554623632,15.506939097769605
160.0,1363721243333274.8,58270335620888.89,0.8057948598135056,15.521860986564715
161.0,1641705390762075.2,69933337123519.94,0.8061590747566352,15.53779399688379
162.0,1975778369635102.2,83944111585622.16,0.8065452516597728,15.554735372673724
163.0,2377369731254503.0,100790546066831.89,0.806953130191583,15.572682278292012
164.0,2860312736557656.0,121060191044052.17,0.8073824386174355,15.591631796954177
165.0,3441335457892070.0,145457341176445.22,0.8078328941085592,15.61158092908464
166.0,4140636194014577.0,174822536296197.38,0.8083042030545974,15.632526590514255
167.0,4982558028734624.0,210155105263406.88,0.8087960613860607,15.654465610599061
168.0,5996373270403865.0,252639612560791.88,0.8093081549100187,15.677394730274981
169.0,7217200730559613.0,303677681154333.0,0.8098401596484672,15.701310599965478
170.0,8687088773913720.0,364926865499328.5,0.810391742183214,15.726209777395994
171.0,1.045629393132193e+16,438348376326736.7,0.8109625600133258,15.752088725376664
172.0,1.2584802311736186e+16,526266303122374.9,0.8115522619146579,15.778943809446806
173.0,1.5144162107571402e+16,631441166427889.1,0.8121604883031704,15.806771295414576
174.0,1.821969305494305e+16,757160364077489.4,0.8127868716090354,15.83556734688854
175.0,2.191315529682036e+16,907349123369005.8,0.8134310366525097,15.86532802268717
176.0,2.6345998276951904e+16,1086705760581527.4,0.8140926010214068,15.896049274135581
177.0,3.1663306665332244e+16,1300864088535779.8,0.814771175456771,15.927726942365855
178.0,3.803856437265878e+16,1556587049189303.8,0.8154663642401225,15.960356755520635
179.0,4.567942198409317e+16,1861996133641038.2,0.8161777655805108,15.993934325839236
180.0,5.483464832923045e+16,2226839337275829.0,0.8169049720068301,16.028455146747778
181.0,6.5802419101428104e+16,2662802158268758.5,0.8176475707613478,16.06391458988578
182.0,7.894020481819016e+16,3183868285965709.0,0.818405144191578,16.10030790201392
183.0,9.467652882448771e+16,3806734937910171.0,0.8191772701444969,16.137630201916984
184.0,1.1352478857761395e+17,4551290974750716.0,0.819963522361259,16.175876477281278
185.0,1.360995304971185e+17,5441172033094259.0,0.8207634708690521,16.215041581456408
186.0,1.631356341145222e+17,6504406537552029.0,0.8215766823726636,16.25512023019589
187.0,1.9551072462896083e+17,7774170312561184.0,0.8224027206453997,16.296106998412085
188.0,2.3427146966404474e+17,9289679770321962.0,0.8232411469161144,16.337996316823705
189.0,2.8066460938680147e+17,1.1097254721087754e+16,0.824091520253788,16.380782468561492
190.0,3.3617337262593146e+17,1.3251583353012364e+16,0.8249533979498814,16.424459585825566
191.0,4.025604166711622e+17,1.5817242482594688e+16,0.8258263358958828,16.469021646449093
192.0,4.8191885256870086e+17,1.8870528106265012e+16,0.8267098889567708,16.514462470399877
193.0,5.767326794871875e+17,2.2501645582316748e+16,0.827603611340368,16.560775716362198
194.0,6.899484647741146e+17,2.681733942259166e+16,0.8285070569610199,16.6079548782454
195.0,8.250609662743247e+17,3.19440461125671e+16,0.8294197797980117,16.655993281616414
196.0,9.862150932598154e+17,3.80316342553964e+16,0.8303413342479415,16.70488408022383
197.0,1.178326902819596e+18,4.5257837545897736e+16,0.8312712754705048,16.75462025248102
198.0,1.407227915816911e+18,5.383349807453502e+16,0.8322091597281545,16.80519459786339
199.0,1.6798367014624507e+18,6.4008698354197176e+16,0.8331545447180547,16.856599733393228
200.0,2.0043613311463757e+18,7.607991826036774e+16,0.8341069898963551,16.90882809012489
201.0,2.3905391162612895e+18,9.039839018487403e+16,0.8350660567957083,16.96187190953939
202.0,2.8499199030220063e+18,1.0737977469658046e+17,0.8360313093338959,17.015723240009653
203.0,3.3961975919375007e+18,1.275153512694029e+17,0.8370023141134647,17.070373933312723
204.0,4.0455994198601605e+18,1.513850222582864e+17,0.8379786407141351,17.125815641052554
205.0,4.817343247350647e+18,1.7967237207141235e+17,0.8389598619756898,17.182039811126838
206.0,5.734169497519935e+18,2.1318209725805005e+17,0.83994555427041,17.239037684288146
207.0,6.822962355048847e+18,2.5286034780360883e+17,0.840935297767891,17.29680029062351
208.0,8.115477626832884e+18,2.998184639395575e+17,0.8419286766902653,17.355318446045978
209.0,9.649188391731552e+18,3.553606327613617e+17,0.8429252795554816,17.414582748923106
210.0,1.1468271244039842e+19,4.2101638693963866e+17,0.8439246994125942,17.474583576639205
211.0,1.3624762745737791e+19,4.9857884533368614e+17,0.8449265340678317,17.535311082137305
212.0,1.6179906901933668e+19,5.901494828404637e+17,0.8459303862973951,17.59675519062968
213.0,1.920572901055966e+19,6.98190859317571e+17,0.8469358640514066,17.658905596279997
214.0,2.278688246740872e+19,8.255890438191831e+17,0.8479425806517675,17.72175175875427
215.0,2.7022804204802773e+19,9.757260384341893e+17,0.8489501549695015,17.78528290019013
216.0,3.203025117291437e+19,1.1525660373104675e+18,0.8499582116044538,17.84948800171673
217.0,3.794625181420811e+19,1.360754948209905e+18,0.8509663810413448,17.914355800519523
218.0,4.493158276711528e+19,1.6057383671637087e+18,0.8519742998086858,17.979874786443556
219.0,5.3174812754414486e+19,1.8938970594511974e+18,0.8529816106137023,18.04603319914248
220.0,6.289705182718705e+19,2.2327067342098345e+18,0.8539879624806106,18.11281902477425
221.0,7.435747004727214e+19,2.630920642045717e+18,0.8549930108646747,18.180219993239838
222.0,8.785975328388229e+19,3.09878391906401e+18,0.8559964177699586,18.24822357498176
223.0,1.0375959269150935e+20,3.648277634264756e+18,0.8569978518429209,18.316816978317934
224.0,1.2247340807153684e+20,4.29340432913664e+18,0.8579969884698895,18.38598714635329
225.0,1.4448845081728198e+20,5.050512488195282e+18,0.8589935098507221,18.455720754414333
226.0,1.7037452226373285e+20,5.938675566427982e+18,0.8599871050763794,18.526004207084217
227.0,2.0079752845798667e+20,6.980122669277185e+18,0.8609774701832911,18.596823635743796
228.0,2.3653514572781624e+20,8.200741580279069e+18,0.8619643082115204,18.668164895740684
229.0,2.784949329787575e+20,9.630651187855647e+18,0.862947329240575,18.74001356404323
230.0,3.277352055372623e+20,1.1304870563530594e+19,0.8639262504287664,18.812354936554406
231.0,3.854891788702557e+20,1.3264082092966775e+19,0.8649007960312876,18.885174025885803
232.0,4.5319273606795415e+20,1.5555524128777263e+19,0.8658706974214679,18.958455558827975
233.0,5.325165802447445e+20,1.8234011615004064e+19,0.8668356930920158,19.03218397425256
234.0,6.254032125883362e+20,2.136312955542178e+19,0.8677955286586577,19.106343420753443
235.0,7.34109538497208e+20,2.501660098058308e+19,0.8687499568459547,19.180917754701827
236.0,8.612563699696029e+20,2.9279885790666183e+19,0.869698737475207,19.255890537999395
237.0,1.0098849121746092e+21,3.4252013152626987e+19,0.8706416374348597,19.331245036333723
238.0,1.183522619516869e+21,4.004770596276243e+19,0.8715784306485074,19.40696421727849
239.0,1.3862588623636665e+21,4.679985016452611e+19,0.8725088980400181,19.483030748370545
240.0,1.6228316974925983e+21,5.4662315224444035e+19,0.8734328274821086,19.559426995662708
241.0,1.89872891717129e+21,6.381321851862889e+19,0.8743500137445699,19.636135022088087
242.0,2.2203038245612542e+21,7.445870210075268e+19,0.8752602584389977,19.71313658586804
243.0,2.594907986299789e+21,8.683723008573266e+19,0.8761633699484279,19.79041313939057
