Time,J,A,S,tau
0.0,100.0,10.0,0.7108379396945503,12.968528548802036
1.0,99.30538816496289,9.043092237818513,0.7070727632813437,13.945399462459243
2.0,98.62584770855295,8.18302125978866,0.7033509241477689,14.92329262070537
3.0,97.96027279670687,7.4100899353197605,0.6996713570930081,15.90207888146616
4.0,97.30781355258092,6.715306358624922,0.6960327553635227,16.88168282430738
5.0,96.66766945404879,6.090633785411356,0.6924337763432608,17.862034523520304
6.0,96.03908509420133,5.528874107974678,0.6888730496345171,18.843069014175445
7.0,95.42134649417943,5.023590300335028,0.6853491840124427,19.824725823915134
8.0,94.81377776496286,4.5690181339363205,0.6818607735563332,20.806948545774954
9.0,94.21573780536171,4.159994704712565,0.6784064030835223,21.789684419930005
10.0,93.62661757481396,3.791900074909263,0.674984652828163,22.772883979984513
11.0,93.04583732204533,3.460591639176229,0.6715941025781617,23.756500698597076
12.0,92.47284415514675,3.1623607678866885,0.6682333352452893,24.740490672565294
13.0,91.90710983180244,2.8938825568062354,0.6649009400102298,25.72481233254834
14.0,91.34812855830657,2.652177276939889,0.6615955149939861,26.709426158320486
15.0,90.79541518146243,2.43457578482798,0.658315669690014,27.694294433036585
16.0,90.24850322996998,2.2386829532802848,0.6550600269198057,28.67938098816606
17.0,89.70694338374345,2.0623533984008535,0.6518272247522248,29.66465098690177
18.0,89.17030176207675,1.9036620451803645,0.6486159179434186,30.650070696393698
19.0,88.63815857617445,1.760884313487973,0.6454247794841591,31.635607288498456
20.0,88.11010662825473,1.6324729313167825,0.6422525016875279,32.62122863291218
21.0,87.58575010183283,1.5170414288838265,0.6390977974909718,33.60690310816174
22.0,87.0647032358754,1.4133473911164716,0.6359594013438971,34.59259940870359
23.0,86.5465892065423,1.3202769553183968,0.6328360703512695,35.57828635957254
24.0,86.03103895247915,1.2368335640240429,0.6297265851385458,36.563932729761895
25.0,85.51769008744756,1.1621233810059373,0.6266297507931775,37.54950704709374
26.0,85.00618587051694,1.0953476785089904,0.6235443979736391,38.53497740733199
27.0,84.49617414326617,1.0357926678797196,0.6204693837666729,39.52031128505268
28.0,83.9873063404223,0.9828199534542547,0.6174035928365514,40.50547533558611
29.0,83.4792364963093,0.9358609695342596,0.6143459386834133,41.49043518637627
30.0,82.97162024776341,0.8944091339886077,0.611295364760637,42.47515522993769
31.0,82.46411385616905,0.8580146574544318,0.6082508459613952,43.45959839733136
32.0,81.95637321954717,0.82627846866039,0.6052113901844673,44.44372592180839
33.0,81.44805286212672,0.7988484035695023,0.6021760401375323,45.42749708333522
34.0,80.93880491808369,0.7754151800520553,0.5991438751877436,46.410868945883834
35.0,80.4282780983082,0.7557077923380562,0.5961140135028725,47.39379607324758
36.0,79.9161165928497,0.7394913158648313,0.5930856146355391,48.37623020876804
37.0,79.4019589988269,0.7265633373185846,0.5900578819462939,49.358119962720174
38.0,78.88543711869364,0.7167520744334562,0.587030065919714,50.33941042946621
39.0,78.3661747687634,0.7099140652976113,0.5840014673665151,51.320042806951776
40.0,77.84378652773506,0.7059318272380887,0.5809714410761359,52.29995397791833
41.0,77.317876604341,0.7047119279365055,0.577939398966794,53.27907613282271
42.0,76.78803709049052,0.706187711957032,0.5749048162119142,54.257336134686376
43.0,76.25384597054372,0.7103120127443752,0.5718672387708427,55.2346547414176
44.0,75.71486767550186,0.7170637487529293,0.5688262782907573,56.210946950961464
45.0,75.1706486410945,0.7264394622988948,0.5657816319025033,57.186120137533
46.0,74.62071735239559,0.738453180409398,0.5627330800794065,58.16007411503884
47.0,74.06458292860276,0.7531436924031218,0.5596804913665139,59.132700613889526
48.0,73.50173028612804,0.7705725464526741,0.5566238430283992,60.10388124696164
49.0,72.93162183094773,0.7908148700458218,0.5535632130136422,61.073488146647534
50.0,72.35369316017248,0.8139675471324787,0.5504987977825757,62.04138217533906
51.0,71.76735083298611,0.8401511989613041,0.5474309212253674,63.00741194378783
52.0,71.17197006938073,0.8695058413471978,0.5443600446663057,63.97141271112007
53.0,70.56689262749873,0.9021924328726965,0.5412867757420116,64.93320537757172
54.0,69.95142440809269,0.9383953060476441,0.5382118785391659,65.89259534347995
55.0,69.32483211837716,0.9783194450967848,0.5351362885407009,66.84937085215509
56.0,68.68634089398327,1.0221944216537036,0.5320611228888111,67.8033017725007
57.0,68.03513145044082,1.0702740622056774,0.5289876933059554,68.75413807802246
58.0,67.37033741091074,1.1228365388438464,0.5259175184083789,69.70160834580004
59.0,66.69104262748638,1.1801851937045884,0.5228523362012464,70.64541819068796
60.0,65.99627861648224,1.242649022883446,0.519794116344695,71.58524866934336
61.0,65.2850221755351,1.310582989428724,0.5167450718989371,72.52075467753194
62.0,64.5561932614473,1.3843681263613479,0.5137076702304251,73.4515633668775
63.0,63.808653222478625,1.4644113670574934,0.5106846427014297,74.37727261364223
64.0,63.041203492689064,1.5511450337971189,0.5076789927081529,75.29744957860164
65.0,62.25258486983006,1.6450259093964859,0.5046940015751913,76.21162940390735
66.0,61.44147746607909,1.746534293945629,0.5017332319358031,77.11931407841237
67.0,60.60650156365517,1.856171668660966,0.4988005277335137,78.01997155738653
68.0,59.74621960667609,1.9744574383605988,0.4959000097771578,78.91303526131178
69.0,58.85913928597173,2.101925907295787,0.4930360670499731,79.79790392414948
70.0,57.9437179882636,2.2391220229426354,0.49021334272567774,80.67394190867977
71.0,56.99836874964185,2.3865962438206214,0.4874367142915969,81.5404800614543
72.0,56.021467851467335,2.5448984944200985,0.48471126721482244,82.39681717985805
73.0,55.01136417167015,2.714571197359806,0.482042261689999,83.2422221572001
74.0,53.96639037168633,2.8961415696050725,0.4794350921588784,84.0759368538546
75.0,52.89975306363731,3.134252828739817,0.47689523961511493,84.89717968913871
76.0,51.89861545125691,3.656709450918247,0.47442821546717323,85.70515032288749
77.0,50.88735379333764,4.207786455068882,0.47203950059912964,86.49903461950052
78.0,49.86980863899435,4.788687539464046,0.4697344767910599,87.27801070982075
79.0,48.85075263133598,5.400544056222572,0.46751835347729404,88.0412556021581
80.0,47.836025758917614,6.044395914418138,0.4653960911895613,88.78795231907387
81.0,46.83268545631653,6.72117187320479,0.46337232207699075,89.5172974532558
82.0,45.84917565239558,7.431669220917692,0.46145126746869086,90.2285091513112
83.0,44.895482258640136,8.176536590063058,0.45963666628981664,90.92083455190028
84.0,43.98329982567911,8.956257952031697,0.4579317060046618,91.59355692167037
85.0,43.12625308906829,9.771133713126574,0.4563389474049887,92.24600332320045
86.0,42.34006885377299,10.621269882372559,0.4548602725303113,92.87755051543192
87.0,41.642776410849,11.506567484443716,0.4534968372102338,93.48763032102646
88.0,41.05491297097758,12.426714920806129,0.4522490368280949,94.0757338187661
89.0,40.59972064090476,13.381184504813575,0.45111648344191263,94.64141435058833
90.0,40.30334803924764,14.36923177318335,0.45009799675495654,95.1842891925796
91.0,40.19502848850501,15.389899301164627,0.44919161235556554,95.70403953796558
92.0,40.307270579781985,16.442022201367937,0.4483945966787126,96.2004096366362
93.0,40.676035899102686,17.524236875325336,0.447703473997108,96.67320465041449
94.0,41.34087725116345,18.634993523468964,0.4471140686263556,97.1222869875243
95.0,42.34506006197376,19.772570149278906,0.44662155374986423,97.54757185474989
96.0,43.73568120311119,20.935087254369066,0.44622050285146236,97.94902236869203
97.0,45.563728488225394,22.120524937202703,0.44590495047665346,98.3266437348242
98.0,47.88410688616655,23.326740191207165,0.4456684543488296,98.68047720445547
99.0,50.755645329584205,24.551483976293337,0.4455041561828654,99.01059403693421
100.0,55.92566207017719,23.875370899469406,0.5469474235281738,59.3063703606676
101.0,61.288478011822285,23.174962004047078,0.6100031730827856,40.734014877909225
102.0,66.80728968059863,22.480763444913297,0.6411695585667959,33.25541629951619
103.0,72.47395527007667,21.793137688006826,0.6606410145454367,28.933626210434696
104.0,78.00517428448944,21.42548780998104,0.6741748129135545,25.998625918582878
105.0,83.53863166905458,21.361129124151223,0.6841031551744112,23.824473009721594
106.0,89.19764913953505,21.5877594209601,0.6916013282984499,22.124308299328245
107.0,95.08610003330206,22.145658532736363,0.6973473634538403,20.744488646449522
108.0,101.34540245815374,23.079659880187346,0.701769881218105,19.59372990100377
109.0,108.16321354588048,24.438971335902295,0.7051582358039801,18.613657372464896
110.0,115.7829003278686,26.277005593833128,0.7077177428841681,17.764824283501763
111.0,124.51412676423867,28.651131252262385,0.7095998403425348,17.01941877265219
112.0,134.74411430340368,31.62238385038555,0.7109197298084655,16.35716379056928
113.0,146.9496580579414,35.25507531770351,0.7117672847072547,15.762869170398167
114.0,161.70964799821982,39.61630077738913,0.7122140946445648,15.22489939753232
115.0,179.94432767462763,44.49408658790595,0.7123181857319223,14.734175671607959
116.0,202.58165225813286,49.408049396357875,0.7121272881840778,14.283502128961633
117.0,229.96183815185236,54.33340100785719,0.7116811525066312,13.867101156790318
118.0,262.3358524791624,59.341944448389796,0.7110132409362632,13.480280299611406
119.0,299.9501991850126,64.64099080577923,0.7101519826799556,13.11919066683633
120.0,343.2360430819312,70.45071913129725,0.7091217224985098,12.780648797775141
121.0,392.82557164977834,77.05969727228937,0.7079434529993259,12.462001555127223
122.0,449.649012529087,84.83881083330544,0.7066353871535143,12.16102282737892
123.0,515.0614518500364,94.25510707679699,0.7052134114223265,11.875833415916958
124.0,591.0009250764153,105.88584961853657,0.7036914487824203,11.604838375934932
125.0,680.1813722210007,120.43182472225355,0.7020817557540213,11.346676814796231
126.0,786.3436592399773,138.70380336689288,0.7003951630385772,11.1001821526585
127.0,914.6858273788819,161.22674489888007,0.698641277463237,10.864349612318573
128.0,1071.4751208326702,188.22382240959604,0.6968286480732039,10.638310092643401
129.0,1263.5766165217055,219.9438938742802,0.6949649079267349,10.421308489556282
130.0,1498.421518337586,256.8591986539092,0.6930568923000616,10.212686043528286
131.0,1784.2959817602737,299.76091111289566,0.6911107408626054,10.011865551817586
132.0,2130.79495076592,349.9019661041014,0.6891319838827499,9.818339182945698
133.0,2549.5373696970782,409.18518114769165,0.687125617360128,9.63165820973359
134.0,3055.25486395423,480.3921108060724,0.685096167102165,9.451424460921409
135.0,3667.3387532051975,567.448867704625,0.6830477448450208,9.277283077129061
136.0,4412.019798747718,675.5929866826706,0.680984096590676,9.108916446661247
137.0,5325.055975523296,810.8986969954735,0.6789086449691503,8.946039051564185
138.0,6453.434392273739,979.9048209819904,0.6768245261451542,8.788393104678931
139.0,7856.302366369735,1189.7945916833664,0.6747346221252085,8.635744844741643
140.0,9606.128275973475,1448.9134140408814,0.6726415890706028,8.487881383961287
141.0,11790.72363698122,1767.5995311924491,0.6705478821459938,8.344608021128199
142.0,14516.796081274511,2159.4592866641915,0.6684557773532168,8.205745947843452
143.0,17915.996632616643,2643.1922544502613,0.6663673907349458,8.071130287377628
144.0,22154.686847250487,3245.0022669467603,0.6642846952787782,7.940608415470343
145.0,27448.87902720638,4000.850997627101,0.6622095358069978,7.8140385204797
146.0,34083.66250522548,4957.497334908026,0.6601436420992188,7.691288367039239
147.0,42434.094565940424,6173.219909089615,0.658088640461687,7.572234232931057
148.0,52986.69410732365,7719.354681844228,0.6560460639307544,7.456759993358076
149.0,66362.99755094307,9683.49577656183,0.6540173612752743,7.344756331303484
150.0,83348.5525500366,12175.443056505303,0.6520039049381622,7.236120055370977
151.0,104933.09037063591,15337.213627718102,0.6500069980474388,7.1307535100240464
152.0,132371.12724499154,19358.034360331498,0.6480278805903003,7.028564062293873
153.0,167273.0370930147,24492.688828132195,0.6460677348676472,6.929463658855834
154.0,211731.7329646508,31080.202880766254,0.644127690312635,6.833368439314094
155.0,268482.3935492914,39562.848475390245,0.6422088277356969,6.7401983980555595
156.0,341092.8115452129,50508.35236625089,0.6403121830557578,6.64987708981858
157.0,434186.7518758446,64640.67257000228,0.6384387506069596,6.562331371486035
158.0,553717.4422486149,82887.4985238684,0.6365894860448935,6.477491174385844
159.0,707325.5807228157,106454.37024690685,0.6347653088986781,6.395289304650019
160.0,904833.9459623618,136930.35185721033,0.6329671048329991,6.315661266338483
161.0,1158940.4711205056,176421.70397232738,0.6311957276290965,6.23854510418118
162.0,1486150.086159816,227710.00647751003,0.6294520009237187,6.163881264515948
163.0,1907966.4242448371,294438.395328274,0.6277367197494049,6.091612470566185
164.0,2452381.2673582933,381343.76740555814,0.6260506518777839,6.021683610572629
165.0,3155723.087045029,494572.5591739489,0.6243945389986364,5.954041637856887
166.0,4065005.552794198,642130.4336289807,0.6227690977624624,5.88863547995103
167.0,5241040.915666231,834510.0412541768,0.6211750206855893,5.825415956370322
168.0,6762608.759244505,1085522.321250024,0.6196129769448016,5.76433570428707
169.0,8731994.863849215,1413344.5773393032,0.6180836130780719,5.7053491099994895
170.0,11282230.229019053,1841822.577290444,0.6165875535900108,5.6484122464001905
171.0,14586304.135065973,2402124.8087819517,0.6151254014835841,5.593482815711491
172.0,18868875.09395111,3134922.9878497357,0.6136977387277056,5.54052009602805
173.0,24421374.608937882,4093343.141696082,0.6123051266589457,5.489484892163506
174.0,31621620.964062136,5346937.168142234,0.6109481063347204,5.440339490030345
175.0,40959654.64166201,6986882.960177374,0.6096271988432008,5.393047613637745
176.0,53071702.72021827,9132660.294417556,0.6083429055676337,5.34757438528477
177.0,68784011.11780642,11940578.61289246,0.6070957084194982,5.303886288135836
178.0,89169425.16859962,15614771.948823085,0.6058860700428914,5.261951130718101
179.0,115620361.5704298,20421648.9495103,0.6047144339871776,5.221738013867928
180.0,149942693.05777672,26708998.823641982,0.6035812248605258,5.183217299292688
181.0,194478424.69143903,34931039.57816829,0.6024868484645948,5.146360579658144
182.0,252265800.5253602,45680980.44158741,0.6014316919068208,5.111140650601154
183.0,327246381.56197286,59733010.99603442,0.6004161237020995,5.077531483850423
184.0,424534497.02106297,78096445.1369421,0.5994404938621536,5.0455082016527895
185.0,550765415.9512197,102086200.31592485,0.5985051339687326,5.015047052736724
186.0,714544199.082262,133414776.34358554,0.597610357242362,4.986125389057983
187.0,927031485.1360064,174312106.78622803,0.5967564586027991,4.958721643728068
188.0,1202703156.296112,227681530.53213364,0.5959437147174763,4.932815310173638
189.0,1560335173.2774196,297301444.96342105,0.5951723840500966,4.9083869218841265
190.0,2024288792.6932323,388085981.15366983,0.5944427069029998,4.885418033265572
191.0,2626170671.723716,506423571.61890095,0.59375490545058,4.863891201469355
192.0,3406985887.6047373,660616044.7790099,0.5931091837761164,4.843789968714054
193.0,4419948811.0228405,861448834.348118,0.5925057279031596,4.825098845647698
194.0,5734118661.015466,1122931938.957243,0.5919447058205499,4.807803295469681
195.0,7439133635.942607,1463257942.9963968,0.5914262675128872,4.791889718514335
196.0,9651393513.446516,1906042714.1721928,0.5909505449856332,4.777345437806437
197.0,12522051972.405294,2481935483.967248,0.590517652286264,4.764158685195958
198.0,16247442146.77753,3230702444.2957935,0.5901276855318812,4.752318587959522
199.0,21082692221.662144,4203930415.971592,0.5897807229311947,4.74181515629757
200.0,27359352404.93408,5468535614.143552,0.5894768248050063,4.732639271261263
201.0,35508452939.39447,7111301121.976528,0.5892160336133007,4.72478267316882
202.0,46090617083.15822,9244762076.747723,0.588998373976382,4.718237950831219
203.0,59835097340.2697,12014837451.364052,0.5888238526970839,4.712998531087081
204.0,77690929015.26541,15610705292.593464,0.5886924587890237,4.7090586688542455
205.0,100893710505.39719,20277624066.890934,0.5886041634987282,4.70641343789331
206.0,131052359312.72955,26333553999.72825,0.5885589203315092,4.705058721788012
207.0,170262993814.05997,34190668880.907246,0.5885566650822619,4.704991205464838
208.0,221257512950.0757,44383290343.039925,0.5885973158602708,4.7062083673158925
209.0,287597064985.13477,57604078033.78751,0.588680773120449,4.70870847147484
210.0,373926245749.17584,74750893246.80966,0.5888069196979488,4.712490560642812
211.0,486304429461.7847,96987677604.06328,0.5889756208374132,4.717554449398688
212.0,632638306367.5042,125823276314.68217,0.5891867242311033,4.7239007176274805
213.0,823250280263.9609,163213545142.90942,0.5894400600585055,4.731530704491057
214.0,1071618759905.7725,211693957544.63745,0.5897354410221174,4.740446502761047
215.0,1395346423075.3057,274551173413.73035,0.5900726623935822,4.750650953256972
216.0,1817431901571.063,356045326152.2326,0.590451502059677,4.7621476398008
217.0,2367924715866.681,461698518101.0858,0.5908717205666196,4.774940884414587
218.0,3086092307917.0674,598667766930.344,0.5913330611751892,4.789035742624899
219.0,4023262621458.2026,776228078797.9297,0.5918352499144535,4.8044379992427935
220.0,5246519772236.2,1006398583661.5399,0.5923779956362962,4.821154164275797
221.0,6843544326284.54,1304751040407.9053,0.5929609900802726,4.839191468957683
222.0,8928949234343.564,1691456286316.417,0.5935839079361924,4.858557862201636
223.0,11652506559543.03,2192637944262.7703,0.5942464069100397,4.87926200708758
224.0,15209913413965.54,2842117773547.1147,0.5949481277988363,4.901313277484982
225.0,19856841715002.3,3683671406779.533,0.5956886945626815,4.924721755040044
226.0,25927148366870.43,4773938584588.66,0.5964677144023608,4.949498226118468
227.0,33856659407197.92,6186167594057.059,0.5972847778436798,4.975654178907465
228.0,44214079729522.875,8015043723451.004,0.5981394588186596,5.003201800822357
229.0,57740959571829.99,10382897280751.705,0.5990313147538111,5.032153975816417
230.0,75403726045556.8,13447668728872.602,0.5999598866621386,5.062524281882144
231.0,98460935218533.16,17413147335220.941,0.6009246992317877,5.09432698880463
232.0,128549957887354.56,22542078047601.887,0.6019252609220859,5.127577055801013
233.0,167799296234977.28,29172917497659.29,0.6029610640595416,5.162290129397533
234.0,218972791205765.72,37741281043490.98,0.6040315849302615,5.1984825415252205
235.0,285654721284215.5,48807253016308.9,0.6051362838782014,5.23617130753075
236.0,372488069188224.94,63090143864825.21,0.6062746053989921,5.2753741244949515
237.0,485478093466566.06,81512728673890.47,0.6074459782294932,5.316109369773392
238.0,632379712152133.2,105257236204477.84,0.6086498154393125,5.358396099539694
239.0,823192091908390.4,135836197291251.08,0.6098855145128936,5.402254047748608
240.0,1070783139769292.4,175181999322096.8,0.6111524574254327,5.447703625384525
241.0,1391680379408010.8,225759410503021.22,0.612450010714467,5.494765919876517
242.0,1807070560670624.8,290706979589253.7,0.613777525536014,5.543462695114672
243.0,2344048641205054.5,374014272710150.0,0.6151343377106978,5.593816391904339
244.0,3037184497733503.5,480742725655300.7,0.6165197677566292,5.645850128854808
245.0,3930479097788564.0,617300846317713.0,0.6179331208992975,5.699587704158021
246.0,5079779146747202.0,791785775903606.1,0.6193736870648355,5.755053598085377
247.0,6555770732703958.0,1014404780840358.2,0.6208407408481811,5.81227297633247
248.0,8447662655834832.0,1297995266865235.8,0.622333541448561,5.871271694701435
249.0,1.0867669615907658e+16,1658662774318356.5,0.6238513325780006,5.9320763049607415
250.0,1.3956491985727938e+16,2116559603320140.2,0.625393342329499,5.994714062171927
251.0,1.7889940511686116e+16,2696834285422856.5,0.6269587829998902,6.05921293403008
