Time,J,A,S,tau
0.0,100.0,100.0,0.8253726199600394,19.510285084641456
1.0,99.33251138412271,96.52191691285532,0.8271280463658182,19.612512257765754
2.0,98.68757475384695,93.20039494800895,0.8289871587638411,19.722085506938267
3.0,98.06473767347491,90.02984727559564,0.830943972600914,19.838786305501316
4.0,97.46307102860268,87.00204976868422,0.8329949855215035,19.962536618131228
5.0,96.88168668887985,84.1092820841361,0.8351368116616746,20.093257738146097
6.0,96.31973903168642,81.34431543162299,0.8373661865661154,20.230870320340937
7.0,95.77642050961387,78.70033170279562,0.8396799537305657,20.37529450866244
8.0,95.2509608581194,76.17092123390417,0.8420750608594778,20.52645000089713
9.0,94.74263019411161,73.75008203994837,0.8445485639345391,20.684256098447424
10.0,94.2507383497999,71.43214874452048,0.8470976167711626,20.848631810050794
11.0,93.77463629710319,69.21177864296072,0.849719465073163,21.019495921192274
12.0,93.31372696513183,67.08397853176663,0.8524114526625707,21.19676705051684
13.0,92.86747226991021,65.04401761977806,0.8551710104108756,21.380363740892502
14.0,92.43540069484146,63.087437445401505,0.857995650477092,21.57020451294615
15.0,92.01714246651994,61.21006039503525,0.860882975314133,21.766207944985272
16.0,91.61244131568252,59.40791967803289,0.8638306615336219,21.96829272837913
17.0,91.22118953718095,57.67728750401166,0.866836462311315,22.176377723312157
18.0,90.84349439702521,56.01465191493613,0.8698982096420652,22.39038204612425
19.0,90.4796902909146,54.416675835694306,0.8730138003275065,22.61022507827225
20.0,90.13044468133339,52.88023795316619,0.8761812048577872,22.835826561306504
21.0,89.79681230100319,51.40236847932333,0.8793984588567839,23.06710662810504
22.0,89.4802669568947,49.98026417031375,0.8826636576377926,23.303985803546254
23.0,89.182909475571,48.611289236479834,0.8859749661784706,23.54638514431372
24.0,88.90738045059356,47.2929354837499,0.8888522612654046,23.768485588222703
25.0,88.65704872100399,46.02282950313876,0.8906557346294302,23.935528798879126
26.0,88.43603215047872,44.798725750039516,0.8924186904472637,24.10289967907525
27.0,88.24936300695295,43.61851366679226,0.8941415876467582,24.270568264215154
28.0,88.1028315911446,42.480175914424095,0.8958248899948756,24.438504686916886
29.0,88.00318731432147,41.38181495879668,0.897469066210401,24.606679194806926
30.0,87.95805057704384,40.32162705386243,0.8990745889855379,24.77506208544704
31.0,87.97582049902736,39.29789795384488,0.9006419341167415,24.943623681920716
32.0,88.06578460646053,38.309014227601985,0.9021715804407328,25.112334264951702
33.0,88.2378265220271,37.35343493948474,0.9036640089053637,25.28116399779201
34.0,88.50246922144396,36.4297071484991,0.9051197022537835,25.450082861847537
35.0,88.87064551685812,35.53645148631178,0.9065391447082723,25.619060519949883
36.0,89.35355928302853,34.67236158638583,0.9079228214981593,25.788066228058618
37.0,89.96254045466894,33.83620349225586,0.9092712185759076,25.95706871052503
38.0,90.70884459726955,33.02681727121601,0.9105848223473963,26.126035968429893
39.0,91.60344463168563,32.2431126025003,0.9118641194459933,26.294935141068184
40.0,92.65688544453549,31.48407131111377,0.9131095965138859,26.463732356544487
41.0,93.87909202256175,30.74875532735095,0.9143217399732627,26.632392483124015
42.0,95.2791550201772,30.036310411503226,0.9155010359144776,26.800878901479468
43.0,96.86522259248414,29.345971767640798,0.9166479699491613,26.969153347808643
44.0,98.64436981530149,28.677074745929648,0.9177630270587119,27.13717568727611
45.0,100.62236700701183,28.029079821469452,0.918846691344692,27.304903461390555
46.0,102.80364885016226,27.40157228314724,0.9198994461410915,27.472291873621238
47.0,105.19129626271756,26.794286400132563,0.9209217736183938,27.63929351933861
48.0,107.78657599090307,26.20715324939079,0.9219141547288106,27.80585757291063
49.0,110.58951048257948,25.64027452191901,0.9228770689898087,27.971930492695957
50.0,113.59804800117261,25.09400549803393,0.9238109944730196,28.13745460994197
51.0,116.80874360316437,24.56893677912257,0.9247164072373844,28.302368822886923
52.0,120.21608938150587,24.065950964319953,0.9255937816258687,28.466607595813485
53.0,123.81296189950062,23.58625720533996,0.9264435891430064,28.630100932471077
54.0,127.59032800425679,23.131375232294605,0.927266299245855,28.792774352574988
55.0,131.53740373198494,22.703190674021254,0.9280623782932375,28.95454842806527
56.0,135.64143574172977,22.304006765325475,0.9288322890246692,29.115338043045806
57.0,139.8880350609681,21.93648687496928,0.9295764908249635,29.275053140945957
58.0,144.26101326254803,21.603718093765867,0.9302954387752738,29.433597817056544
59.0,148.7424750825924,21.309207884394752,0.9309895831942891,29.590870207549692
60.0,153.3129129340825,21.056866577905893,0.9316593692757305,29.746762485699065
61.0,157.95131171841672,20.850995159778964,0.9323052365705425,29.901160782949194
62.0,162.63515807531311,20.696274186518483,0.9329276182829396,30.053944912838844
63.0,167.34055553351314,20.597732201816168,0.9335269406799126,30.204988383466727
64.0,172.04226224293402,20.56070867647254,0.9341036224588242,30.354158355242852
65.0,176.7137273233318,20.59080952201217,0.9346580741001085,30.501315666918554
66.0,181.32710279527626,20.693856675513324,0.9351906971803036,30.64631488636546
67.0,185.853234453355,20.875831881665277,0.9357018836711402,30.78900440350688
68.0,190.2616444219598,21.1428155638769,0.9361920152238709,30.929226566339594
69.0,194.52052418802387,21.500921878346524,0.9366614624420521,31.0668178612761
70.0,198.59676830017628,21.956231161001718,0.9371105841204421,31.20160913240083
71.0,202.45607535165843,22.514719104305254,0.9375397264764168,31.33342584773621
72.0,206.06316443753047,23.182186199177426,0.9379492224514051,31.462088439437217
73.0,209.3821477628302,23.96418808180375,0.9383393909623252,31.58741267404602
74.0,212.37707202185194,24.865966458571187,0.938710536163725,31.70921006978576
75.0,215.0126431081766,25.89238169584882,0.9390629467162198,31.827288361906135
76.0,217.25512354321623,27.047847133999944,0.9393968950640949,31.941452016161563
77.0,219.07335418781722,28.336265541936797,0.9397126367874352,32.051502796226465
78.0,220.43994236042755,29.760964269427433,0.9400104095832009,32.157240348394794
79.0,221.33228962146998,31.32463593055306,0.9402904329818152,32.25846290367018
80.0,221.73371619145306,33.02927240323488,0.9405529072613102,32.35496798568329
81.0,221.63378567882225,34.876156543451074,0.9407980142721702,32.446553086811356
82.0,221.02990373747718,36.86568841673612,0.941025912895524,32.53301661933093
83.0,219.92604980790972,38.99747489293271,0.9412367438828513,32.6141585907354
84.0,218.3334796263124,41.27018805831202,0.9414306249812873,32.689781500287246
85.0,216.27010453189862,43.68146836784703,0.9416076514938543,32.75969162834685
86.0,213.75885829544978,46.2280279615754,0.9417678976351894,32.82369918301107
87.0,210.82746854491464,48.90541879879288,0.9419114130841887,32.88162017783002
88.0,207.50665818608272,51.70808120999749,0.9420382241909343,32.933276996895124
89.0,203.8290341537394,54.62930240987657,0.942148333555891,32.97849933626499
90.0,199.8279706803099,57.66114350316501,0.9422417187325095,33.017125463717704
91.0,195.53662849987737,60.794390175270266,0.9423183317766483,33.04900346476385
92.0,190.98726632781376,64.01857136316696,0.9423780997042642,33.07399195734649
93.0,186.21081960121435,67.32193754643276,0.9424209240078857,33.09196106966641
94.0,181.23662890757757,70.69137998468692,0.9424466789898471,33.102794079031774
95.0,176.09258795052378,74.11246903926695,0.9424552130590746,33.10638789594353
96.0,170.80531637256664,77.569397909035,0.9424463476283411,33.10265427164226
97.0,165.40053937867356,81.04494277421091,0.942419877106047,33.09152066109616
98.0,159.90354168915945,84.52039257780788,0.9423755687060896,33.07293109717279
99.0,154.33967744702156,87.97544803270821,0.9423131622542134,33.046847013470874
100.0,148.73490909546808,91.38808641957489,0.9422323700155166,33.013248028397676
101.0,143.11632214015478,94.73442611132995,0.9421328768592772,32.97213245309445
102.0,137.512585772514,97.98859087675713,0.9420143403178785,32.92351774038809
103.0,131.9543210115862,101.12261900770604,0.941876390720551,32.86744081426524
104.0,126.47432635101801,104.1064696061479,0.9417186314016206,32.80395825415954
105.0,121.10760490579872,106.90818240446436,0.9415406388398228,32.73314638022132
106.0,115.89109422316243,109.49430873832631,0.941341963265945,32.65510107335339
107.0,110.86305721328206,111.83062254272049,0.9411221289863307,32.56993742786433
108.0,106.0620909304571,113.88318783453506,0.9408806349853478,32.47778924256736
109.0,101.52575162556985,115.61976711231164,0.9406169555756246,32.378808317652826
110.0,97.28885319277232,117.01151379007996,0.9403305411367958,32.27316356738835
111.0,93.38156246280441,118.03482304624386,0.9400208189408314,32.16103995391222
112.0,89.82747431188139,118.67315792833139,0.9396871940588135,32.04263725204186
113.0,86.64194755503256,118.91857687512332,0.9393290504688327,31.918168615135684
114.0,83.83064250531287,118.77301083559078,0.9389457516797429,31.787859212622834
115.0,81.3890825594304,118.24850917720254,0.9385366422663446,31.651944391556302
116.0,79.30287116141973,117.36681947722253,0.938101049036324,31.510667940322232
117.0,77.54846758164426,116.15841871328787,0.9376382819626199,31.364280453405676
118.0,76.09499639380029,114.6605246769972,0.9371476354929317,31.21303737099866
119.0,74.90645099201805,112.91476907472162,0.9366283898236346,31.057197176883616
120.0,73.94416086787417,110.96464210195167,0.9360798120407678,30.897019559816382
121.0,73.1692183786259,108.85303690045828,0.935501157343166,30.732763653404245
122.0,72.54459217724937,106.62015337088046,0.9348916702075275,30.56468635126277
123.0,72.0367397013924,104.3019431260866,0.9342505855128509,30.393040728903102
124.0,71.61662762724228,101.92917534211718,0.9335771296147806,30.218074595008936
125.0,71.26016682547396,99.52710447168396,0.9328705213621657,30.04002919122826
126.0,70.94814367242233,97.11564607522664,0.932129973074286,29.859138068802118
127.0,70.66580276234036,94.70989657521181,0.9313546913789825,29.675626103591828
128.0,70.4021943149912,92.32087747090227,0.9305438780553896,29.489708739630828
129.0,70.14946146966813,89.9563236483253,0.9296967307593934,29.301591333627794
130.0,69.90212255858057,87.62146182925969,0.9288124437380249,29.111468666203695
131.0,69.65639220277139,85.31973480215457,0.9278902086436924,28.919525331073277
132.0,69.40980969401053,83.05321226554544,0.9269292144716241,28.72593451252661
133.0,69.16070613038293,80.82312875583698,0.9259286491340135,28.53085894879608
134.0,68.90799908995922,78.63013867791058,0.924887698540203,28.334451160265615
135.0,68.65094372178609,76.4745172696716,0.9238055491332196,28.136853639874815
136.0,68.3890758914154,74.356319197433,0.9226813852700926,27.938196791239264
137.0,68.12198917584166,72.27547134989551,0.9215143930684431,27.738608428554212
138.0,67.849434179627,70.23178627321455,0.9203037596414912,27.538199559739436
139.0,67.57119350705948,68.2251186821677,0.9190486710925698,27.337075482217198
140.0,67.28705445864423,66.25524824204773,0.9177483147387293,27.13534100443977
141.0,66.99684792703574,64.32184109390589,0.9164018845862242,26.933088815808993
142.0,66.70042838733262,62.42473092808547,0.9150085764628414,26.73040207314758
143.0,66.39765054268801,60.563759419727546,0.9135675861640267,26.527363758357406
144.0,66.08836433343704,58.73868129646152,0.912078110288177,26.324056140526153
145.0,65.77244234142273,56.94909748714879,0.910539359338847,26.1205531460784
146.0,65.44980319977383,55.19485683014796,0.9089505545796408,25.91692333179266
147.0,65.12036740496511,53.47582450332878,0.9073109175124061,25.713235167671534
148.0,64.7840534934885,51.791856551277206,0.9056196695117494,25.509557084326296
149.0,64.44076338578455,50.14254002360855,0.9038760408181571,25.305954957498702
150.0,64.0905422489952,48.5276158820438,0.9020792976336398,25.10249158744624
151.0,63.73348147457909,46.946958195144816,0.9002287134330571,24.899229749370104
152.0,63.36967245399475,45.400441031473456,0.8983235616912686,24.696232218471476
153.0,62.999199904741,43.88784560389425,0.8963631202464588,24.493561453298366
154.0,62.62231150332689,42.40877755255248,0.894346710980339,24.291278950901827
155.0,62.239448366245966,40.96306827355688,0.8922736812930028,24.089446612053194
156.0,61.851054243296744,39.55055290640944,0.8901433791729615,23.88812635723736
157.0,61.457683534775484,38.170912424844516,0.8879551793957969,23.68737987186088
158.0,61.060269274100605,36.82391640779958,0.8857085049886873,23.487269092711816
159.0,60.6598062054557,35.5093555858926,0.8834027865387217,23.28785600238409
160.0,60.25762170765366,34.22693278556916,0.8810374979270759,23.089202348540265
161.0,59.85542876504737,32.97643380857295,0.8786121488844415,22.89136995503687
162.0,59.45522128037872,31.757576960013786,0.8761262802125914,22.694420293997982
163.0,59.05958844756539,30.570125557968375,0.8735794817201685,22.49841457573378
164.0,58.67153813195969,29.413800690029294,0.8709713798617966,22.30341349796424
165.0,58.29486156780661,28.288372287245373,0.8683016549561401,22.10947722918958
166.0,57.9339355735605,27.193573705078723,0.8655700308589462,21.91666517824972
167.0,57.593990797211994,26.12916247723795,0.8627762855458025,21.725035946097123
168.0,57.28123511564616,25.09490671241064,0.8599202565101226,21.534647070685775
169.0,57.00278306631213,24.090587543639266,0.8570018355662682,21.34555504872685
170.0,56.7668402543305,23.116012380012016,0.8540209775620183,21.157815128008714
171.0,56.582764546574715,22.171026596489515,0.8509777035081153,20.9714811860953
172.0,56.461032519200515,21.255520271432946,0.8478721018968177,20.78660563682254
173.0,56.41321042814634,20.369446413214668,0.8447043305214332,20.603239374733413
174.0,56.45189265621232,19.512840064808234,0.8414746214407828,20.42143162759834
175.0,56.590542480611525,18.685846164069872,0.8381832828112916,20.24122991059643
176.0,56.84324355541802,17.888750004343347,0.8348307018698351,20.062679947461188
177.0,57.22433250499989,17.122014113229415,0.8314173471784148,19.885825615345937
178.0,57.74792653699987,16.38632541444757,0.8279437709852984,19.710708901396504
179.0,58.4273195476377,15.682649843706916,0.8244106114554522,19.537369866614473
180.0,59.274242731390125,15.012297069868424,0.8208185947382037,19.365846619287677
181.0,60.297994412783915,14.376993996768812,0.8171685368532421,19.19617529772108
182.0,61.50443633050419,13.778964680289148,0.8134613451149662,19.028390062015923
183.0,62.89498861640191,13.221044181242464,0.8096980216320087,18.86252308463948
184.0,64.46534621711285,12.706735769720646,0.8058796612466277,18.698604568775508
185.0,66.20452070508556,12.240339735827881,0.802007455308739,18.536662755018487
186.0,68.09381199316773,11.827021334592486,0.7980826907432207,18.3767239540712
187.0,70.10602118061679,11.47290021701415,0.7941067518131655,18.21881256039175
188.0,72.20499584287596,11.185097981374357,0.7900811201167592,18.062951091800485
189.0,74.34538791161916,10.971739136095948,0.786007374358075,17.909160219882146
190.0,76.47305158960664,10.841917287593805,0.7818871905736131,17.75745881635959
191.0,78.52571729879729,10.805570119371874,0.7777223411587315,17.607863999989327
192.0,80.43408301544065,10.873271959862288,0.7735146942717621,17.460391177934483
193.0,82.12357171148875,11.055923712716444,0.7692662131243507,17.315054095507588
194.0,83.51667547292953,11.364312251988824,0.7649789541398888,17.17186489522972
195.0,84.53607284158471,11.808541586553126,0.7606550652318336,17.030834169538583
196.0,85.10883062143704,12.397322056932506,0.7562967842768088,16.89197100989779
197.0,85.17160042963702,13.13714345167141,0.7519064367885991,16.755283069230575
198.0,84.6760839228937,14.03134720348547,0.7474864329995861,16.620776621283582
199.0,83.59427571082576,15.079129727494344,0.7430392652099524,16.488456613824532
200.0,81.92251181782858,16.27456820070934,0.7385675056707527,16.358326730673223
201.0,79.68240171232776,17.605722823870035,0.7340738016678968,16.23038944347247
202.0,76.9196504563388,19.054010061580186,0.7295608728958295,16.10464607809049
203.0,73.70017614041782,20.593843094701096,0.7250315071874892,15.981096865754404
204.0,70.10488572274353,22.192694436212612,0.7204885570136406,15.859741001201337
205.0,66.22402920327913,23.81165383814483,0.7159349346783529,15.740576699785299
206.0,62.15230489414223,25.40640074800619,0.7113736080338952,15.623601251136867
207.0,57.985035020576646,26.928586852338956,0.706807595896763,15.508811072920192
208.0,53.81544758220205,28.327589261913612,0.7022399631107524,15.396201764136695
209.0,49.73264514204267,29.552657144158548,0.6976738156003184,15.285768156806318
210.0,45.81965950968252,30.55560755086381,0.6931122953225255,15.177504365936647
211.0,42.15106319504568,31.294235733949616,0.688558575047321,15.071403837850836
212.0,38.78997234281658,31.736342558417466,0.6840158530217791,14.967459398291702
213.0,35.78485034438795,31.863837010653683,0.679487347591971,14.865663298528224
214.0,33.167024969544535,31.675931101437907,0.6749762920045262,14.766007259590806
215.0,30.950339546893357,31.19015267116451,0.6704859287656151,14.668482515876372
216.0,29.133431450867064,30.440536319002952,0.666019504533592,14.57307985634183
217.0,27.704808343821917,29.473061294532098,0.6615802642290625,14.479789665187381
218.0,26.648959272256793,28.339628906705165,0.6571714461144424,14.388601959595102
219.0,25.952196589705906,27.092031167402553,0.6527962763155823,14.299506428199981
220.0,25.60649860659373,25.777307214047244,0.648457963772411,14.212492466211698
221.0,25.610747427455035,24.435095208344976,0.644159694935044,14.12754920955861
222.0,25.969471878794753,23.09688734194096,0.6399046290372018,14.044665568620083
223.0,26.689846083672983,21.786612836886714,0.6356958929813157,13.96383025859145
224.0,27.77780378541245,20.522032927540867,0.631536576973495,13.885031830875922
225.0,29.2339788670406,19.31633327084136,0.6274297296362165,13.80825870064335
226.0,31.05016168382875,18.179767776207758,0.6233783540858538,13.733499175440153
227.0,33.206414879307864,17.121119519208325,0.6193854036547964,13.66074148080879
228.0,35.66895149047321,16.148990626930072,0.6154537776320657,13.589973784987654
229.0,38.389391920275536,15.272923153883719,0.6115863181036536,13.521184223194904
230.0,41.304737993468486,14.504215685942581,0.6077858060255523,13.454360919761074
231.0,44.3389571483001,13.85640368245199,0.6040549582525849,13.389492009652617
232.0,47.40569761090071,13.345220071677327,0.6003964243148057,13.326565658733042
233.0,50.412105717352766,12.98793973206613,0.5968127837156763,13.265570082917868
234.0,53.26318154307137,12.802163587165882,0.5933065434683286,13.206493566167385
235.0,55.865828065480734,12.804145284880248,0.5898801355837211,13.14932447775829
236.0,58.131915238135555,13.006897388192103,0.586535915108729,13.094051288329178
237.0,59.98055015826583,13.418377238695989,0.583276158367547,13.040662584839762
238.0,61.34021869655576,14.03992809920496,0.5801030611390895,12.989147085097622
239.0,62.151738832850036,14.865210030625493,0.5770187374142716,12.939493650995233
240.0,62.372813993445874,15.879707204391732,0.5740252181451954,12.891691300768949
241.0,61.98296396055816,17.060827933981727,0.571124450339535,12.84572922085129
242.0,60.987801134678314,18.378626687379185,0.5683182962862567,12.801596776704745
243.0,59.42076533592138,19.79710826461697,0.5656085328487588,12.759283523054547
244.0,57.34114701639247,21.27606182064282,0.5629968512490244,12.718779212916777
245.0,54.82889507546162,22.77323035856294,0.5604848567636311,12.68007380619954
246.0,51.97737634017718,24.24653718434244,0.5580740685202643,12.643157478059523
247.0,48.88594493174932,25.655907602026357,0.5557659197469171,12.608020625831312
248.0,45.65395373140258,26.964284589054508,0.5535617579540505,12.574653875487973
249.0,42.37690387013682,28.137808778085123,0.5514628450772131,12.543048088083024
250.0,39.14448741768816,29.14562823822827,0.5494703580629651,12.513194365026708
