Time,J,A,S,tau
0.0,100.0,100.0,0.8215507222835153,2.264737387458514
1.0,91.35175379313915,93.07822602747126,0.8240611738931811,2.1870409019371864
2.0,83.45404180360669,86.64631224910484,0.8265356936843482,2.1106902106909047
3.0,76.24427862730826,80.67136384971796,0.8267063700372403,2.105437689692801
4.0,69.66209420589067,75.12020977743276,0.826616269593342,2.1082194250377206
5.0,63.65258019630179,69.9621753241103,0.8265246079123928,2.1110502406328906
6.0,58.165599870999564,65.16880983515304,0.8264314026694894,2.1139295983197366
7.0,53.15550666005331,60.713777589549224,0.8263366717382558,2.1168569494458263
8.0,48.580676528531825,56.57266497682329,0.8262404331806263,2.1198317349685145
9.0,44.40327379564522,52.72288646464885,0.826142705238832,2.1228533854328187
10.0,40.588972635284904,49.143568554630804,0.8260435063245278,2.125921321112656
11.0,37.10670044407688,45.81544972098769,0.8259428550096354,2.1290349520530674
12.0,33.92855436951245,42.72087081005812,0.8258407700172028,2.1321936781064044
13.0,31.029615909519432,39.843742834216066,0.8257372702106756,2.135396889082481
14.0,28.387862213857968,37.16959996159109,0.825632374585282,2.1386439647518922
15.0,25.98408162977064,34.68570136382018,0.8255261022579308,2.141934274963899
16.0,23.801691295335935,32.381148935235814,0.825418472457557,2.145267179744857
17.0,21.826506070094567,30.24705200358975,0.8253095045162355,2.14864202933513
18.0,20.046367199245488,28.276672418983384,0.8251992178595317,2.152058164311135
19.0,18.450586050771523,26.465512518559464,0.8250876319974654,2.155514915670786
20.0,17.02914339944208,24.81127153214702,0.8249747665156297,2.1590116049313792
21.0,15.771711839165652,23.313616539669813,0.8248606410667864,2.1625475441950206
22.0,14.666626116233973,21.973672326871267,0.8247452753625221,2.1661220362378275
23.0,13.69990564072124,20.793159329470644,0.8246286891651318,2.1697343746394764
24.0,12.854656102585238,19.77320679269,0.8245109022802402,2.173383843860365
25.0,12.111363900115624,18.91294164337758,0.824391934549872,2.177069719286685
26.0,11.448943703692409,18.208079539186556,0.8242718058457196,2.1807912673813465
27.0,10.846770856215647,17.649846997024436,0.8241505360633249,2.1845477457142284
28.0,10.28686769203495,17.22462086403917,0.824028145116715,2.188338403069723
29.0,9.755829997755555,16.9145059026386,0.8239046529337813,2.192162479524768
30.0,9.245685076364124,16.698797701466688,0.8237800794524756,2.1960192064916724
31.0,8.75350221507084,16.55602798838736,0.8236544446177897,2.1999078068156295
32.0,8.280094393151131,16.46603271300563,0.8235277683796483,2.20382749481251
33.0,7.828231975905466,16.41156335650494,0.823400070691846,2.2077774763116516
34.0,7.401086251782628,16.379123254360938,0.8232713715119515,2.2117569487287563
35.0,7.00115066703752,16.359076298123192,0.8231416908024283,2.2157651010416592
36.0,6.629763632854513,16.345149156407594,0.8230110485328914,2.219801113854151
37.0,6.287072902448169,16.33367837759142,0.822879464683693,2.223864159400533
38.0,5.972265400843302,16.322822107052403,0.8227469592509488,2.227953401454075
39.0,5.683881570716455,16.311857287437,0.8226135522529151,2.232067995422259
40.0,5.420104132740105,16.300685141844333,0.8224792637379871,2.2362070882472085
41.0,5.17898846274142,16.289491782298374,0.8223441137939462,2.240369818380858
42.0,4.958602531120561,16.278549584486502,0.8222081225598348,2.2445553156549076
43.0,4.757122639163715,16.268116324605572,0.8220713102385138,2.2487627012273466
44.0,4.5728694378363945,16.258395218650584,0.8219336971116699,2.2529910874568313
45.0,4.404318651691911,16.249528121642825,0.8217953035566157,2.257239577764805
46.0,4.250095411966352,16.24160431736241,0.8216561500650827,2.2615072664743523
47.0,4.108961090969853,16.23467414885688,0.821516257264071,2.2657932386246924
48.0,3.9797977206145716,16.228762112853385,0.8213756459387347,2.270096569764242
49.0,3.8615928028712974,16.223877187782715,0.821234337057914,2.2744163256964147
50.0,3.7534284806555833,16.220020133835437,0.8210923518008673,2.2787515622422965
51.0,3.6544679252402825,16.217187879616255,0.8209497115873282,2.283101324929521
52.0,3.5639456189857595,16.215375955717786,0.8208064381089293,2.2874646486894235
53.0,3.48116563509696,16.214579845180058,0.8206625533644825,2.2918405574687775
54.0,3.4054887463993424,16.214795064103072,0.8205180796963919,2.296228063862838
55.0,3.336328621825301,16.21601715505504,0.8203730398281728,2.30062616874558
56.0,3.273149618613106,16.2182415357927,0.8202274569103327,2.30503386070428
57.0,3.21546003250627,16.22146317299079,0.8200813545569496,2.3094501157599745
58.0,3.162809303757846,16.225676402168798,0.8199347568932159,2.313873896802858
59.0,3.114785028099538,16.230874762309167,0.8197876886053325,2.318304153019073
60.0,3.07101186993306,16.237050981341277,0.8196401750035801,2.3227398190596307
61.0,3.031141218335872,16.244196595912193,0.8194922420544368,2.327179814920952
62.0,2.994852041090939,16.252302099480826,0.8193439164281859,2.331623045429463
63.0,2.9618606681862296,16.261357549504314,0.8191952255900874,2.336068398892316
64.0,2.9318969044202543,16.271351380799516,0.8190461978484822,2.340514746672658
65.0,2.904710182925134,16.282270952697516,0.8188968623619617,2.344960943498251
66.0,2.880086001217352,16.294103557030834,0.818747249281052,2.349405825217813
67.0,2.8578121343253056,16.306834494070067,0.8185973897904624,2.3538482085045573
68.0,2.8376953743276068,16.320448382083928,0.8184473160527117,2.358286892233274
69.0,2.819571988078854,16.334929602046554,0.8182970615427574,2.362720651975771
70.0,2.803270752708234,16.350260357926217,0.8181466607796739,2.3671482450719656
71.0,2.7886550930969336,16.366423371896865,0.8179961496409235,2.3715684055472828
72.0,2.775576618441971,16.383398720309327,0.8178455653686679,2.3759798444210327
73.0,2.763925917862809,16.401167751226094,0.8176949464940517,2.3803812512672953
74.0,2.7535713081960584,16.419708446342838,0.8175443331822991,2.3847712888740036
75.0,2.7444275524297583,16.439000823088556,0.8173937669701951,2.389148597837541
76.0,2.7363726107088375,16.459020661181025,0.8172432910462951,2.3935117923066667
77.0,2.7293461082859367,16.479746733246092,0.8170929504653531,2.397859457015198
78.0,2.7232564077197243,16.501154511666446,0.8169427915707718,2.402190156502461
79.0,2.7180153556147206,16.52321838008704,0.8167928626790865,2.406502424675623
80.0,2.7135507229497686,16.545912335433812,0.8166432140379714,2.4107947659009583
81.0,2.7098099982965005,16.56921087496338,0.8164938976157864,2.415065658433631
82.0,2.7067240678336453,16.59308629745445,0.8163449672898369,2.4193135517624067
83.0,2.7042287081994276,16.61751022941407,0.8161964788051915,2.423536867493373
84.0,2.7022829366597985,16.642454781695317,0.8160484902814698,2.4277339922144607
85.0,2.7008391760369963,16.667890912848105,0.8159010613578525,2.431903290254178
86.0,2.699846362506103,16.693788395610547,0.8157542539128934,2.436043093387553
87.0,2.6992554676752314,16.720116196008114,0.8156081317769293,2.440151705333888
88.0,2.699040035224711,16.746843965168257,0.8154627612877489,2.4442273941804276
89.0,2.6991632465360342,16.773940132343846,0.8153182102003008,2.448268408063427
90.0,2.699585937753422,16.801372186182014,0.8151745486686863,2.4522729616293613
91.0,2.700270362083602,16.829107019804617,0.8150318485777138,2.4562392456401705
92.0,2.701191612420408,16.857111546474943,0.814890184617013,2.4601654128868944
93.0,2.702329845755092,16.885352735990118,0.814749632655925,2.4640496003328685
94.0,2.703651986526097,16.91379614638764,0.8146102707613878,2.4678899159848995
95.0,2.7051326223848497,16.94240730349253,0.8144721789446608,2.4716844426742712
96.0,2.7067486039778688,16.97115136186894,0.8143354390323642,2.4754312402759076
97.0,2.7084781724935985,16.9999932252352,0.8142001346117587,2.4791283469385053
98.0,2.710300650350967,17.02889753589592,0.8140663509645912,2.482773780540634
99.0,2.7121966462511784,17.05782872527463,0.8139341749655218,2.48636554060115
100.0,2.7141478598342665,17.08675104161642,0.8138036949847836,2.489901610193938
101.0,2.7161370284359325,17.115628591447262,0.8136750007761436,2.493379958081851
102.0,2.7181478674515454,17.144425378841937,0.813548183358119,2.496798540990136
103.0,2.7201649857918833,17.17310534477732,0.8134233348794063,2.5001553061042614
104.0,2.7221738404627693,17.20163241314033,0.8133005484761163,2.503448193713107
105.0,2.7241606934434923,17.229970535942936,0.8131799181198587,2.5066751400058713
106.0,2.7261125631290932,17.258083738340005,0.8130615384568024,2.5098340800272796
107.0,2.728017246447932,17.28593617203219,0.8129455046368317,2.51292295079309
108.0,2.729863201722542,17.31349215237599,0.8128319121338287,2.5159396945649304
109.0,2.731639542496568,17.34071620900152,0.812720856556695,2.5188822622534817
110.0,2.7333360111636313,17.36757313343276,0.8126124334536123,2.5217486169437104
111.0,2.7349429612320506,17.394028028089913,0.8125067381090483,2.524536737546883
112.0,2.7364513401084807,17.42004635485379,0.8124038653344147,2.527244622552708
113.0,2.7378526609246006,17.445593982773257,0.8123039092527022,2.5298702938868214
114.0,2.739139053161989,17.470637243891822,0.8122069630783672,2.532411800842987
115.0,2.7403031735613,17.49514297446093,0.8121131188915129,2.5348672241218324
116.0,2.7413381838483426,17.519078562736865,0.8120224674104485,2.537234679876261
117.0,2.742237759144246,17.542411999501837,0.8119350977622322,2.5395123237922155
118.0,2.7429960876153183,17.565111927766477,0.8118510972512788,2.5416983552052104
119.0,2.7436078601672844,17.587147690592825,0.8117705511281244,2.543791021208389
120.0,2.744068257846409,17.608489378613406,0.8116935423582514,2.5457886207603817
121.0,2.7443729585012604,17.629107878597647,0.8116201513934849,2.547689508741992
122.0,2.744518130729135,17.648974920289227,0.8115504559454687,2.5494920999779453
123.0,2.7445004878875907,17.66806312887898,0.8114845307626383,2.551194873197084
124.0,2.7443171341053043,17.686346055026238,0.8114224474118729,2.552796374906459
125.0,2.743965647034041,17.703798228015053,0.8113642740689495,2.5542952231031646
126.0,2.743444054153983,17.720395196757888,0.8113100753151031,2.555690110881437
127.0,2.742750843038354,17.736113573892617,0.8112599119407674,2.5569798099160668
128.0,2.741884952302678,17.750931075799,0.8112138407601134,2.5581631737500463
129.0,2.740845756458727,17.764826561602078,0.8111719144336578,2.559239140945675
130.0,2.739633085375213,17.777780073357853,0.8111341813046427,2.5602067379855935
131.0,2.7382471758780453,17.789772868605677,0.8111006852444925,2.561065082020759
132.0,2.736688727860367,17.80078746133997,0.8110714655142873,2.561813383328733
133.0,2.734958862010097,17.81080765155486,0.8110465566368618,2.5624509475910355
134.0,2.7330591244412505,17.819818558168112,0.81102598828454,2.5629771778915567
135.0,2.730991396597389,17.827806639159,0.8110097851826324,2.563391576433991
136.0,2.7287579955027597,17.834759730444908,0.8109979670282732,2.563693745991374
137.0,2.726361585351943,17.84066706192743,0.8109905484255658,2.563883391064741
138.0,2.723805233744165,17.845519288174625,0.8109875388350789,2.5639603187948365
139.0,2.7210923492080488,17.849308502387448,0.8109889425433017,2.563924439512285
140.0,2.7182267058385845,17.852028259564825,0.8109947586444441,2.563775767081109
141.0,2.7152124121211054,17.85367358880498,0.8110049810448151,2.563514418829831
142.0,2.712053900356402,17.854241008171968,0.8110195984775247,2.563140615315611
143.0,2.7087559287554894,17.85372853540142,0.8110385945416024,2.562654679639626
144.0,2.705323535646021,17.852135694145083,0.8110619477494392,2.562057036634161
145.0,2.701762073267726,17.849463522784998,0.8110896315997129,2.561348211578695
146.0,2.6980771304956472,17.845714572222242,0.811121614656616,2.560528828826416
147.0,2.694274592966482,17.840892912108597,0.8111578606549629,2.559599609949449
148.0,2.690360542242351,17.83500412089103,0.8111983286094738,2.558561371835118
149.0,2.6863413323759895,17.8280552883033,0.8112429729497924,2.5574150242998885
150.0,2.682223478700035,17.820054999035236,0.8112917436574092,2.5561615676980143
151.0,2.6780137349044066,17.811013329711443,0.8113445864276948,2.5548020900544524
152.0,2.6737189919181086,17.80094182839976,0.8114014428315083,2.5533377642379755
153.0,2.669346331003505,17.789853503430308,0.8114622505007282,2.55176984467433
154.0,2.664902963491474,17.777762802173502,0.81152694331127,2.5500996641409612
155.0,2.6603962232586897,17.764685587890487,0.8115954515879211,2.548328630134062
156.0,2.6558335922475376,17.7506391225425,0.8116677023054488,2.5464582213413687
157.0,2.6512225804143377,17.735642026502564,0.8117436193077909,2.5444899837514874
158.0,2.646570898100274,17.719714271644882,0.8118231235241274,2.5424255268545726
159.0,2.641886155690291,17.702877117505356,0.8119061331966873,2.540266519599522
160.0,2.637176202310828,17.685153116241306,0.8119925641085324,2.5380146863707362
161.0,2.632448499099013,17.66656601265002,0.8120823298113407,2.535671802974376
162.0,2.627710938928535,17.647140793240407,0.8121753418640459,2.5332396923871983
163.0,2.6229711927953474,17.62690357961926,0.8122715100624652,2.5307202207113293
164.0,2.6182371072053985,17.605881626706555,0.8123707426793483,2.528115292864186
165.0,2.613516477087872,17.58410325872809,0.8124729466906243,2.525426848600349
166.0,2.6088169941023374,17.561597815434453,0.8125780280094007,2.522656858281406
167.0,2.6041464852026235,17.53839563213268,0.8126858917072212,2.5198073189520183
168.0,2.5995118141228803,17.514527883555964,0.8127964422333088,2.516880250511912
169.0,2.5949202614967284,17.49002668202982,0.8129095836369015,2.5138776917430383
170.0,2.59037959315213,17.464925006266224,0.813025219778049,2.510801696243055
171.0,2.585897403493138,17.439256614259985,0.8131432545243993,2.5076543291565265
172.0,2.581480747841756,17.413055950406537,0.813263591956046,2.5044376635023253
173.0,2.5771365404906033,17.386358113356895,0.8133861365454376,2.5011537766895713
174.0,2.572871776118128,17.359198824123823,0.8135107933361347,2.4978047473695155
175.0,2.568692778641603,17.331614304644184,0.8136374681199382,2.4943926522577238
176.0,2.564606175104529,17.3036413281882,0.8137660675992143,2.4909195631424748
177.0,2.560618499374365,17.275317113356074,0.8138964995300993,2.4873875441309754
178.0,2.5567360587054484,17.246679257967653,0.8140286728617444,2.4837986490603
179.0,2.5529649128366203,17.21776567958753,0.8141624978641665,2.480154919082831
180.0,2.549310835439146,17.188614555854496,0.8142978862564824,2.476458380291418
181.0,2.545779510799436,17.15926428958665,0.8144347513223033,2.4727110415280618
182.0,2.5423765247468215,17.12975345080792,0.8145730079939381,2.46891489260886
183.0,2.539107222163181,17.10012070589588,0.8147125729415603,2.4650719025568364
184.0,2.535976715343656,17.070404764588123,0.8148533646479034,2.461184018055568
185.0,2.5329898938323856,17.040644327116116,0.8149953034766704,2.457253162019351
186.0,2.5301514775945964,17.010878034727256,0.8151383117388182,2.4532812322156152
187.0,2.5274660218923817,16.98114441916733,0.8152823137367141,2.4492701002086403
188.0,2.52493786128174,16.951481844383565,0.81542723579402,2.4452216105238285
189.0,2.5225710856710184,16.921928454324288,0.8155730062778174,2.441137579951983
190.0,2.520369568146207,16.892522125275715,0.8157195556256097,2.437019796808445
191.0,2.5183370470664403,16.863300426002738,0.8158668163512667,2.4328700205010994
192.0,2.5164769423562787,16.834300551758524,0.816014723051573,2.4286899811069547
193.0,2.514792664719572,16.805559308385696,0.8161632124008812,2.4244813791313855
194.0,2.5132872090816205,16.777113028124113,0.8163122231303866,2.4202458855028923
195.0,2.511963507682128,16.74899756140804,0.816461696014396,2.415985141480253
196.0,2.510824168465268,16.72124820895133,0.8166115738374218,2.4117007588476675
197.0,2.509871701668327,16.693899704311665,0.8167618013683624,2.4073943200153742
198.0,2.5091083334565996,16.666986156158124,0.8169123253171993,2.40306737838502
199.0,2.5085361685026015,16.640541027523813,0.8170630942972004,2.3987214586395504
200.0,2.508157047484914,16.61459708550718,0.8172140587738056,2.3943580572378007
201.0,2.5079726846066173,16.589186381196885,0.8173651710172544,2.3899786428566063
202.0,2.5079845376351786,16.564340203643344,0.8175163850453021,2.3855846569874783
203.0,2.508193944208243,16.540089063047272,0.8176676565685084,2.3811775144963074
204.0,2.5086019861083395,16.516462647005167,0.8178189429283941,2.376758604296013
205.0,2.509209636892632,16.493489808365815,0.8179702030373782,2.3723292899931683
206.0,2.510017597575122,16.471198521218533,0.8181213973139732,2.367890910611176
207.0,2.5110264448995174,16.449615872149387,0.8182724876193267,2.363444781293614
208.0,2.5122365338748343,16.42876802584474,0.8184234371912134,2.3589921940498386
209.0,2.5136481048650423,16.408680215565045,0.8185742105780957,2.3545344185021397
210.0,2.5152611857996345,16.389376711503033,0.8187247735729747,2.350072702637912
211.0,2.5170756659775884,16.37088081062335,0.8188750931471537,2.345608273567111
212.0,2.519091255782056,16.3532148139898,0.8190251373850748,2.341142338263936
213.0,2.521307504237205,16.336400013161324,0.8191748754191067,2.3366760843147114
214.0,2.5237238113695115,16.320456676118766,0.8193242773661952,2.3322106806373766
215.0,2.5263393972082797,16.30540403063573,0.8194733142649083,2.3277472782011372
216.0,2.5291533347265274,16.291260255377367,0.819621958014628,2.323287010713937
217.0,2.5321644023483385,16.278042452280243,0.8197701813160843,2.3188309952934723
218.0,2.5353713472362815,16.265766664542294,0.8199179576139652,2.3143803331079327
219.0,2.538772761515216,16.254447854599565,0.8200652610404988,2.309936110011692
220.0,2.542367100870342,16.244099898770358,0.8202120663615955,2.30549939714428
221.0,2.546152667253838,16.2347355780644,0.8203583489252936,2.301071251497386
222.0,2.5501276122244323,16.226366572878664,0.8205040846122922,2.2966527164562702
223.0,2.554289947002028,16.21900345890743,0.8206492497889339,2.292244822307257
224.0,2.558637443456252,16.21265569217268,0.8207938212624372,2.2878485867173834
225.0,2.563167678260477,16.20733160952001,0.8209377762388665,2.2834650151710454
226.0,2.567878206994876,16.203038445247614,0.8210810922829154,2.279095101392371
227.0,2.5727664464532998,16.199782317414282,0.8212237472801486,2.274739827738303
228.0,2.5778296670291887,16.197568225906327,0.821365719401897,2.2704001655539976
229.0,2.583064997586995,16.19640005272038,0.8215069870725535,2.266077075497732
230.0,2.5884694170773344,16.196280561412326,0.8216475289392219,2.261771507836977
231.0,2.5940397264138664,16.197211394989182,0.8217873238437213,2.257484402714636
232.0,2.5997724473358743,16.199193065546368,0.8219263507969435,2.253216690382475
233.0,2.6056641253002546,16.202224990056052,0.8220645889552936,2.248969291411956
234.0,2.6117111653473053,16.20630547585188,0.8222020175992699,2.244743116887692
235.0,2.6179098373110623,16.211431724946824,0.8223386161142809,2.2405390685695283
236.0,2.624256269980753,16.217599837183833,0.8224743639735346,2.2363580390278934
237.0,2.630746436099007,16.224804813333073,0.822609240722871,2.232200911760424
238.0,2.63737619308845,16.23304056475034,0.8227432259675215,2.2280685612825053
239.0,2.6441411776689057,16.242299907099977,0.8228762993606686,2.2239618532028933
240.0,2.6510368633081054,16.25257457282554,0.8230084405937645,2.219881644272469
241.0,2.6580586465294216,16.26385522756871,0.8231396293884634,2.2158287824218323
242.0,2.665201841891288,16.276131478165276,0.8232698454901507,2.2118041067863863
243.0,2.6724615911533607,16.28939186972176,0.8233990686629938,2.2078084477099056
244.0,2.6798329193597294,16.30362390124138,0.8235272786863735,2.2038426267392226
245.0,2.6873107152103506,16.318814032078816,0.8236544553526608,2.199907456598314
246.0,2.694889715514315,16.33494769042072,0.8237805784662171,2.1960037411616646
247.0,2.702564566331493,16.352009290579222,0.8239056278435668,2.1921322754043797
248.0,2.710329721585715,16.369982232565793,0.8240295833146433,2.1882938453581575
249.0,2.718179595681415,16.388848931683157,0.8241524247250427,2.1844892280426325
