Time,J,A,S,tau
0.0,100.0,100.0,0.8578369668815378,21.301804725583246
1.0,97.11271732714573,93.7077561469477,0.8420082739630979,20.81862076534501
2.0,94.26951963433409,87.77661180229602,0.8261651838442212,20.329492922644427
3.0,91.47381192381079,82.19185666636052,0.8103351216793893,19.834887427713195
4.0,88.72708315390207,76.93601238306955,0.7945340520176908,19.33496089919888
5.0,86.03078996213274,71.99224134773056,0.7787776828623311,18.829873152540433
6.0,83.38644268758665,67.34435545896972,0.7630814177696149,18.319787117043255
7.0,80.79575656972419,62.97680990087976,0.747460309682436,17.804868753950174
8.0,78.26089728290523,58.87469465864169,0.7319290168314005,17.285286972693797
9.0,75.78484091729199,55.023713330642266,0.7165017613566923,16.761213538307334
10.0,73.37186270463162,51.41017731286275,0.7011922912198814,16.232822978509837
11.0,71.02814070986916,48.02099337052037,0.6860138449227462,15.700292488023667
12.0,68.76243203806112,44.843650064091925,0.6709791194061399,15.163801829792613
13.0,66.5867466058952,41.866203488249695,0.6561002412679685,14.623533233247485
14.0,64.51694132384098,39.07727142987648,0.6413887406988558,14.079671295822672
15.0,62.5730409499777,36.466023703610446,0.6385336956984765,14.011279268435391
16.0,60.77921032678357,34.022089569170944,0.6363861913199959,13.970110961324256
17.0,59.16352238250995,31.735673691891602,0.6343257145833564,13.93088328768364
18.0,57.75703120226285,29.59748215401302,0.632353691477323,13.893585839832703
19.0,56.59254960255602,27.59875427892749,0.6304714690287906,13.858208450434864
20.0,55.70303669397862,25.731313812808942,0.6286803147403597,13.824741198307153
21.0,55.11969040484415,23.987660085769868,0.6269814161415032,13.793174414017887
22.0,54.869870846968865,22.361124982668436,0.62537588038865,13.76349868488378
23.0,54.974941522571385,20.846103897036247,0.6238647339683376,13.735704859369175
24.0,55.44802718794886,19.438345436177276,0.6224489227219111,13.709784051612097
25.0,56.29199714583481,18.135303983855927,0.6211293119820746,13.685727643649807
26.0,57.49795822888453,16.936692311078062,0.6199066828853868,13.663527288966701
27.0,59.04302715921151,15.844478400171983,0.6187817393859104,13.643174911968769
28.0,60.889657080737855,14.863346166535992,0.6177551028445382,13.62466271484573
29.0,62.985451722095526,14.000625803001114,0.6168273145366224,13.607983175373237
30.0,65.26416589711705,13.266140502865369,0.6159988347718902,13.593129048710681
31.0,67.64780027214327,12.671711503874613,0.615270043955437,13.580093366098048
32.0,70.04942863796855,12.230448719878158,0.614641242657894,13.568869436474378
33.0,72.37658460911305,11.955845067308896,0.6141126519360387,13.559450845368962
34.0,74.53415662119691,11.860727784210823,0.6136844139766572,13.551831453864338
35.0,76.42668740225793,11.956186601739002,0.6133565922915473,13.54600539677769
36.0,77.95980246813562,12.250488007231555,0.6131291723928497,13.541967081932862
37.0,79.042361462539,12.748127038582188,0.6130020622950022,13.539711186514175
38.0,79.59003680885422,13.448939213280623,0.6129750929317136,13.53923265633284
39.0,79.53146920561628,14.34743496567969,0.6130480190728862,13.540526701023158
40.0,78.8164774393664,15.432202775298462,0.6132205194017555,13.543588792701877
41.0,77.42388057956744,16.68568050347389,0.6134921976258875,13.54841466034844
42.0,75.36680806517553,18.084134944040496,0.6138625829284838,13.555000287707875
43.0,72.69318182894129,19.598125127385725,0.6143311307936544,13.563341907954486
44.0,69.48106789211364,21.193389417255865,0.6148972234942868,13.573435999783737
45.0,65.82993499584435,22.83215578379644,0.6155601711063308,13.585279281933405
46.0,61.850551873191414,24.474595740475234,0.616319212108795,13.598868708009505
47.0,57.65577723315378,26.08012418499989,0.6171735142033369,13.614201461616487
48.0,53.354027573570875,27.608224027642052,0.6181221753474209,13.631274949848436
49.0,49.04574675894576,29.018752650419458,0.619164224458665,13.650086797298954
50.0,44.82219963591227,30.272104058407578,0.6202986223956263,13.670634840200961
51.0,40.76522880316793,31.32987161011426,0.6215242630924779,13.692917119076792
52.0,36.94656749590978,32.156647444943694,0.6228399744035237,13.71693187195198
53.0,33.42609278689727,32.72315606867897,0.6242445192689697,13.742677527537445
54.0,30.24927415028161,33.010058472762815,0.6257365970038642,13.770152697123871
55.0,27.44471752572861,33.01137215530638,0.627314844280891,13.799356167098948
56.0,25.023242279929686,32.736162882034336,0.6289778366535057,13.83028689121372
57.0,22.978980544077505,32.207828455033585,0.6307240894186983,13.862943980451027
58.0,21.292970091844616,31.461081373465994,0.6325520597269553,13.897326697047491
59.0,19.937836621635203,30.53748969216356,0.6344601477046461,13.933434444102438
60.0,18.882847340357337,29.48074946484201,0.6364466980212389,13.971266756761587
61.0,18.09821305551201,28.33267209701015,0.6385100015681848,14.010823292974253
62.0,17.558008554458223,27.13048598133807,0.6406482972907563,14.052103823458609
63.0,17.241689460976918,25.90545930733998,0.6428597738239147,14.095108222164134
64.0,17.134351951230137,24.682659411316934,0.6451425715629231,14.139836456305673
65.0,17.22617710683004,23.481410826158445,0.6474947845619662,14.186288575318718
66.0,17.511368493250593,22.316129564776446,0.6499144626690005,14.23446470105471
67.0,17.98689650018825,21.197268590102457,0.6523996135309741,14.284365016548946
68.0,18.65117580465422,20.13226038488788,0.6549482050162728,14.33598975470974
69.0,19.502797282454512,19.12633572591694,0.6575581674552665,14.389339187360061
70.0,20.539355673975425,18.18323073909669,0.6602273960065218,14.444413613549601
71.0,21.756387870189446,17.305775581226214,0.6629537529982811,14.501213347319773
72.0,23.146414233236733,16.496352591556402,0.6657350710104687,14.559738706534285
73.0,24.698048228310864,15.757245391204975,0.6685691548490473,14.619990000675395
74.0,26.395390206172085,15.090895344847821,0.6714537846425824,14.681967518082912
75.0,28.217453080556787,14.500056131485653,0.6743867183918419,14.74567151362169
76.0,30.137864549208558,13.987867019711793,0.6773656948056664,14.811102195649841
77.0,32.12480868635307,13.557850397303154,0.6803884361595746,14.878259712721468
78.0,34.14116048381945,13.213831118281943,0.6834526512079437,14.947144141315663
79.0,36.144940164184774,12.959813261857978,0.6865560380378931,15.017755471820394
80.0,38.09014877182591,12.79981439414187,0.6896962871006812,15.090093595212098
81.0,39.92775914108044,12.737657289194617,0.6928710840992759,15.164158289624192
82.0,41.60724554354679,12.776759010838884,0.6960781130497657,15.23994920616016
83.0,43.07827980454691,12.919895445718897,0.6993150591787102,15.317465855650095
84.0,44.29299311593893,13.168977394273897,0.7025796120069068,15.396707593699322
85.0,45.20833530504103,13.524824390497999,0.7058694681953521,15.477673607773239
86.0,45.78878727219037,13.986945602207811,0.7091823346132146,15.560362901584158
87.0,46.00877293306356,14.553343102660008,0.712515931142781,15.644774282272301
88.0,45.854722053858666,15.22031202220238,0.7158679935968028,15.730906344872276
89.0,45.32630758059562,15.982285324234198,0.7192362767308211,15.818757458063333
90.0,44.43640245651896,16.83168789238037,0.7226185568135024,15.908325750400175
91.0,43.21001711709466,17.75883195090073,0.7260126343323797,15.999609095112856
92.0,41.682229284992665,18.751884444801576,0.729416336714309,16.09260509663748
93.0,39.89548090732236,19.79687938245992,0.7328275207524458,16.187311076114984
94.0,37.896724874124246,20.877805211869422,0.736244075354021,16.283724055546916
95.0,35.73475954079144,21.976796360709475,0.7396639237418905,16.381840745575825
96.0,33.45812589379209,23.074401459213007,0.7430850256811017,16.48165753068104
97.0,31.11358845121113,24.149949019854866,0.746505379941504,16.583170454154857
98.0,28.74520508977911,25.182031449306617,0.7499230259950492,16.68637520685436
99.0,26.39375127992047,26.149092631131946,0.7533360462650417,16.79126711086953
100.0,24.09638041541042,27.030135344804002,0.7567425678923361,16.89784110804512
101.0,21.886328261248313,27.805539946387647,0.7601407642332624,17.006091747280895
102.0,19.792515734952776,28.457977578676765,0.7635288568616726,17.116013169608784
103.0,17.83914053321357,28.973313549740354,0.7669051165976047,17.2275990992775
104.0,16.045179326669324,29.341484110105547,0.7702678650441034,17.340842829242558
105.0,14.423992557405144,29.55716289048591,0.7736154758657886,17.455737210742758
106.0,12.983178318788832,29.620114913052053,0.7769463753589838,17.572274644422695
107.0,11.724651454970736,29.53523627627532,0.7802590439183393,17.690447065540706
108.0,10.645148530062464,29.312085151658636,0.7835520171817211,17.810245941216092
109.0,9.737179494293152,28.964115772565204,0.7868238853525573,17.931662255002593
110.0,8.990127409884277,28.50758817964002,0.7900732946275367,18.054686504468815
111.0,8.391571330396529,27.960379099983182,0.7932989473907276,18.17930869095323
112.0,7.928596781573884,27.340793471442588,0.7964996025336397,18.305518315362946
113.0,7.58898165522406,26.66653503364487,0.7996740754565467,18.43330437231857
114.0,7.362136246297873,25.953917673067007,0.8028212380917064,18.56265534797457
115.0,7.239777448826903,25.217346173454594,0.8059400187991138,18.693559215830785
116.0,7.2163006515928085,24.469071930484695,0.8090294019615156,18.826003438375164
117.0,7.288925258824445,23.71915224936405,0.8120884277724908,18.959974965195826
118.0,7.457634686604285,22.975577927149846,0.8151161919318897,19.095460236245085
119.0,7.724956554845199,22.244511438848484,0.8181118446723384,19.23244518775977
120.0,8.09567759165616,21.530553410039253,0.8210745903472257,19.37091525553698
121.0,8.576478517558,20.837034603696566,0.8240036862789726,19.510855386289254
122.0,9.175571932394936,20.166274421210094,0.8268984423413047,19.652250043940683
123.0,9.90231302931208,19.51982530669143,0.8297582198696289,19.795083225409673
124.0,10.766804188027969,18.898676909998944,0.8325824303610319,19.939338476251773
125.0,11.779514270040957,18.303422918008962,0.8353705347739983,20.084998905725914
126.0,12.950895495149986,17.734403840596634,0.8381220420639176,20.23204721096466
127.0,14.29099542238729,17.19182020838585,0.8408365079154149,20.3804656992549
128.0,15.809080080762604,16.675827749135113,0.8435135337199866,20.530236314449574
129.0,17.513260574060006,16.18661760101744,0.8461527649476991,20.68134066938887
130.0,19.410118909629325,15.724483559138637,0.8487538898263163,20.833760078690425
131.0,21.50434360674521,15.289881441547243,0.8513166379867597,20.98747559598267
132.0,23.7983921857445,14.883478571061177,0.8538407787230171,21.142468055546573
133.0,26.29220582711725,14.506205218245555,0.8563261201937399,21.298718121652414
134.0,28.982839273127908,14.159292920893387,0.858772507789427,21.456206333409977
135.0,31.864370560379072,13.844290655374337,0.8611798211931861,21.614913160833193
136.0,34.92760000480892,13.563104096697247,0.8635479744622128,21.77481905973259
137.0,38.16005703670634,13.318005926184982,0.8658769138601496,21.935904538234517
138.0,41.54592058109246,13.111641406190335,0.8681666163639009,22.098150219348565
139.0,45.06614314934074,12.947026704522624,0.8704170881544803,22.261536914709342
140.0,48.69859342801664,12.827535905687693,0.8726283630704101,22.426045698350165
141.0,52.41828621176176,12.756879122428913,0.8748005010948943,22.591657985515287
142.0,56.19767009098642,12.739071168884383,0.8769335868637043,22.75835561521782
143.0,60.00695527441957,12.778391707032668,0.8790277281985828,22.926120936249056
144.0,63.814466450496795,12.879336726248166,0.8810830546708378,23.09493689626291
145.0,67.58701030831564,13.046562296845927,0.8830997161996733,23.264787133468843
146.0,71.29025673752797,13.284821021777859,0.8850778816896573,23.43565607036786
147.0,74.88914280734272,13.598891912586105,0.8870177377115822,23.607529008859412
148.0,78.34831715813326,13.993504450796868,0.8889194872308042,23.78039222593221
149.0,81.63264616230211,14.473257673817805,0.8907833483869707,23.954233069030444
150.0,84.70779971955322,15.042535200048892,0.8926095533288476,24.129040050058894
151.0,87.54092310470985,15.705417195637501,0.8943983471077355,24.304802936857783
152.0,90.10138337913568,16.465590348105902,0.8961499866327234,24.48151284084198
153.0,92.36155786408992,17.326257130824665,0.8978647396907519,24.659162299361853
154.0,94.2975981634092,18.290045545962155,0.8995428840118258,24.837745348143294
155.0,95.89016486142293,19.358921686339656,0.901184706467538,25.017257592746883
156.0,97.1249775685549,20.53410526482416,0.9027905022754089,25.197696261815057
157.0,97.99321742441278,21.815986030574244,0.9043605743347176,25.379060259750915
158.0,98.49166730370142,23.204040058807465,0.9058952325634917,25.561350200722874
159.0,98.62247590644282,24.696834519083136,0.9073947933329082,25.744568366579653
160.0,98.39313080808893,26.291858669082675,0.9088595791756063,25.928718820541228
161.0,97.81557304921047,27.985595841457286,0.910289918009527,26.113807240107388
162.0,96.90575378089963,29.773473894856025,0.911686143150566,26.29984094545384
163.0,95.68291537544626,31.649835143648765,0.913048592925193,26.486828824628063
164.0,94.16877922872435,33.60798442639339,0.9143776105165077,26.674781214443975
165.0,92.3868433800323,35.64022486153176,0.915673543828002,26.86370976819056
166.0,90.36174283867653,37.73791619343764,0.9169367454263627,27.053627292662807
167.0,88.11870080145727,39.89154995557748,0.9181675725398502,27.24454755296656
168.0,85.68307961253267,42.09083819028459,0.9193663871165146,27.43648504383101
169.0,83.08003085255277,44.324811998939424,0.9205335559462553,27.629454722110644
170.0,80.33424681740165,46.58193349892779,0.9216694507622979,27.823471697723917
171.0,77.4697918822397,48.85020726247972,0.9227744484093209,28.01855089426149
172.0,74.50999980809252,51.11729019987828,0.9238489310333928,28.214706675004777
173.0,71.47741891712968,53.37059981439881,0.9248932862863597,28.41195243406486
174.0,68.39378964860703,55.59742057146242,0.9259079075416872,28.6103001525175
175.0,65.28003691477345,57.78501071470537,0.9268931941431834,28.809759906273257
176.0,62.15627392819474,59.920713999470976,0.9278495515762396,29.01033935371298
177.0,59.041795419072464,61.99207590881278,0.9287773916620828,29.21204319178409
178.0,55.95506636176111,63.9869642503521,0.9296771326241365,29.414872643307458
179.0,52.9136636783328,65.8937136574616,0.9305491993212495,29.618824808575848
180.0,49.93421396851029,67.70127514661691,0.9313940232728611,29.823892093188707
181.0,47.03229946309621,69.39938182795343,0.9322120426842455,30.03006158971919
182.0,44.22234485212293,70.9787217129135,0.9330037024111398,30.237314456418336
183.0,41.51749186432479,72.43111115920254,0.9337694538616922,30.44562529370964
184.0,38.92947187233641,73.74965951905868,0.93450975483136,30.654961523812894
185.0,36.46848826387239,74.92891432991985,0.935225069267471,30.865282778917848
186.0,34.14312084243093,75.96497609730812,0.9359158669594431,31.07654030628521
187.0,31.96026123737797,76.85557603369219,0.9365826231555512,31.28867638113768
188.0,29.92509686330844,77.60009639200352,0.9372258181010992,31.501623795453565
189.0,28.041124862887965,78.19955603763063,0.9378459365371796,31.71530531025769
190.0,26.310205593324437,78.65655670642784,0.938443467122855,31.929633069127842
191.0,24.732701760746618,78.97515332836338,0.9390189016526628,32.144508115723156
192.0,23.307590199068763,79.16066237793567,0.9395727346303975,32.359820328738195
193.0,22.032699588794753,79.21952941594304,0.9401054620472387,32.57544761265935
194.0,20.9048763518148,79.15907971323637,0.9406175808342887,32.791255975054426
195.0,19.92016710562064,78.98732420524634,0.9411095880047726,33.00709901535412
196.0,19.074049378386547,78.71274155389851,0.9415819796228961,33.22281768586745
197.0,18.36161187639265,78.34406552003682,0.9420352499278747,33.438240203268
198.0,17.77772990029342,77.89009911564315,0.942469890353007,33.653181921228004
199.0,17.31721394607595,77.35954995561853,0.9428863885456812,33.86744526701816
200.0,16.974932305341312,76.7608910472447,0.9432852273779055,34.08081973018556
201.0,16.74590544429736,76.1022495122874,0.9436668839536628,34.2930819028987
202.0,16.625374070885623,75.39132168108475,0.9440318286189529,34.50399557137862
203.0,16.6088425280954,74.63531319855252,0.9443805239775284,34.71331185560675
204.0,16.692099788887422,73.8409019075063,0.9447134238992084,34.920769381250174
205.0,16.871221660806228,73.01422201406925,0.9450309725767668,35.126094536988425
206.0,17.14255765736647,72.16086434908114,0.9453336036001382,35.32900177539468
207.0,17.502706827616137,71.28588967945579,0.9456217390475704,35.52919395169026
208.0,17.948485928003688,70.39385186545259,0.945895788602629,35.726362711651134
209.0,18.476892496590725,69.48882853947622,0.9461561487078299,35.92018893438572
210.0,19.085065377944993,68.57445579131252,0.9464032017147359,36.11034320204251
211.0,19.770244950725264,67.65396787283053,0.9466373151338673,36.296486383381804
212.0,20.529734395029447,66.7302327259479,0.9468588406658527,36.47827011656921
213.0,21.360860667169106,65.80579602314323,0.9470681136564917,36.655337569910266
214.0,22.260939968999967,64.8829174789253,0.947265452170764,36.827324087835635
215.0,23.22724702047915,63.96361291324523,0.9474511567215169,36.99385810419274
216.0,24.256986788841463,63.04968402870173,0.9476255090998925,37.15456180805285
217.0,25.34726388717145,62.142752600600865,0.9477887715708132,37.30905206659725
218.0,26.495060031131153,61.24429654562235,0.9479411866664038,37.45694155654501
219.0,27.69721364509478,60.35567857952361,0.9480829765609416,37.597839794504225
220.0,28.95039884152275,59.47817308860692,0.9482143420985137,37.731354246021716
221.0,30.25109923884736,58.61299345531758,0.9483354618160095,37.85709165110714
222.0,31.595590252419612,57.76131961012705,0.9484464918535302,37.974659456298234
223.0,32.97992086337185,56.92432176966972,0.948547565322783,38.08366723958091
224.0,34.39989198526043,56.1031838404538,0.9486387913656492,38.18372829196545
225.0,35.85102547454215,55.299128684222296,0.9487202539176312,38.274461558664164
226.0,37.32854200204646,54.51344009112992,0.948792011648353,38.3554934556094
227.0,38.82733845405199,53.747483701533426,0.948854097276929,38.4264597782815
228.0,40.34195981531167,53.00272818024511,0.948906516600657,38.487007833099305
229.0,41.86655921064316,52.28076925518625,0.9489492469623028,38.536799167048734
230.0,43.394869881050944,51.583345048275525,0.94898223710298,38.57551184647748
231.0,44.920180944836495,50.912351245172374,0.9490054064345671,38.602842842043785
232.0,46.43530894189616,50.26985490402369,0.9490186440093058,38.618510697193635
233.0,47.932561404569526,49.6581086850381,0.9490218067310502,38.62225904955066
234.0,49.403717752425926,49.07955185096631,0.9490147190556941,38.61385934272523
235.0,50.84002793567733,48.53680650685157,0.9489971723280349,38.59311343986246
236.0,52.23221271792805,48.0326700282307,0.9489689237663795,38.55985657894733
237.0,53.57046988745409,47.57010249819026,0.9489296946112057,38.51396131975293
238.0,54.844507354711276,47.1521970408723,0.9488791697510717,38.45534036928325
239.0,56.0436110004268,46.782142757718205,0.9488169973973232,38.383948773183405
240.0,57.15672302247703,46.463182581858554,0.9487427883409343,38.29978649685445
241.0,58.17255038526352,46.198559600109135,0.9486561144638274,38.202901878120585
242.0,59.07970519159313,45.991449457146985,0.9485565085985144,38.093393772132906
243.0,59.86688106296139,45.84489150029758,0.9484434649987259,37.9714122292305
244.0,60.523043327568494,45.76171741867878,0.9483164393283222,37.8371595953779
245.0,61.03766408132453,45.74446767867521,0.948174848160353,37.690892069302805
246.0,61.400977460026446,45.795303985972254,0.9480180695942194,37.532919942396255
247.0,61.60422380938661,45.91593851595661,0.9478454450139455,37.363605579176465
248.0,61.639893520588856,46.10756477135088,0.947656280309585,37.183361856691896
249.0,61.5019820463678,46.37078613243361,0.9474498471180316,36.992650341198264
