Time,J,A,S,tau
0.0,100.0,100.0,0.9269439463491955,20.640998784982006
1.0,97.92156181025634,99.6142436855419,0.9250151238521215,20.417423468263802
2.0,95.91703846131259,99.235504448777,0.9233011208765538,20.211699136592095
3.0,93.9920656910399,98.86420942450809,0.9217935263301454,20.024171941795963
4.0,92.15219138890002,98.50025498927083,0.9204805832925071,19.85478778847774
5.0,90.40652753903059,98.14349456738834,0.9193509902314357,19.703507285527134
6.0,88.76846896339045,97.79373537372535,0.9183938760296186,19.57030915161881
7.0,87.25638013859395,97.45073567265786,0.9175987725105341,19.455194583695558
8.0,85.89368047429454,97.11420392753884,0.9169555693868832,19.35819101140488
9.0,84.70863588921368,96.78379469350797,0.9164544807305386,19.279357190330476
10.0,83.733448225786,96.4591048212065,0.9160860067948268,19.218788524213807
11.0,83.00268219053206,96.13966860119933,0.9158408954592967,19.176623060737366
12.0,82.55105752753711,95.82495209773552,0.9157101024235156,19.15304808781374
13.0,82.41077004663848,95.51434669715348,0.91568475019775,19.14830731353739
14.0,82.60860871676464,95.20716195001116,0.9157560860192832,19.16270856829762
15.0,83.16322776093773,94.90261807477796,0.9159154390657671,19.19663172677584
16.0,84.08275957117061,94.59983694569797,0.916154177283674,19.25053783629635
17.0,85.36350618782049,94.29783577221725,0.9164636655921056,19.32497587218325
18.0,86.98922896325851,93.99551823616157,0.9168352257892881,19.420591655824335
19.0,88.9316360648738,93.6916677657145,0.9172600997964988,19.538134781209383
20.0,91.52918181118697,93.00996812038697,0.9182523823797055,19.73896110194184
21.0,94.96006094283345,91.7424716699238,0.9200544297179548,20.054957137249204
22.0,98.53951787099942,90.5140440372218,0.9217628134854613,20.384480439755297
23.0,102.19899228643231,89.3245706700567,0.9233745760079082,20.728952435189516
24.0,105.87153544952523,88.17413289696354,0.924886689296718,21.089913161468797
25.0,109.49513325641396,87.06295253960698,0.9262961407154798,21.469005787515897
26.0,113.01512330328329,85.99130455910947,0.9276000393262758,21.867951221334014
27.0,116.38580780760446,84.95940318631554,0.9287957455227526,22.288513735481637
28.0,119.57122379306163,83.96726648097615,0.9298810196306404,22.732455499096602
29.0,122.54519889877001,83.01457754723587,0.930854184567819,23.201481505738375
30.0,125.29082330923787,82.10056171119594,0.9317142845769096,23.697177921724304
31.0,127.79952994210933,81.22390445187189,0.9324612281142969,24.22094997860469
32.0,130.0703638785268,80.38267643458796,0.9330960054581615,24.77393372160922
33.0,132.1078281375429,79.57443915221995,0.9336205959754458,25.356981336715997
34.0,133.92170898436763,78.796244754699,0.934038301883548,25.97054549945238
35.0,135.52474765734576,78.04486895954592,0.9343533978563586,26.614728309844974
36.0,136.93219654879974,77.31692052352632,0.9345712675650283,27.28922430642521
37.0,138.16062536709958,76.6090575827146,0.9346982599361499,27.99332401746593
38.0,139.22701587739448,75.91815176435595,0.934741431017978,28.725976299725744
39.0,140.14821644233922,75.24139735731576,0.934708378687403,29.48582966732257
40.0,140.9403716810598,74.57643708031542,0.9346070292336728,30.2712770592847
41.0,141.61862426592523,73.92137647322258,0.9344453773800723,31.08054317671501
42.0,142.1969759471593,73.27476757737918,0.9342313222398189,31.911745276639017
43.0,142.68808621697437,72.6356080782641,0.9339724680344133,32.76295348843556
44.0,143.10330952643614,72.00326382202377,0.933675982601608,33.63225243533676
45.0,143.45279279450043,71.37739131562459,0.9333485366744758,34.51777912488522
46.0,143.7454393502663,70.7578898387568,0.9329961879611486,35.41776536852287
47.0,143.98906092088166,70.14482301459108,0.9326243664477573,36.3305604800979
48.0,144.19055593878048,69.53835925711864,0.9322379323454463,37.25463151168245
49.0,144.35581014466513,68.9387358404719,0.9318410467365241,38.188604152344496
50.0,144.49006013915715,68.34621282078987,0.9314373938604806,39.13121794685149
51.0,144.597730111824,67.76104858848505,0.9310300305704006,40.08137045555595
52.0,144.68275366001154,67.18348662711861,0.9306216198792047,41.038061876689945
53.0,144.7484101268378,66.61373022382617,0.9302142849366652,42.00043909374292
54.0,144.79767003904757,66.05195841473582,0.9298098911219616,42.96772049586803
55.0,144.83291947678325,65.49828895353448,0.9294098102313946,43.93926724504154
56.0,144.85639567808693,64.9528222904763,0.9290152880191767,44.91447742199825
57.0,144.86986465609925,64.41559741834162,0.9286271776647309,45.89286916685066
58.0,144.874900932022,63.886625271362625,0.9282461735356431,46.87401109542269
59.0,144.8728892853706,63.365889485398746,0.9278728178017783,47.85752104537444
60.0,144.81224789783104,58.25411857765109,0.9275074623126879,48.843080257567344
61.0,144.7376993550684,52.28868486550019,0.92715033984276,49.83041179990766
62.0,144.66671896083443,46.93792980309911,0.92680157698689,50.81927732574351
63.0,144.59901460148188,42.1380451536471,0.926461213075599,51.80947169019181
64.0,144.53432345039235,37.83190175136015,0.9261292161213074,52.80081832674524
65.0,144.472408699027,33.968340944475315,0.9258054963590009,53.793165234827164
66.0,144.41305665242763,30.501580785843174,0.925489917629031,54.78638154568651
67.0,144.35607401982713,27.390578149862534,0.9251823071589591,55.780354463410774
68.0,144.3012856014821,24.59859018877584,0.9248824635730524,56.774986718406744
69.0,144.24853224150615,22.092694212509496,0.9245901636084523,57.77019437712523
70.0,144.19766894567525,19.84337949097298,0.9243051677769925,58.76590490299084
71.0,144.14856331895948,17.824221098755356,0.9240272249374101,59.76205557032548
72.0,144.10109414129928,16.011522839914125,0.923756076121628,60.75859206507806
73.0,144.05515010827068,14.384045533545017,0.9234914576472943,61.755467283150836
74.0,144.0106287793807,12.922761225780638,0.923233103631945,62.752640339849165
75.0,143.96743559680755,11.610598171422925,0.9229807480362672,63.750075682004876
76.0,143.9254830505216,10.432256567733385,0.922734126277603,64.74774234809979
77.0,143.88468995808924,9.374018310900503,0.9224929765181784,65.74561334272269
78.0,143.8449807912843,8.423573970675475,0.9222570406420377,66.74366507737713
79.0,143.8062851169258,7.569891339798611,0.9220260650114558,67.74187691275948
80.0,143.76853709028694,6.803070520570855,0.9217998010234342,68.74023075843544
81.0,143.73167499268953,6.114229009545308,0.9215780054776833,69.73871072276607
82.0,143.69564084626666,5.4954033584279305,0.9213604408462621,70.737302825469
83.0,143.66038004908538,4.939443339130852,0.9211468753999905,71.73599473926303
84.0,143.62584105393987,4.439934516224088,0.9209370832458619,72.73477557039628
85.0,143.591975092101,3.9911225965425294,0.9207308443173968,73.73363567441633
86.0,143.5587359056623,3.5878395919935158,0.9205279442609587,74.73256648874252
87.0,143.5260795192475,3.225449943314219,0.920328174301991,75.73156039378527
88.0,143.49396403218046,2.899791700596013,0.9201313310721413,76.73061059191882
89.0,143.46234941976329,2.6071273289214414,0.919937216376274,77.72971099888451
90.0,143.4311973642779,2.344103854829438,0.9197456369701623,78.72885615398582
91.0,143.40047109230278,2.1077089616058466,0.9195564042963416,79.7280411388992
92.0,143.37013522422873,1.8952380115188434,0.9193693342009728,80.72726150663739
93.0,143.3401556424283,1.7042636210620838,0.9191842466639474,81.72651322160172
94.0,143.31049936011365,1.5326042604399353,0.9190009654908928,82.72579260407616
95.0,143.28113440355824,1.3783016844823082,0.9188193180142692,83.72509628270103
96.0,143.25202970309164,1.2395971127239351,0.9186391347958575,84.72442115265736
97.0,143.22315498496113,1.1149099528879842,0.9184602493060691,85.72376433684701
98.0,143.19448067425313,1.0028214541654497,0.9182824976213814,86.72312315256092
99.0,143.16597780010432,0.9020565159900141,0.9181057181121401,87.7224950806739
100.0,143.1376179037728,0.8114694800051275,0.9179297511252141,88.72187773728128
101.0,143.1093729532384,0.73003175953019,0.9177544386790945,89.72126884838421
102.0,143.0812152575882,0.6568185370799248,0.9175796241478777,90.72066622558411
103.0,143.05311738487626,0.5909991276784744,0.9174051519507471,91.72006774351324
104.0,143.0250520820195,0.5318273523114548,0.9172308672438948,92.7194713183529
105.0,142.9969921946351,0.4786322771130574,0.9170566156082278,93.71887488674648
106.0,142.96891058856218,0.43081142691257224,0.916882242742105,94.71827638529294
107.0,142.9407800706839,0.3878232685873918,0.9167075941514992,95.71767372982372
108.0,142.91257331022953,0.3491810336112295,0.9165325148438835,96.7170647946023
109.0,142.88426275824534,0.3144476406596306,0.9163568490192239,97.71644739057191
110.0,142.85582056607132,0.2832300838158574,0.9161804397630272,98.71581924270897
111.0,142.82721850295005,0.2551752745469083,0.9160031287440217,99.7151779662937
112.0,142.79842786835866,0.22996612919097728,0.9158247559024838,100.7145210405894
113.0,142.76941940445641,0.20731756629636497,0.9156451591517081,101.71384578121553
114.0,142.7401632034303,0.18697364540409814,0.9154641740759729,102.71314930943682
115.0,142.71062860812697,0.16870448652696338,0.9152816336232527,103.71242851746847
116.0,142.6807841126587,0.15230357446384687,0.9150973678193532,104.7116800315118
117.0,142.65059725161765,0.13758567045081094,0.9149112034680361,105.71090016857244
118.0,142.62003448380182,0.1243844695824514,0.9147229638633609,106.71008488829366
119.0,142.5890610718201,0.11255080909580371,0.9145324685221203,107.70922973990531
120.0,142.5576409438476,0.10195108883051629,0.9143395329004109,108.70832979880586
121.0,142.52573655234625,0.09246557679007046,0.9141439681480233,109.70737959714295
122.0,142.4933087190268,0.08398721218266922,0.9139455808737905,110.70637304398767
123.0,142.46031645758163,0.07642038706535789,0.9137441729123574,111.70530333040585
124.0,142.42671679378662,0.06967978634064965,0.9135395411535056,112.7041628262411
125.0,142.3924645540225,0.0636896218383967,0.913331477371618,113.70294295566609
126.0,142.35751213615742,0.05838263690215775,0.9131197681094779,114.70163405524846
127.0,142.3218092629251,0.053699503616894455,0.9129041946248454,115.70022521377513
128.0,142.28530268763575,0.049588100696125084,0.912684532866105,116.69870407711664
129.0,142.24793589454046,0.046003037876480475,0.9124605535693999,117.69705663701511
130.0,142.20964872194148,0.04290518791582771,0.9122320223908,118.69526696457153
131.0,142.17037698065673,0.040261351689454786,0.9119987002048441,119.69331692366703
132.0,142.13005199715232,0.038043849620558484,0.9117603435033015,120.69118582391063
133.0,142.08860008117253,0.03623049216912873,0.9115167049499846,121.68885000743579
134.0,142.0459419615521,0.03480433484077837,0.9112675341574994,122.68628239237428
135.0,142.001992115858,0.03375364856946566,0.9110125786669878,123.68345192552644
136.0,141.95665807306182,0.03307181575462912,0.9107515851785181,124.6803229928588
137.0,141.90983906493432,0.03275843689605341,0.9104843013046549,125.67685434361945
138.0,141.8614258712258,0.03281821573516635,0.9102104772772761,126.67299882011031
139.0,141.81129887325213,0.033261841480654655,0.9099298686375386,127.66870179574569
140.0,141.7593270319519,0.03410673494355868,0.9096422390846199,128.66390022040048
141.0,141.70536620356063,0.03537753245966632,0.9093473641456391,129.6585211506174
142.0,141.64925727237866,0.037106976609941875,0.9090450355638647,130.65248009860775
143.0,141.5908239546931,0.03933692419617994,0.9087350665923964,131.64567909026755
144.0,141.52987032319956,0.0421195688961288,0.9084172981644377,132.63800447456663
145.0,141.46617765026747,0.045519192438011856,0.9080916066113409,133.6293241640557
146.0,141.39950103678353,0.049613778242224446,0.9077579122517534,134.61948469586287
147.0,141.32956514058958,0.05449749303296103,0.9074161899730477,135.60830757058167
148.0,141.25605922706404,0.06028343129965044,0.9070664814796614,136.59558507875659
149.0,141.17865029925667,0.0686946841016025,0.9067089095057878,137.5810754821998
150.0,141.09699771339385,0.08377576218818662,0.9063436939866226,138.56449754620263
151.0,141.0106033477202,0.10105467532069126,0.905971171220297,139.54552401119705
152.0,140.91895684019903,0.12090219588605719,0.9055918150677926,140.52377435765598
153.0,140.82147398893213,0.14375636309443232,0.9052062610196708,141.49880648902078
154.0,140.71748422281883,0.1701352993447001,0.9048153325929756,142.47010746609357
155.0,140.60621567273424,0.20065272609107712,0.9044200703346967,143.43708307794859
156.0,140.48677771668073,0.2360364574058183,0.9040217623424406,144.39904650069383
157.0,140.35814042670316,0.27715061551628006,0.9036219756829745,145.3552060537932
158.0,140.21911025149515,0.3250224952673504,0.9032225876591397,146.30465215273068
159.0,140.06830183301443,0.3808745292567697,0.9028258140894334,147.24634413665171
160.0,139.9041048668623,0.44616292887445536,0.9024342328335224,148.17909713735975
161.0,139.72464566228345,0.5226240141672542,0.9020507985728575,149.1015698929893
162.0,139.52774317841263,0.6123293247546843,0.9016788440925836,150.0122546203692
163.0,139.3108583768712,0.7177519809289807,0.9013220638630176,150.9094696980245
164.0,139.0710378147428,0.8418449438769748,0.9009844730902393,151.79135703931541
165.0,138.80485154109226,0.9881333860999957,0.900670337056131,152.6558853897623
166.0,138.50832631317974,1.1608233320008365,0.9003840655923483,153.50086091107846
167.0,138.1768785489776,1.364925772254604,0.9001300688734731,154.32394671868974
168.0,137.8052504957082,1.606398461757499,0.8999125743735856,155.12269161415875
169.0,137.38745894892176,1.8923027312274963,0.8997354081896967,155.89456823112437
170.0,136.91676955885652,2.2309702622620406,0.8996017505111187,156.63701929958808
171.0,136.385713070338,2.632175408492583,0.8995138778404077,157.34750948585545
172.0,135.78617059415927,3.1072967436213528,0.899472913309354,158.02357905973236
173.0,135.10955772541743,3.669452036780225,0.8994786068980335,158.66289431141172
174.0,134.34714687352903,4.3335826455033875,0.8995291666388753,159.26328951153135
175.0,133.4905691806864,5.116451059630999,0.8996211649488188,159.8227943413541
176.0,132.53253422852544,6.036519536172207,0.8997495289998503,160.3396424518449
177.0,131.46779484597693,7.113664820531163,0.8999076222528128,160.81225734984014
178.0,130.29434646764744,8.368690516092375,0.9000874133335965,161.23921329302271
179.0,129.01480677405925,9.822607546892355,0.9002797169504759,161.61917065583023
180.0,127.6378367076796,11.495664862242263,0.9004744908049201,161.95078520131884
181.0,126.17935424655626,13.406145336681313,0.9006611686585714,162.23259069882155
182.0,124.66319981136533,15.568970937354944,0.9008290121323924,162.46285124392625
183.0,123.11636925016809,17.99869319404766,0.9009674716862816,162.63937834642354
184.0,121.57269455543239,20.702794654490464,0.90106655476048,162.75929769615058
185.0,120.07785446020127,23.67117183380636,0.9011172113131874,162.81874098985415
186.0,118.67590706942495,26.882638349679436,0.9011117734244741,162.81242256396416
187.0,117.40172659974998,30.304979493700234,0.9010444846891681,162.73302698063173
188.0,116.27328740610216,33.89580761293505,0.9009122270759623,162.57028428652256
189.0,115.2852858771648,37.604433038044235,0.9007156104542302,162.30946898725006
190.0,114.40614548874042,41.374708069194426,0.9004607564986804,161.9288414322032
191.0,113.5796336734384,45.148712833373125,0.9001623883219687,161.39505504012806
192.0,112.73078897702062,48.87116360647933,0.8998499216685684,160.65382234225476
193.0,111.77468718515244,52.494590987422136,0.8995803602345299,159.6094206019367
194.0,110.6242303688261,55.98601797006668,0.8994714624024687,158.06940480264655
195.0,109.19045205657619,59.33828574655851,0.8998085989669256,155.55454376614242
196.0,107.35743722213915,62.60125127995656,0.9016303168064641,150.13133602083968
197.0,106.75887311672281,64.12603338182977,0.9302029479125343,42.02639324116424
198.0,108.33887620126603,63.15849886110311,0.9343515233874131,31.464183284376144
199.0,109.56580013003158,62.27926459038896,0.9346958030601457,27.977725030071415
200.0,110.39961860853006,61.532931352712,0.9340088202475535,25.921933294930838
201.0,110.7818054489316,60.983247016212935,0.9327834490134432,24.486848544082537
202.0,110.6333483532065,60.71404706601073,0.9312055988812911,23.39381282992355
203.0,109.8566300596989,60.82713923860698,0.9293667019940587,22.51407804537205
204.0,108.34502196933384,61.43371950089694,0.9273187864637732,21.777905059521878
205.0,106.00235966536587,62.63726417175441,0.9250943789371052,21.143520988130025
206.0,102.77284873429521,64.5065801088094,0.9227151956251557,20.584127704647518
207.0,98.67914912696322,67.03965884686154,0.9201964526291304,20.08168553482984
208.0,93.8476735935361,70.13719777346705,0.917549235750698,19.62357903981733
209.0,88.50927749386602,73.59763773143395,0.9147818751260897,19.200746996910258
210.0,82.96935360502134,77.14224145732032,0.9119008042925956,18.806537066152835
211.0,77.55435022113573,80.4662074945475,0.908911121321085,18.435978720419058
212.0,72.55253757762978,83.29841763912428,0.9058169680156787,18.08530461088845
213.0,68.16926386605661,85.44784646415037,0.9026217970132397,17.75162429999743
214.0,64.51215893396288,86.81958802789511,0.8993285651332357,17.43269657902262
215.0,61.439830997575264,87.56601235611316,0.8959398781639671,17.12676625755035
216.0,58.75826518405655,87.88858415802899,0.8924580989153079,16.8324456933042
217.0,56.44035133232653,87.82046407967304,0.8888854344638386,16.54862876366868
218.0,54.45840647042979,87.39478927080218,0.8852240012516255,16.27442444740982
219.0,52.78562304929937,86.64329398103227,0.8814758789516907,16.009108149830055
220.0,51.393988849949636,85.5984255270513,0.8776431532625881,15.752084566252766
221.0,50.248530485500474,84.29908156411481,0.8737279511048545,15.502859348268347
222.0,49.30153039317611,82.79631709050962,0.8697324668305798,15.261017104214222
223.0,48.49359234217041,81.15218230012911,0.8656589878568061,15.026204858722231
224.0,47.765052649594445,79.42830737949166,0.8615099109158907,14.798118613198438
225.0,47.06973766464439,77.6722688553718,0.8572877584421154,14.57649360590961
226.0,46.379886501174184,75.9128813043559,0.8529951887252073,14.36109609950433
227.0,45.68216444449657,74.16437026996924,0.8486350051052125,14.151717399518557
228.0,44.971195733037284,72.43295659579853,0.8442101610787138,13.94816892952288
229.0,44.24517448773305,70.7213004487493,0.8397237634999315,13.750278391931081
230.0,43.503737884776854,69.03065716655483,0.8351790963609118,13.557888029505675
231.0,42.74701532736395,67.36181834725903,0.8305795593468484,13.370848862036071
232.0,41.97545636575735,65.71531520746731,0.8259287600090433,13.189023973094171
233.0,41.18962585334342,64.09161622964906,0.8212305083609117,13.012284475560472
234.0,40.39017075316734,62.49111313122608,0.8164886122941268,12.84050404396981
235.0,39.577874422431485,60.91415267323793,0.8117071989436531,12.673567338739819
236.0,38.75354016128001,59.3610787721994,0.8068904603723317,12.511361050870027
237.0,37.918069774322255,57.8321653716866,0.8020426774474111,12.353776250668984
238.0,37.07243265747273,56.32769738271963,0.7971683976422635,12.20071063592275
239.0,36.21762715480937,54.847927880103974,0.792272167271891,12.052062690031468
240.0,35.35474713542036,53.3930643261704,0.7873586991321663,11.907736109422608
241.0,34.48491345704221,51.96331640237876,0.7824328054852858,11.767636971176831
242.0,33.60931765036107,50.55884234013217,0.7774993762676258,11.63167463463752
243.0,32.72918948966115,49.17980562465171,0.7725634268890345,11.499761457357764
244.0,31.84580874364105,47.82631481580748,0.7676299888107456,11.371811931590534
245.0,30.96050687543786,46.49848310578677,0.7627042228684003,11.24774401995399
246.0,30.074647492639322,45.19637760994668,0.7577912804193908,11.127477179478936
247.0,29.189653425406608,43.92005546771214,0.7528963937167633,11.01093407719277
248.0,28.306982189299905,42.66953755962251,0.7480247893200268,10.89803911697456
249.0,27.428156543447336,41.444839135280134,0.7431817422661471,10.788719483618248
