Time,J,A,S,tau
0.0,100.0,100.0,0.6699326596010694,38.57105104073841
1.0,99.80711777019654,89.40987852715018,0.6687427992846671,39.55601112515728
2.0,99.61785515050349,79.94348330625665,0.6675705234437597,40.54220066632411
3.0,99.43202223190954,71.48375635536898,0.6664155603420696,41.52915852336952
4.0,99.2494569157188,63.92302912515917,0.6652773060524804,42.51682026523239
5.0,99.07000271016581,57.16522828425092,0.6641551512843916,43.5051270317977
6.0,98.89350845014363,51.124649494330576,0.663048483673942,44.49402500464091
7.0,98.71982801936045,45.72477558746382,0.6619566897482672,45.483464919162685
8.0,98.54882007964724,40.897295718064065,0.6608791565798143,46.473401620782674
9.0,98.38034782026594,36.58124236568929,0.6598152731728846,47.463793671280285
10.0,98.21427871901048,32.72218721703038,0.6587644316234547,48.4546029931139
11.0,98.05048430073094,29.271513600039782,0.6577260280588278,49.44579453858145
12.0,97.88883991188365,26.185808534617262,0.6566994633939253,50.43733599564715
13.0,97.72922450917531,23.426314696808785,0.6556841439373563,51.42919752459775
14.0,97.57152044815413,20.958402118808376,0.6546794818451133,52.421351513510366
15.0,97.41561327874629,18.751133583118378,0.6536848954436968,53.4137723560919
16.0,97.26139155406129,16.776879677074238,0.6526998094559971,54.406436253170426
17.0,97.10874664549719,15.01095451513611,0.6517236551345862,55.39932103116352
18.0,96.9575725571613,13.431294360590803,0.6507558702943596,56.39240597256984
19.0,96.80776575137457,12.018184770197745,0.649795899284067,57.385671663737206
20.0,96.65922498282029,10.754013586041385,0.6488431929064935,58.379099856479215
21.0,96.51185113191877,9.623033847620452,0.6478972082692321,59.372673337673945
22.0,96.36554704409849,8.611169653687142,0.6469574085911424,60.366375809506685
23.0,96.22021737723082,7.705843158320362,0.6460232629821598,61.36019177997714
24.0,96.07576845196995,6.895808817639354,0.6450942461881579,62.354106460129024
25.0,95.93210810276663,6.17101042026147,0.6441698382973583,63.34810566660093
26.0,95.7891455358045,5.522457951263934,0.6432495244360211,64.34217573125927
27.0,95.64679119151133,4.942115344950509,0.6423327944530227,65.33630341581333
28.0,95.50495660667329,4.422793777191867,0.6414191425785668,66.33047582911276
29.0,95.36355428080262,3.95806428964185,0.6405080670784451,67.32468034831312
30.0,95.22249754668381,3.5421794973977763,0.6395990699101707,68.31890454283976
31.0,95.0817004420539,3.1699979185131513,0.6386916563729313,69.31313609958032
32.0,94.94107758266702,2.8369199427061647,0.6377853347543303,70.30736274922417
33.0,94.80054403878938,2.5388320082966294,0.6368796159883738,71.30157219333793
34.0,94.66001521326548,2.2720552080027425,0.6359740133224844,72.29575203068738
35.0,94.51940672021848,2.033297172822243,0.6350680419888503,73.2898896829296
36.0,94.37863426597366,1.819612473178996,0.6341612188933023,74.28397231895178
37.0,94.23761353096405,1.62836696576257,0.633253062323469,75.27798677620663
38.0,94.09626005233153,1.4572031669083263,0.6323430916750342,76.27191947916947
39.0,93.9544891079877,1.30401139647774,0.6314308272016488,77.26575635484859
40.0,93.81221560114267,1.166904376781288,0.6305157897947569,78.25948274301021
41.0,93.66935394439714,1.0441935394903772,0.6295975007950773,79.25308329988499
42.0,93.52581794583081,0.9343673116086515,0.6286754818398504,80.24654189759113
43.0,93.38152069509842,0.836073054917557,0.6277492547521779,81.23984151574687
44.0,93.23637444792911,0.7481007391721715,0.6268183414769761,82.23296412265552
45.0,93.09029051208066,0.6693670748355959,0.6258822640702301,83.2258905484777
46.0,92.94317913426812,0.5989024349156865,0.6249405447468438,84.21860034890652
47.0,92.79494938502408,0.5358392613672341,0.6239927059947183,85.21107165441934
48.0,92.6455090422871,0.4794010795029186,0.6230382707649406,86.20328100426464
49.0,92.49476447838664,0.42889269711631584,0.6220767627440081,87.19520316955698
50.0,92.3426205449109,0.383691921782125,0.6211077067179455,88.18681095728984
51.0,92.1889804540202,0.3432420470377204,0.6201306290441606,89.17807499072906
52.0,92.0337456631598,0.30704457803061774,0.6191450582382318,90.16896347283034
53.0,91.87681575983619,0.2746532753097576,0.6181505256856384,91.1594419270586
54.0,91.71808834226604,0.24566884251187743,0.6171465665023657,92.14947290634741
55.0,91.55745889938888,0.2197338248869992,0.6161327205618009,93.13901567088726
56.0,91.39482069559266,0.19652817182657134,0.6151085336861877,94.12802584117507
57.0,91.23006465158325,0.1757654285793586,0.6140735590390201,95.11645500974002
58.0,91.06307922065393,0.1571892617043929,0.6130273587564624,96.10425030354408
59.0,90.8937502715262,0.14057012579016928,0.6119695058017481,97.09135391242427
60.0,90.72196097018498,0.12570253929606495,0.610899586080517,98.07770256795538
61.0,90.54759165628819,0.11240264156160541,0.6098172008791082,99.06322695593704
62.0,90.37051972145898,0.10050582423409417,0.6087219696338929,100.04785106870581
63.0,90.19061949358029,0.08986471521454947,0.6076135330159798,101.03149150465964
64.0,90.00776211628705,0.08034742561178035,0.606491556433566,102.01405668334903
65.0,89.82181542438104,0.07183593634405475,0.6053557340201916,102.99544596351824
66.0,89.63264383023252,0.06422457309866553,0.6042057930130819,103.97554869786575
67.0,89.44010820847863,0.05741875597347742,0.6030414986427991,104.95424318737987
68.0,89.244065775343,0.05133387286294044,0.6018626596573061,105.93139550688772
69.0,89.04436997476702,0.04589418110730081,0.6006691344136942,106.90685822598026
70.0,88.84087037203788,0.0410318890594723,0.599460837512847,107.8804690300836
71.0,88.6334125431249,0.03668634907317742,0.598237747192864,108.85204918623528
72.0,88.42183796309422,0.03280330596717102,0.5969999135495941,109.82140184168384
73.0,88.20598391106489,0.02933420128600525,0.595747467290629,110.78831022761048
74.0,87.98568337408636,0.026235597976393556,0.5944806293109645,111.75253569243995
75.0,87.76076494801877,0.023468660030211724,0.5931997212561532,112.7138155270306
76.0,87.53105275305924,0.020998644464843633,0.5919051767378852,113.67186065971921
77.0,87.29636635900155,0.018794482270933645,0.5905975531790094,114.62635321854323
78.0,87.05652070919187,0.016828407469369356,0.5892775446054402,115.57694388219241
79.0,86.81132605079884,0.015075606371057848,0.5879459952619205,116.52324904365369
80.0,86.56058788801398,0.013513901537393059,0.5866039133491182,117.46484793562247
81.0,86.30410693765947,0.012123486683587302,0.585252485347843,118.40127959994085
82.0,86.04167908797628,0.010886686167166166,0.5838930909295246,119.3320396907251
83.0,85.77309538300928,0.009787720605427045,0.5825273174145496,120.25657732780388
84.0,85.49814202069234,0.008812515276814474,0.5811569737153723,121.17429199665432
85.0,85.21660035669844,0.007948529405283995,0.5797841039014928,122.08453044454433
86.0,84.9282469271191,0.007184591920286639,0.5784109995363355,122.98658373778198
87.0,84.63285350124531,0.006510757238094594,0.5770402094589605,123.87968475332434
88.0,84.33018714488831,0.00591818199726972,0.5756745473646444,124.76300599868966
89.0,84.02001029878016,0.005399012202241576,0.5743170964460861,125.63565788886362
90.0,83.70208089675806,0.004946272162223259,0.572971209003185,126.49668792287238
91.0,83.37615250387762,0.004553776683745104,0.5716405008630745,127.34508077182392
92.0,83.04197446613279,0.004216050415616962,0.5703288405041866,128.17975924247273
93.0,82.69929212040931,0.003928239202895824,0.5690403295530931,128.99958687506597
94.0,82.34784701216871,0.003686051062605091,0.5677792757912642,129.8033718865598
95.0,81.9873771477578,0.0034856860044799255,0.5665501573600772,130.58987266123052
96.0,81.6176172992338,0.003323782647054017,0.5653575759289012,131.35780547590923
97.0,81.23956294126077,0.0034811419616686927,0.5642062008282802,132.10585376504653
98.0,80.85199697675627,0.003695328496788653,0.5631007021730546,132.83267962991155
99.0,80.45450012492476,0.003927231231892029,0.5620456739232208,133.53693713525527
100.0,80.0468182345251,0.004177745209975892,0.5610455473493711,134.21728759687963
101.0,79.62869813890407,0.004447719307509608,0.5601044986640493,134.8724161602019
102.0,79.19988827583381,0.004737939997768773,0.5592263465299224,135.5010500469751
103.0,78.76013945408887,0.005049115340180333,0.5584144537454929,136.10197661687693
104.0,78.30920558779621,0.005381857543585056,0.5576716154602088,136.67406338589973
105.0,77.84684450780945,0.005736668711476128,0.556999968804855,137.21627495928644
106.0,77.37281851311438,0.0061139306291825395,0.5564009221671082,137.72768644695554
107.0,76.88689560964355,0.0065138795016863715,0.5558749903258154,138.20751152303316
108.0,76.38885039228768,0.006936614338614031,0.5554218565468211,138.65509475547302
109.0,75.87846392779144,0.0073820665953401605,0.5550401251974727,139.069951396025
110.0,75.35552599606208,0.007850029637259316,0.5547275680689492,139.45172969732718
111.0,74.81983483323901,0.008340123360484137,0.5544808241850128,139.8002581949016
112.0,74.27119956593387,0.008851819281297713,0.5542956022127242,140.11551342108055
113.0,73.70943858496398,0.009384440127574587,0.5541666104735504,140.39762983650593
114.0,73.13438359096139,0.009937165372718408,0.5540876302785025,140.64688682385565
115.0,72.5458777078034,0.010509053020238083,0.5540516155034928,140.86369144769554
116.0,71.94377845398894,0.011099036807057058,0.554050657425486,141.04858113397663
117.0,71.32795799301573,0.011705954405950224,0.5540761743693507,141.20219211055368
118.0,70.69830294514408,0.01232856019127707,0.5541189701239888,141.32524838714042
119.0,70.05471791511556,0.012965533778332572,0.5541692785439978,141.41855108536754
120.0,69.39712435400583,0.013615504440873494,0.55421693286404,141.48295190489884
121.0,68.72546162989535,0.01427706142715145,0.5542514084636204,141.5193440852587
122.0,68.03969033344246,0.014948767233420916,0.5542619174192431,141.52864562833372
123.0,67.33979025821196,0.015629171889170217,0.5542375121779209,141.5117848469007
124.0,66.62576309965135,0.016316823790912965,0.5541671384408462,141.46968993057803
125.0,65.8976345556547,0.017010278830233542,0.5540397225277763,141.40327661078533
126.0,65.1554522047697,0.01770810716394357,0.5538442211423931,141.31344270789626
127.0,64.39928976365144,0.018408903912561964,0.5535696895965305,141.20105702841576
128.0,63.62924722046204,0.019111290395209563,0.5532053283999488,141.06695616271796
129.0,62.84544952069552,0.019813918468096534,0.5527405111188445,140.91194225050785
130.0,62.04805176486784,0.020515478194754345,0.5521648574804945,140.7367743082699
131.0,61.23723710295643,0.021214693144248373,0.5514682361261913,140.5421724573189
132.0,60.413216962422055,0.02191032487696276,0.5506407954147498,140.32881566542943
133.0,59.57623696601593,0.022601177577311785,0.5496730403459643,140.09733615477373
134.0,58.72657011067262,0.023286087168206925,0.5485557706530055,139.84833084632947
135.0,57.86452436853334,0.023963934342703545,0.547280195631895,139.582350996681
136.0,56.990440381320184,0.02463363166700705,0.5458378990469334,139.29991191075396
137.0,56.10468986458397,0.025294132267274793,0.5442208687795206,139.00149120063145
138.0,55.20768260560354,0.025944422357517007,0.5424215609181232,138.68753029716518
139.0,54.30018616134637,0.02597546478462968,0.6016699890371587,70.90335769351498
140.0,53.38089282648359,0.025354730829023144,0.6284097969148981,50.626910005211144
141.0,52.448979388612976,0.02510768876639669,0.6356718794062145,44.47048587185471
142.0,51.50631987286181,0.029742467968790588,0.6378835317043547,40.9503564098939
143.0,50.56317033903332,0.03506508145603513,0.6376034254888884,38.542748214306755
144.0,49.62172160607075,0.041122531658663766,0.6357970554406532,36.74346076681071
145.0,48.6842976703374,0.04794751933350961,0.6329434249870647,35.324601068998916
146.0,47.75331806483465,0.05556700575770461,0.6293193076361545,34.16417119616594
147.0,46.831273128293965,0.06400434412799132,0.6251013586357727,33.18943613082333
148.0,45.92070307351821,0.07327957361215424,0.620410688579293,32.35364373424212
149.0,45.024173518669826,0.08340924716541574,0.6153348864218736,31.62506982968147
150.0,44.144255776859886,0.09440593471452843,0.6099401558099228,30.981225421123423
151.0,43.28349696919713,0.10627788113704603,0.6042782353243001,30.405670248955413
152.0,42.44439499501171,0.1190285685701736,0.598390820292906,29.886037996667767
153.0,41.62937160451211,0.1326563312509903,0.5923123332734277,29.412830893160884
154.0,40.84074389340325,0.14715405954224278,0.5860717992933394,28.97862375465927
155.0,40.08069628261354,0.16250896490990177,0.5796941441311061,28.577523975563537
156.0,39.35125370609469,0.17870240719505162,0.573201113026029,28.20479584607441
157.0,38.65425698403454,0.195709802435298,0.5666119391964434,27.856591281505086
158.0,37.99134033976982,0.213500714250953,0.5599438515738349,27.529750171339014
159.0,37.36390672628777,0.2320388676753463,0.5532124224896201,27.221662733714346
160.0,36.773112547077154,0.2512822291666513,0.546431847009481,26.930158699572026
161.0,36.21985640027546,0.271183312501328,0.5396151764328113,26.653417925602195
162.0,35.704766405173245,0.29168951921459735,0.532774487893735,26.38990595515939
163.0,35.2281938885044,0.3127434990786144,0.5259210157335256,26.138323279867187
164.0,34.790208814950596,0.3342835598516639,0.519065255702248,25.897565259046925
165.0,34.39080667894971,0.3558254835169562,0.5122170437101866,25.66669061441133
166.0,34.028304974258724,0.375996227895478,0.5053856395405345,25.444888099812914
167.0,33.69740356604807,0.39650699497646674,0.4985797716725769,25.23146212214577
168.0,33.3985973550932,0.4231333619982801,0.4918076850552785,25.025810831957116
169.0,33.143471976794174,0.4571705432908245,0.4850771798508843,24.8274127999675
170.0,32.94482777309522,0.49958513723956227,0.4783956408471877,24.63581451709679
171.0,32.81585121721813,0.551312532895765,0.4717700628697841,24.450620226465624
172.0,32.76957612751043,0.6132379667479918,0.46520707183450355,24.2714834376024
173.0,32.81828838985604,0.686180964913368,0.45871294262389734,24.098099752784265
174.0,32.97288299894008,0.7708808705983864,0.45229361405511204,23.93020090320659
175.0,33.24225944352928,0.8679830910544277,0.44595470170085416,23.76754960816362
176.0,33.63271761685098,0.9780267365721201,0.43970150965220045,23.60993530640668
177.0,34.14749633605847,1.1014337015645919,0.4335390406932965,23.45717042653503
178.0,34.78637408918968,1.2384991055152097,0.4274720043403813,23.309087375644836
179.0,35.5454765423807,1.3893847191902868,0.421504825666671,23.165535798584386
180.0,36.417126064219495,1.5541157124559688,0.4156416570445038,23.026380392782784
181.0,37.39018790507311,1.7325772234535977,0.40988637867813743,22.89149882450183
182.0,38.450235017826294,1.9245167843122448,0.40424261085953705,22.760780169424667
183.0,39.58006141231916,2.1295479226994827,0.39871372017094264,22.634123453095345
184.0,40.760279059838105,2.3471565707711903,0.39330282708665804,22.51143643364372
185.0,41.97003045185622,2.576710115957605,0.38801281279622407,22.392634495371627
186.0,43.187698238787334,2.817468337029911,0.38284632703415244,22.277639793870886
187.0,44.391691021142435,3.0685587278690183,0.37780579584363033,22.166380446457868
188.0,45.561921946784196,3.3281126152860097,0.3728934299084033,22.058789836837267
189.0,46.679924077435956,3.5937239693440035,0.3681112319388139,21.954806032017157
190.0,47.724555113450776,3.8679098732285304,0.3634610046621846,21.854371290408093
191.0,48.674012358114624,4.1563747231266035,0.35894436006619956,21.757431594657916
192.0,49.50758601251752,4.465035700408079,0.35456272709161446,21.663936287834215
193.0,50.204814647020854,4.799692510007536,0.35031736080857256,21.573837725839965
194.0,50.74502824960204,5.165740995733243,0.346209351082274,21.48709099257539
195.0,51.10739072424476,5.567880849496807,0.34223963083410774,21.403653651775503
196.0,51.27147114835996,6.00985200186171,0.33840898591049706,21.323485512989635
197.0,51.218335803264495,6.494193171403843,0.33471806278720995,21.246548455184854
198.0,50.93203232608145,7.022067179799601,0.33116737808468644,21.172806249876242
199.0,50.401238110811114,7.593149347532934,0.32775732704733973,21.10222441588692
200.0,49.62074536597877,8.205603385435241,0.32448819265368944,21.034770083337087
201.0,48.59261660853556,8.856120597932795,0.3213601533223661,20.97041189040635
202.0,47.326631118072754,9.54005647130033,0.31837329204706544,20.909119873437884
203.0,45.84006854927516,10.251617302283014,0.3155276039862996,20.850865386397675
204.0,44.15674058635993,10.984109624768616,0.3128230047799168,20.79562101749844
205.0,42.30551515598439,11.730217344978767,0.31025933806945344,20.743360522702126
206.0,40.318517605602224,12.48229450325564,0.30783638283734516,20.694058764996715
207.0,38.22927225613807,13.232652631155823,0.30555386063165946,20.647691657561573
208.0,36.07101764842292,13.973819668566478,0.30341144235639056,20.60423611474213
209.0,33.875364254226206,14.698719877515485,0.3014087547021647,20.563670008315377
210.0,31.67119419965376,15.400930488728772,0.29954538625780097,20.525972128600642
211.0,29.483786572160565,16.074996553168194,0.2978208931615271,20.491122150335382
212.0,27.334846121819186,16.716155444436886,0.29623480442419525,20.459100598976434
213.0,25.243035828772385,17.319843247088947,0.2947866269285883,20.429888821014632
214.0,23.224527215717178,17.88134651667986,0.2934758499550214,20.403468957400026
215.0,21.293449471055105,18.395632577976986,0.29230194932382453,20.379823919328842
216.0,19.46216884638262,18.857369712834217,0.29126439116037944,20.358937367140804
217.0,17.741374274720044,19.261135099866518,0.290362635036594,20.340793689086674
218.0,16.13999229286871,19.60178053064735,0.28959613693249464,20.32537798135286
219.0,14.664986352948768,19.874889940575663,0.28896435180175334,20.31267603024879
220.0,13.321120365658986,20.07724994453944,0.28846673557316366,20.30267429654667
221.0,12.110796467636906,20.207235632013486,0.28810274702617855,20.295359898722094
222.0,11.033957096747116,20.26508618402497,0.2878718473361775,20.290720605344216
223.0,10.088335305149007,20.252879443802527,0.2877735035163984,20.288744806273684
224.0,9.269664576296577,20.17444995506929,0.2878071874205279,20.28942151727614
225.0,8.572153493530164,20.035054018122246,0.2879723760998852,20.292740356647347
226.0,7.988964577876025,19.840990379915386,0.288268551535302,20.298691540209813
227.0,7.512716551754361,19.599168947095695,0.28869519962861073,20.307265869326745
228.0,7.135931859163235,19.316710007445277,0.28925180926747185,20.3184547198579
229.0,6.851392852096616,19.00061169056445,0.28993787104594276,20.332250033267822
230.0,6.652398765224171,18.65749865244523,0.2907528756881414,20.348644310443778
231.0,6.53293327637401,18.29344631374318,0.2916963117059518,20.367630603854522
232.0,6.487745534985535,17.913883999509558,0.2927676631933074,20.389202509212662
233.0,6.512349845882899,17.523574031821344,0.2939664073164396,20.41335415990762
234.0,6.6029682551575055,17.126643247841486,0.2952920114669375,20.44008022415909
235.0,6.756440397645237,16.726645174405633,0.2967439299404215,20.469375899558216
236.0,6.970120342959807,16.326631578116906,0.2983216006809253,20.5012369097737
237.0,7.241775843728281,15.92922168772532,0.3000244415738762,20.535659502741282
238.0,7.569483477194937,15.536667024731006,0.30185184707806645,20.572640449993262
239.0,7.951546325456974,15.150905845174131,0.30380318377019183,20.6121770482896
240.0,8.386409383304096,14.773612478447367,0.3058777863114393,20.65426712209007
241.0,8.872576816312499,14.406240327114608,0.30807495366195076,20.698909025164443
242.0,9.408547522606295,14.05005640337802,0.3103939442221365,20.746101651180656
243.0,9.992759559054674,13.706174890622929,0.3128339719461021,20.79584443209208
244.0,10.62354137609481,13.37558355859606,0.3153942012494825,20.84813735554886
245.0,11.29904974605792,13.059167558593293,0.3180737424449354,20.902980981357718
246.0,12.017229394462777,12.757731263803196,0.32087164752358227,20.960376451479707
247.0,12.775786394743319,12.472015548023595,0.3237869055777077,21.020325507312023
