Time,J,A,S,tau
0.0,1.0,1.0,0.32164166759972895,30.3030303030303
1.0,8.123256973744342,2.922007868992571,0.32019453008923143,30.268565961256417
2.0,19.620625519153187,4.790580543647438,0.31869186494723684,30.232742509477724
3.0,32.577286987112416,6.606029295508033,0.31713466932215684,30.195573602834543
4.0,45.339827397503264,8.36869317781483,0.3155238861472509,30.157070973845027
5.0,57.02590411262744,10.078934689034217,0.31386050883852656,30.11724684836054
6.0,67.21859711920494,11.737139727021466,0.31214558000271886,30.07611394111568
7.0,75.77638654182232,13.343717689064187,0.3103801900609291,30.033685450614605
8.0,82.71548466480805,14.899100496874444,0.3085654758204698,29.98997505558604
9.0,88.13711545831335,16.403743536525955,0.3067026187706365,29.944996905808864
10.0,92.18386084386681,17.858124636945444,0.3047928435209076,29.898765617880784
11.0,95.0133768545251,19.26274425205812,0.30283741606905357,29.851296267647324
12.0,96.78325220732928,20.618124669912216,0.3008376418289904,29.80260438145396
13.0,97.6427320646737,21.92481000030993,0.298794863923149,29.752705929812127
14.0,97.72866315520375,23.183365519529843,0.2967104609708757,29.70161731588073
15.0,97.16380263225163,24.39437720848057,0.29458584524964126,29.649355368764375
16.0,96.05678444349459,25.558451407545697,0.29242246041104586,29.59593733077837
17.0,94.5026804410178,26.676213916273266,0.29022177941395705,29.541380848745757
18.0,92.58414996846429,27.748309901612625,0.28798530227137364,29.485703961448937
19.0,90.37259719087994,28.775402503512478,0.28571455376533883,29.428925088723872
20.0,87.92952270789534,29.75817305618452,0.28341108115027613,29.371063017596665
21.0,85.30763039383861,30.697319604566818,0.2810764518596212,29.312136891641067
22.0,82.5520103410221,31.593556380483793,0.27871225105784103,29.252166195533015
23.0,79.70114065750418,32.44761320418404,0.27632007928629726,29.191170741199038
24.0,76.78775756767853,33.26023486021717,0.2739015501235707,29.129170654692423
25.0,73.83963418464096,34.032179506683676,0.2714582876875732,29.06618636069961
26.0,70.8802806632353,34.76421850409215,0.2689919242777754,29.002238567487865
27.0,67.92953475544394,35.45713516967457,0.2665040979372582,28.937348250720337
28.0,65.00406235931818,36.11172411691882,0.26399645008646777,28.871536638936696
29.0,62.105605783243675,36.740987099280915,0.2616822257726548,28.811016849384036
30.0,58.02110960490086,38.497834888158934,0.2603570361687726,28.7792756714974
31.0,52.70435506768416,41.28482878258394,0.25905139289632556,28.748099025014433
32.0,46.908969913505814,44.372002758521845,0.25776563243582534,28.717493914083526
33.0,41.128402333933394,47.35819218604708,0.25650008400856744,28.687466972689652
34.0,35.6513558524638,50.03819416286639,0.2552550696617747,28.658024459637478
35.0,30.624236662814145,52.32191433437075,0.25403090435516873,28.62917225415548
36.0,26.10383164064087,54.185244104680535,0.2528278960478946,28.600915852250413
37.0,22.09458646745512,55.640382187204565,0.251646345799201,28.573260364199204
38.0,18.572548251311837,56.71811345218903,0.250486547829001,28.54621051148038
39.0,15.50009095572619,57.4573093175575,0.24934878964733717,28.519770628224805
40.0,12.834450532526859,57.8989664729358,0.24823335210408257,28.49394465911486
41.0,10.532619676482156,58.082884027730515,0.24714050948439786,28.468736161276354
42.0,8.5539458380402,58.04598093869244,0.2460705295847234,28.444148306417837
43.0,6.861395267145302,57.821564036279845,0.24502367378223527,28.420183883908393
44.0,5.422034683139344,57.439147806511606,0.24400019710064122,28.396845305227053
45.0,4.20707504910403,56.924575887597626,0.24300034826938077,28.374134609567726
46.0,3.1916803538049203,56.30029608610546,0.24202436977599467,28.352053470691718
47.0,2.3546688914676657,55.58569658416499,0.24107249790341942,28.330603204532437
48.0,1.67816329385635,54.79746301470155,0.24014496276985883,28.30978477868801
49.0,1.147242044687955,53.94991774401758,0.23924198834904165,28.28959882250479
50.0,0.7496038903767864,53.05533525318901,0.23836379248780948,28.270045638722493
51.0,0.475259643154795,52.12422354751872,0.23751058691000065,28.25112521606866
52.0,0.3162514839157977,51.165572500725304,0.2366825772120942,28.23283724306165
53.0,0.26640099925767424,50.18706982508255,0.2358799628482041,28.215181122877883
54.0,0.32108309365066656,49.195287332127776,0.23510293710404834,28.198155989207557
55.0,0.4770219517768485,48.19584122246883,0.23435168706383147,28.181760723193012
56.0,0.7321070016287852,47.19352877924014,0.23362639356502687,28.16599397115938
57.0,1.0852145823957702,46.19245676007104,0.23292723114095404,28.150854163134944
58.0,1.549804640736299,45.182650543358946,0.2322543679482126,28.136339532100994
59.0,2.1757792288007334,44.12077192893812,0.2316079657271682,28.122448134480784
60.0,2.9763506250385703,43.00395195564251,0.2309881796902848,28.109177870115825
61.0,3.942006382073506,41.85322279345804,0.23039515844663225,28.096526503459447
62.0,5.062099834368584,40.69048903600016,0.22982904390907655,28.084491684837804
63.0,6.330842400909083,39.53205189802768,0.2292899712177976,28.073070972113648
64.0,7.747168849624933,38.388657978566144,0.22877806856301403,28.06226185171679
65.0,9.31314869595889,37.267087393226355,0.2282934571423248,28.052061760803877
66.0,11.032588507996993,36.17152285560322,0.22783625104099783,28.042468108421154
67.0,12.910032323705597,35.104517262399334,0.22740655711248245,28.033478296544132
68.0,14.9500832404124,34.0676117741176,0.22700447486565947,28.025089740712634
69.0,17.1569403135237,33.06172061975137,0.2266300963522731,28.017299890098595
70.0,19.534041028852815,32.08737098032072,0.22628350608388054,28.010106246834674
71.0,22.08386842280503,31.144855943063742,0.2259647808888527,28.003506384435664
72.0,24.807750057091113,30.234333013659963,0.22567398983617326,27.997497965112103
73.0,27.705686709816252,29.355889803352312,0.22541119400959597,27.992078758285952
74.0,30.775668746148565,28.5095783566309,0.22517644732152575,27.987246648191594
75.0,34.01581556784691,27.695493913686033,0.2249697931028637,27.982999678109223
76.0,37.42138518806424,26.9137269924386,0.22479126944137448,27.979336004763162
77.0,40.986018209018404,26.16442110289447,0.22464090493521666,27.976253964249008
78.0,44.70172842009152,25.447779285132082,0.22451871985963662,27.97375206304128
79.0,48.55891429969205,24.76406708022255,0.22442472651232565,27.97182897715325
80.0,52.546183302201385,24.113620604180305,0.2243589286844318,27.970483570108037
81.0,56.65056754284997,23.496850643748143,0.22432132171857286,27.969714894275263
82.0,60.857443975209165,22.91424163777643,0.22431189251699934,27.96952219501275
83.0,65.15062110904614,22.36634999484601,0.2243306195821349,27.969904910983658
84.0,69.51245232365477,21.853801304554274,0.22437747301398026,27.970862673828005
85.0,73.92394976821312,21.37728413043629,0.2244524145287852,27.972395306214832
86.0,78.36483615558996,20.937619948365388,0.22455539748276004,27.97450281832759
87.0,82.81266353183102,20.536552135931366,0.22468636684719367,27.977185403602792
88.0,87.24218760107249,20.176793256947896,0.22484525927860186,27.98044343189046
89.0,91.6258268450591,19.861299381247825,0.2250320033827754,27.984277437786275
90.0,95.93427793089249,19.592921889919744,0.22524651957585792,27.98868811389281
91.0,100.13689467062832,19.374318893221275,0.22548872025031239,27.993676298177064
92.0,104.20200779162805,19.20796246913668,0.22575850987561444,27.999242961357453
93.0,108.0972288747759,19.096159756887563,0.2260557851109466,28.00538919293656
94.0,111.78974816453558,19.04106462133591,0.22638043492721152,28.012116186113968
95.0,115.24663936723906,19.044677259986752,0.22673234073754647,28.019425221691236
96.0,118.43518519531773,19.10883400890982,0.2271113765354543,28.027317651086882
97.0,121.32323884212012,19.235190384028954,0.22751740903960888,28.0357948785838
98.0,123.87963708871067,19.425199870706756,0.22795029784434243,28.044858342934923
99.0,126.07467872259059,19.68009034120043,0.22840989557478428,28.05450949845526
100.0,127.88067623724245,20.00083937947791,0.22889604804600974,28.06474979573274
101.0,129.27252657755633,20.388149023155226,0.22940859445071377,28.07558066224268
102.0,130.2285331156367,20.8424246152927,0.22994736746750738,28.087003482541622
103.0,130.73104020705364,21.36374769145242,0.2305121934350258,28.099019578379796
104.0,130.7671729635479,21.95185241705876,0.23110289250651989,28.111630188407837
105.0,130.3292253918897,22.606115535769277,0.23171927902179615,28.124836452409692
106.0,129.41603542649486,23.325545975275848,0.23236116120384348,28.138639388021442
107.0,128.03255660722664,24.108733431762687,0.2330283415844858,28.15303986807718
108.0,126.19008373039986,24.953905419295978,0.2337206174614049,28.16803862037921
109.0,123.90658768573454,25.85886092539013,0.23443778052447345,28.183636191192303
110.0,121.2062581222234,26.820992228546036,0.235179617175736,28.199832934476518
111.0,118.11875389050154,27.83729730952477,0.23594590881834718,28.21662900275014
112.0,114.67861571210763,28.904372673163532,0.23673643178159734,28.23402432457452
113.0,110.92421512664562,30.018431164091872,0.23755095750789115,28.252018593617493
114.0,106.89667114800574,31.17531744024395,0.2383892526541534,28.270611255416352
115.0,102.63876038272255,32.37048915292066,0.2392510791864869,28.289801495394933
116.0,98.19397200723401,33.59889911509321,0.24013619446802095,28.309588228264737
117.0,93.60563286965372,34.85489842180961,0.24104435134382077,28.329970088195967
118.0,88.91605162522119,36.13223824348747,0.24197529819750294,28.350945420118975
119.0,84.16574724892203,37.42411612143861,0.24292877901404966,28.37251227231076
120.0,79.39282137145179,38.7232362331441,0.2439045334281006,28.394668390003428
121.0,74.63250158615595,40.021870598782755,0.24490229676272915,28.417411210091355
122.0,69.9168580091145,41.311918751548085,0.24592180005894299,28.44073785692008
123.0,65.27467784581816,42.584967397483325,0.24696277009622772,28.464645139133463
124.0,60.73147163926219,43.832353179156385,0.24802492940452636,28.489129547549382
125.0,56.309579110472505,45.04523234846315,0.24910799626811672,28.51418725402892
126.0,52.02834081905767,46.21466161960386,0.25021168472192146,28.5398141113091
127.0,47.90430363371578,47.331694291365636,0.25133570454031445,28.566005653714512
128.0,43.95143193226407,48.38749547812994,0.2524797612177421,28.5927570986854
129.0,40.18131173489987,49.373475841119244,0.25364355595135124,28.620063349161615
130.0,36.603312924844744,50.28144951418823,0.25482678560787897,28.647918997032136
131.0,33.22473237022165,51.10380402289398,0.2560291426988875,28.676318326686467
132.0,30.050884734615654,51.83368524136654,0.2572503153459502,28.70525532071966
133.0,27.085178144147395,52.465183772980296,0.25848998724007183,28.734723663312533
134.0,24.329133096678554,52.99353592932089,0.2597478375400552,28.76471674259726
135.0,21.782453295039193,53.41525305817745,0.26102354092007785,28.795227665224633
136.0,19.44313263937574,53.72823504007834,0.2623167676026219,28.826249257487298
137.0,17.30737890308009,53.931899857409775,0.26362718308125904,28.85777407261609
138.0,15.369815474675953,54.02718665937789,0.2649544482355197,28.88979439673831
139.0,13.623604337112278,54.01651117324154,0.26629821931331554,28.922302261154368
140.0,12.060598052831958,53.90370944134858,0.2676581478179239,28.955289444650088
141.0,10.671563207967742,53.69388768677565,0.269033880520676,28.988747483483948
142.0,9.446410594301689,53.393244342559434,0.2704250594056592,29.02266767897872
143.0,8.374459625531056,53.00885354599598,0.2718313216755969,29.05704110574959
144.0,7.444696353323014,52.54843473082696,0.27325229971608606,29.091858619584873
145.0,6.6460271060848095,52.020120255647335,0.2746876210814057,29.127110865114478
146.0,5.9675097014009,51.43223335563018,0.27613690849044153,29.162788284017733
147.0,5.398560099511131,50.79308342152556,0.2775997798359496,29.1988811229774
148.0,4.929133356103622,50.110779838313405,0.2790758481702443,29.235379440829448
149.0,4.549867373215477,49.393075142274476,0.2805647217432125,29.27227311706921
150.0,4.252196551867784,48.64723712615949,0.28206600400588683,29.309551858457546
151.0,4.0284206801769304,47.87995857779428,0.2835792936457969,29.34720520685224
152.0,3.871741086118174,47.0973000868273,0.2851041846328696,29.385222546273734
153.0,3.7762659275244386,46.304661635843736,0.28664026624552724,29.423593109400745
154.0,3.736982185508946,45.506785878295524,0.288187123148023,29.462305984967077
155.0,3.7497155781538276,44.7077764079987,0.28974433543479783,29.501350123564407
156.0,3.8110666322240165,43.91113699922787,0.2913114787071432,29.54071434438233
157.0,3.9183445947859727,43.11981834889136,0.2928881241570419,29.58038734099697
158.0,4.069489579866832,42.33627320167932,0.2944738386527758,29.620357687509156
159.0,4.263001471547944,41.56251075911631,0.2960681848239482,29.660613843578098
160.0,4.49786364397942,40.800154464291964,0.2976707211765131,29.701144160192754
161.0,4.773472196272253,40.050495047257805,0.299281002187426,29.741936884555418
162.0,5.089545969702533,39.31454793541779,0.3008985785187001,29.782980168514108
163.0,5.446177040117363,38.59307178871698,0.3025229968655636,29.824262060321498
164.0,5.843588994591499,37.8866536072896,0.30415380052647156,29.865770530296516
165.0,6.282295348655948,37.19570563174553,0.305790529225131,29.90749345563226
166.0,6.76286849526275,36.520517134963924,0.30743271926073423,29.94941863589856
167.0,7.2860021189922675,35.861276383921435,0.30907990383054645,29.99153379430814
168.0,7.852483105034798,35.218092102210086,0.3107316130823432,30.033826579088657
169.0,8.463112284656896,34.59101485461004,0.3123873742209535,30.076284568075142
170.0,9.118687323617257,33.98005538051349,0.3140467118294697,30.118895274851845
171.0,9.820002853599691,33.38519762001178,0.31570914800511707,30.16164615013774
172.0,10.567795618100499,32.80641094872687,0.31737420241274533,30.204524583000076
173.0,11.36270625539165,32.24366099055623,0.3190413925921733,30.247517907375748
174.0,12.205267468592348,31.696917315457213,0.32071023416133604,30.290613405229806
175.0,13.095933368157999,31.16616380179503,0.3223802409231879,30.33379830486549
176.0,14.034901469490613,30.65140048118992,0.32405092504290106,30.37705978851185
177.0,15.02232034134439,30.152651109131,0.32572179748702296,30.42038499568322
178.0,16.057925967560347,29.669967604149154,0.32739236772668817,30.463761018253
179.0,17.141562626317544,29.203435536421498,0.32906214464481515,30.507174912877037
180.0,18.27240202346404,28.753163024241637,0.3307306360143493,30.550613700496324
181.0,19.449681889917183,28.319307273655014,0.33239734923389036,30.594064361848847
182.0,20.67209645616871,27.902044900398714,0.33406179123383095,30.637513854310626
183.0,21.938081372130675,27.501598453142904,0.33572346879159926,30.680949100006426
184.0,23.245592256349966,27.118219846262313,0.3373818886826765,30.724356997277457
185.0,24.592378175848534,26.752200030942607,0.3390365580031074,30.767724420638224
186.0,25.97559848016405,26.40386189081283,0.3406869842407697,30.811038222764964
187.0,27.392026796562924,26.073560494820352,0.34233267551912966,30.854285238773347
188.0,28.838024224835674,25.761684830577508,0.34397314084586156,30.89745228758421
189.0,30.309415292670263,25.468653601529308,0.3456078902920421,30.940526174930532
190.0,31.801559812577878,25.194912688619524,0.34723643511759594,30.983493696747594
191.0,33.30938902679339,24.94093715549257,0.34885828807863184,31.026341641395348
192.0,34.82726836855756,24.70722547421886,0.3504729635574997,31.069056792542185
193.0,36.349106156989514,24.494299111812822,0.3520799777635235,31.111625932312194
194.0,37.86834982661354,24.30270012301495,0.35367884890654805,31.15403584409534
195.0,39.37801857034922,24.132989088428,0.3552690974112589,31.196273315696743
196.0,40.870700625560275,23.985742066619707,0.35685024611512395,31.238325142484726
197.0,42.3386053956327,23.86154732598443,0.3584218204113429,31.28017813047361
198.0,43.77361731158224,23.761002480176565,0.35998334841537444,31.321819099454803
199.0,45.16736199039083,23.684711332460903,0.361534361145691,31.363234886360143
200.0,46.511265442596766,23.633279860037824,0.36307439274811854,31.404412349086414
201.0,47.79661216759031,23.60731149570222,0.36460298061796836,31.44533836959498
202.0,49.014646900880436,23.60740284371528,0.3661196655377547,31.48599985730845
203.0,50.15666809639079,23.63413881424092,0.36762399183032823,31.52638375263114
204.0,51.21414604668846,23.688086840681578,0.3691155075683117,31.566477031336124
205.0,52.178797487995425,23.76978991115185,0.3705937647259483,31.6062667081828
206.0,53.04270872021392,23.879760290157247,0.37205831926813737,31.645739840294624
207.0,53.7984497102527,24.01847237121794,0.3735087312826197,31.684883530931348
208.0,54.439205973676074,24.18635455047744,0.3749445651434514,31.723684933960573
209.0,54.958876735927824,24.383779274709955,0.37636538969640265,31.762131258393136
210.0,55.35219144753979,24.611053292245764,0.3777707783814835,31.800209772646777
211.0,55.61475961245358,24.86841032340929,0.3791603091813266,31.83790780598852
212.0,55.743259645915785,25.155999644226316,0.3805335648665851,31.87521275574683
213.0,55.735480825996795,25.47386454324813,0.38189013348577927,31.912112095734642
214.0,55.59014029964524,25.821962070234576,0.38322960721148686,31.94859336078847
215.0,55.30758583502115,26.200085964683236,0.3845515849598502,31.98464419524342
216.0,54.88895994342104,26.607948218490833,0.38585566887624617,32.02025229672013
217.0,54.33678810417145,27.04507479387903,0.3871414680500447,32.05540547553653
218.0,53.65460917634217,27.510863535749426,0.3884085959732443,32.09009161998433
219.0,52.84726044926455,28.0045171950749,0.3896566724021131,32.12429873358935
220.0,51.920466372455806,28.525077247580654,0.3908853222088299,32.15801491227159
221.0,50.88093785184684,29.07139091173325,0.3920941760673316,32.1912283635957
222.0,49.736237463326425,29.64210065021511,0.39328287055074096,32.22392741219571
223.0,48.49462036586582,30.235643456039753,0.39445104807716114,32.2561005007947
224.0,47.164912169103125,30.850248857106557,0.3955983568368807,32.287736193127465
225.0,45.75639077244997,31.48392724682641,0.39672445112133614,32.31882318349417
226.0,44.27864414296019,32.13447091125943,0.3978289912926298,32.349350300620586
227.0,42.741440209826756,32.79945619238825,0.3989116438625577,32.37930651238504
228.0,41.15460623988724,33.476248529142914,0.39997208153257574,32.40868093061315
229.0,39.527919784643444,34.16201015053004,0.40100998325405984,32.437462816173436
230.0,37.871011523829196,34.853711187873536,0.40202503428660874,32.46564158408304
231.0,36.193279610383875,35.54814400209239,0.40301692626412006,32.493206809108514
232.0,34.50381619078266,36.24194160693324,0.40398535728818896,32.52014823184218
233.0,32.81135114963833,36.93160199783361,0.4049300319482813,32.5464557628173
234.0,31.124206012261613,37.61351508927921,0.405850661357745,32.57211948752612
235.0,29.45025786465363,38.28399329580041,0.40674696320256803,32.59712967155651
236.0,27.796911371410083,38.939305753047485,0.40761866178877454,32.62147676573454
237.0,26.17107496106036,39.57571641892422,0.40846548810872735,32.6451514121935
238.0,24.57914317053916,40.18952632543212,0.40928717991540714,32.66814444992973
239.0,23.02698633511465,40.777117446468935,0.4100834817258563,32.690446918778
240.0,21.51993991724172,41.334997884641055,0.41085414485704896,32.71205006443013
241.0,20.062795222016284,41.859847960329546,0.4115989274680062,32.73294534345749
242.0,18.659791067883532,42.34856643832428,0.4123175946022441,32.753124428390585
243.0,17.31460348240652,42.79831799437824,0.4130099182616638,32.772579214104574
244.0,16.03034096130821,43.206576431349326,0.4136756774565342,32.791301822389755
245.0,14.809544096053617,43.57116245500138,0.41431465820755264,32.80928460585647
246.0,13.654186116005608,43.89027725949275,0.41492665357750375,32.826520152462905
247.0,12.565676358700225,44.16253050064335,0.4155114637445364,32.843001290774644
