Time,J,A,S,tau
0.0,1.0,1.0,0.5553605633607395,30.3030303030303
1.0,6.230766593814854,4.272887135226375,0.5254842197411449,30.426241479774042
2.0,15.804662920852588,7.205124408999607,0.4969823047850318,30.552712356206502
3.0,25.963076404776054,9.820173802450894,0.469807215598143,30.682399915210784
4.0,35.39053942757961,12.140311233961242,0.4439119183725448,30.815260462769174
5.0,43.709412362099044,14.186667511890468,0.4192500800351755,30.951249101428722
6.0,50.89943302549104,15.97927668040968,0.39577621868688057,31.09031641781351
7.0,57.067677082894285,17.53710147396225,0.3734458346200105,31.23241398753015
8.0,62.35677011645828,18.878018915892365,0.352215066183222,31.377512496875237
9.0,66.90873863918516,20.01899529097522,0.332041128810335,31.525550199951958
10.0,70.85227617224231,20.975993439248732,0.3128821378038412,31.67648339120722
11.0,74.29923849282375,21.764091022181407,0.2946972461513401,31.830253177410782
12.0,77.34489925051733,22.39743153688619,0.277446456576568,31.986822221418098
13.0,80.06966972334169,22.889282179098757,0.26109064776867325,32.146167543756675
14.0,82.54112242102872,23.252208205787333,0.24559207480830908,32.308213384994076
15.0,84.81576322207525,23.497933392126114,0.23091380648970902,32.472912613389944
16.0,86.94090519011651,23.637437519450376,0.2170200103570961,32.64022184092109
17.0,88.95593259531582,23.68096925145377,0.20387576231352614,32.81010556025804
18.0,90.89374242163835,23.638131521631838,0.19144733206896972,32.9825129623392
19.0,92.78140020881501,23.51788417066245,0.17970199697593078,33.157383726842646
20.0,94.64140433697561,23.328551732221648,0.16860810801932533,33.334680815164596
21.0,96.49191895039851,23.077872678734998,0.15813501463663474,33.51436258959017
22.0,98.34761822466521,22.773028886162898,0.14825306769852975,33.696383842770985
23.0,100.22011224196372,22.42071560220708,0.13893382647153424,33.88067369091246
24.0,102.1182233807164,22.02704552410556,0.130149602077447,34.06722790343184
25.0,104.04834937154236,21.59775038134801,0.12187399038759017,34.25595808713417
26.0,106.01464326391671,21.138070900113878,0.11408146307236101,34.44681647549463
27.0,108.01937961325223,20.652811004776524,0.10674742466599106,34.63977264290165
28.0,110.06307602317504,20.146399015840693,0.0998483053663815,34.83476728142372
29.0,112.14455192044349,19.622850333512474,0.093361382171096,35.03179476627754
30.0,114.26116112830901,19.08591350135053,0.08726510770853621,35.23073138028046
31.0,116.4089040941936,18.53891066977397,0.08153856468138672,35.43158848969555
32.0,118.58237167144263,17.984902486532093,0.07616186692103069,35.6343028285322
33.0,120.77504932464502,17.4266584521737,0.0711160003191297,35.83882025038931
34.0,122.97925608565053,16.86666004111768,0.06638273554866732,36.04510521842137
35.0,125.1862821480192,16.307130771565813,0.06194465948797371,36.253136038544916
36.0,127.38654421372476,15.750111330990205,0.05778532013222573,36.46279615931294
37.0,129.57477154833458,15.192899716983842,0.05416428215442096,36.72514806769863
38.0,131.46391477128296,14.881418031244209,0.053239794641573586,36.79527291480081
39.0,133.11671989769312,14.70902234619567,0.05239279470797229,36.86830512616739
40.0,134.61874915856015,14.578195666301133,0.05159877183037164,36.94433967133252
41.0,136.00966087605198,14.44685722165373,0.050837935006828414,37.02103649421139
42.0,137.29572548795767,14.291343639386572,0.05009440145630957,37.09496483620994
43.0,138.52930105268308,14.105271545138875,0.04935381641408419,37.16385770404123
44.0,139.72980481672118,13.887276349565607,0.048605033948150946,37.227017462141205
45.0,140.90861574238693,13.639306554258983,0.04783188464245575,37.28715502466916
46.0,142.11700107678203,13.317315175013436,0.046675538713866635,37.41038857345746
47.0,143.4081443305273,12.86001979957864,0.044481159148311335,37.7019206118337
48.0,144.48254698177482,12.578236752015137,0.043775400737639025,37.761783797302954
49.0,145.50870757199826,12.30302608665852,0.043139235384792946,37.81968183212269
50.0,146.48243384902264,12.033335613637467,0.042548195325964114,37.87922470187313
51.0,147.39674452775628,11.768693418354346,0.041991297903788874,37.939927016379876
52.0,148.24232175982357,11.50878262812734,0.04145946619133989,38.000499756531006
53.0,148.9746874157329,11.251205373237267,0.0409456626577623,38.05920223773109
54.0,149.63803352474673,10.999449334337223,0.04044338115676982,38.11479447999578
55.0,150.24035940679053,10.753903796722867,0.03994798264811446,38.166486167097325
56.0,150.78562139101908,10.51442468967682,0.03945552260713208,38.21429400094777
57.0,151.27761650120175,10.280794352071073,0.03896121326342189,38.25928731543421
58.0,151.72139236701014,10.050017001651254,0.038438635759771037,38.308814305868914
59.0,152.2848989688921,9.653141566699068,0.036460885295185264,38.63864883170904
60.0,152.62632763574638,9.429258476430471,0.03585683328746153,38.715600515690504
61.0,152.89154119127107,9.239271210315435,0.03542553524996859,38.758567136457785
62.0,153.09946667687123,9.064703423075853,0.03503513372710162,38.798658265272245
63.0,153.2523394417042,8.903593028097642,0.03467340278609183,38.83838444463123
64.0,153.35145809539668,8.754849593287435,0.03433572770523052,38.87795486728428
65.0,153.39879370677457,8.617533364784114,0.03401883492130843,38.9170842992826
66.0,153.3965807686641,8.490786769157275,0.03372011709004927,38.95536890352723
67.0,153.345759363768,8.373759834395663,0.03343740159959514,38.99240454640843
68.0,153.2085271712767,8.263718779864599,0.033169489486415286,39.02760813193446
69.0,153.0318737677935,8.162164744717977,0.032914644329390196,39.06086405025354
70.0,152.8313201681938,8.068981719652449,0.032672035858552245,39.09194552461368
71.0,152.61465598123496,7.983746387582848,0.032441129563910105,39.12072744645532
72.0,152.38831603290197,7.906030138035024,0.03222154336218172,39.14724446864264
73.0,152.15797520102768,7.835469095824231,0.032013116995746535,39.17155516094952
74.0,151.9287868579055,7.771756906898635,0.03181575595871357,39.19379350112825
75.0,151.70511594586446,7.714622764684194,0.03162947956027429,39.2141369055947
76.0,151.49114883547279,7.6637614048262295,0.03145411611932422,39.23288616307482
77.0,151.28984232521393,7.618933253406086,0.03128942057307321,39.25030041843077
78.0,151.1050529942916,7.578234057473596,0.03113425579110942,39.26698239966115
79.0,150.9396125457643,7.539951548031873,0.030986369882232707,39.28381705636954
80.0,150.7957470717057,7.502701681304374,0.030840606926592892,39.30241843701358
81.0,150.67722575088473,7.463300813264023,0.030679281902780055,39.32769557671734
82.0,150.6012446708228,7.405024632879111,0.030336690094484812,39.39914092871825
83.0,150.61665574813884,7.279586340299616,0.029157509189993245,39.649028500967155
84.0,150.56320384032492,7.248525683709613,0.029011468736203926,39.678107534272314
85.0,150.52620882869851,7.227771525967909,0.028929387572495194,39.69205065437492
86.0,150.5109902508814,7.213015124163412,0.028875546580985123,39.700373790730204
87.0,150.51968973996364,7.203140244538264,0.028841802418694953,39.705372605047664
88.0,150.55373907987428,7.197620454386709,0.02882564195716845,39.70773647186718
89.0,150.6143663708012,7.196109766816368,0.028826130371569853,39.70774013293669
90.0,150.7025321462093,7.198269070632989,0.028843444727672193,39.705326193284236
91.0,150.81898162399023,7.203967849448601,0.028879174383671696,39.700038104543765
92.0,150.9636911668065,7.213386840738534,0.028936964907226827,39.69086860318703
93.0,151.13600922284246,7.226683254705383,0.029029762929715746,39.67422223442509
94.0,151.32493930477995,7.255029785547274,0.02925799810727371,39.624627775195705
95.0,151.46429896275393,7.364520986680273,0.03059701531972226,39.344658443661615
96.0,151.7180169459949,7.391444182357867,0.030801953402241577,39.30740421979554
97.0,152.00817662622867,7.4140090258831535,0.030957331159340743,39.28549803491216
98.0,152.3299678130515,7.437185383644994,0.031108235904691733,39.267271009452394
99.0,152.68223223757414,7.462210559419848,0.03126445028790259,39.2498502067994
100.0,153.0644530401326,7.489655606171307,0.03142939934126082,39.23203542359517
101.0,153.47639246942634,7.519773357471171,0.03160452875964804,39.21320441949104
102.0,153.91789248739434,7.5527405950427084,0.03179056413188811,39.19289358250826
103.0,154.38876312440394,7.588643754844862,0.031987701051952686,39.17082856920899
104.0,154.8889709202616,7.627567622987431,0.03219611964751428,39.14676945521292
105.0,155.41840152403077,7.66955419449163,0.03241583230806449,39.12060503344514
106.0,155.97690618181298,7.71458699760134,0.032646973693164466,39.09230132784087
107.0,156.56571748715578,7.761387067223692,0.032889981784562566,39.06185126497361
108.0,157.1831504372216,7.811460392248499,0.03314549421242092,39.029319466889916
109.0,157.83298704888568,7.865510406918981,0.033414558551771924,38.994835150027704
110.0,158.54039597670615,7.924886923182882,0.033697910401003915,38.95889921352812
111.0,159.27295620998476,7.988409396242329,0.03399767905394962,38.921668055895225
112.0,160.02687485671197,8.056019379089799,0.034315846730093594,38.88361841804349
113.0,160.80058274836995,8.127681636103851,0.03465504117061156,38.84513293633137
114.0,161.5927524781737,8.203285231596128,0.0350186206087674,38.8064162254026
115.0,162.40168850070035,8.282907989984372,0.03541270512620173,38.76684011812305
116.0,163.22353629001557,8.368510835517304,0.035858086094571785,38.721680432956155
117.0,163.9352381195865,8.580413470592454,0.038202537033207196,38.3392269587476
118.0,164.75827531092193,8.692221959271773,0.038864691956918114,38.25980922432993
119.0,165.60421386165575,8.795128314988805,0.03937170705864999,38.21377641071276
120.0,166.45700866496642,8.904884017023743,0.03987022988316434,38.167086283702666
121.0,167.31497308669802,9.022531360452879,0.04037081425377899,38.117027477512394
122.0,168.17752389531674,9.147878807941932,0.04087779629370413,38.06343483088309
123.0,169.04571799228614,9.28071966744208,0.04139627484984049,38.00686977300311
124.0,169.94828710478058,9.422283530410805,0.04193197683367624,37.948610007328284
125.0,170.85020263324023,9.570537370267957,0.04249276626746229,37.89001083763134
126.0,171.7436685734607,9.724757021923526,0.0430874410207135,37.83238274878785
127.0,172.62376842752343,9.884194964153718,0.04372866880473684,37.77575411458358
128.0,173.48182775590504,10.051883552682469,0.04445938986916053,37.71275893397417
129.0,174.1480814259145,10.387074264131403,0.04761338042115677,37.296104403461605
130.0,174.93028171116538,10.57612375737135,0.04844463877046882,37.22875561385652
131.0,175.67841278030866,10.772533673355413,0.049208928280740534,37.16761835473823
132.0,176.38495325046293,10.981658774138289,0.04996124236811794,37.10181752110831
133.0,177.0498016603986,11.20228686538344,0.050714566013108364,37.031377441080586
134.0,177.69269233844668,11.434459178787877,0.05148253991990889,36.95828204699834
135.0,178.29502773910352,11.676513766566044,0.05228253851635899,36.885140212013965
136.0,178.83859157814558,11.926246618885703,0.053133848288446375,36.81439846884114
137.0,179.31528902274812,12.182462244485004,0.054066815170670725,36.74510113324894
138.0,179.5497552297059,12.610821342715175,0.05749143907915464,36.381396759062646
139.0,179.79911036038447,12.933348704405285,0.05903332867260333,36.247372191723656
140.0,179.99382077986826,13.230052940449157,0.06007554069715878,36.17559307391287
141.0,180.08849699800095,13.544314188342215,0.06108277518704164,36.0982074834827
142.0,180.0851883871287,13.873632781649764,0.062082025486522883,36.01513200554753
143.0,180.00306652146168,14.218082340208802,0.06310045343571759,35.92975917387454
144.0,179.81420577188737,14.574127496734896,0.06417056906470095,35.84632259959647
145.0,179.5084890348983,14.939167668259534,0.06533106762030529,35.767006312968554
146.0,179.05872722414037,15.33097271033385,0.06677325984428009,35.66912428371127
147.0,178.22636000358403,15.966573344685496,0.07126570875598616,35.26775635008496
148.0,177.48227966568842,16.38342628916574,0.07260832229449297,35.187295028149194
149.0,176.59052219374968,16.82094966043418,0.07387946727778694,35.10092978433032
150.0,175.55718843451146,17.275647750685412,0.0751279528786036,35.00774965484203
151.0,174.39474159026344,17.746910926286503,0.07639880998920147,34.91263045675315
152.0,173.0874203513649,18.23076023219964,0.07774492878694231,34.821164929726216
153.0,171.63008089310662,18.7254540262932,0.07923325324140518,34.734461186515276
154.0,169.72932874165608,19.519962477063967,0.0842632231696959,34.35031082159085
155.0,167.90710011018228,20.08232300531344,0.08622267242310544,34.23910147966033
156.0,165.95426711594936,20.638212211999026,0.08780429942551322,34.14972061830765
157.0,163.85014238787898,21.21190159111729,0.08931360779056416,34.051519749615466
158.0,161.5988165878322,21.803922778282217,0.09081497263973766,33.94827971992943
159.0,159.20197114952217,22.412177569805245,0.09238051281536871,33.84748344538097
160.0,156.66144439448763,23.034697754600536,0.0940939325627992,33.75356332907189
161.0,153.92803563451534,23.727001841645315,0.09650230460445368,33.62098079611063
162.0,150.7654689643878,24.723581735919705,0.10203953901412306,33.268076875597494
163.0,147.81209236731814,25.402944218024814,0.10393835238676646,33.1750549709614
164.0,144.75115701322426,26.087960148134293,0.10571007872601586,33.072736390672674
165.0,141.5880275069123,26.776489392416078,0.1074445928574079,32.96370136629487
166.0,138.31407334507892,27.47678715408382,0.10923725601584343,32.856540001235246
167.0,134.93811924347008,28.197002492924867,0.11119475519589463,32.75742729815297
168.0,131.44167685225696,28.96963821667925,0.11367124173182815,32.64373147740572
169.0,127.45770780477267,30.17069389561047,0.12002107880752778,32.2887762620353
170.0,123.86603516136921,30.933680452961383,0.12222965169619833,32.19333619381421
171.0,120.25326393402504,31.67704120799427,0.12425028093582537,32.0889464571113
172.0,116.62058517765729,32.39829200697405,0.12620009406267743,31.976742644079568
173.0,112.94202736438766,33.117138288105686,0.12819628697555216,31.8658221986303
174.0,109.2312856578778,33.849955929927035,0.1303659119653162,31.763618876161747
175.0,105.47917863945995,34.62462956458408,0.1329495443527903,31.660403019239226
176.0,101.21061916718544,35.929407248537586,0.13987349317689607,31.321149794107416
177.0,97.51395918245052,36.6848766615492,0.142434024135922,31.22482031335619
178.0,93.90660967168658,37.376237420506456,0.1447033260878893,31.123247540384952
179.0,90.37571376704204,38.01115724151479,0.14684400612031318,31.012498787557796
180.0,86.8802463131987,38.61609079747071,0.14898431053588887,30.900393998455165
181.0,83.42150700321844,39.21514612882478,0.15126071112934003,30.795842035766082
182.0,79.99301486775674,39.835518086914774,0.1538173038919031,30.700244917371236
183.0,76.22261324561578,40.86290398405738,0.15960685319777254,30.459636427065337
184.0,72.73181310615196,41.681747121280814,0.16398622049907896,30.29345744431309
185.0,69.6110005403754,42.20356591840207,0.16658875188493494,30.202081918864014
186.0,66.65587966004624,42.627520199879264,0.16895090182992167,30.10222608061631
187.0,63.82571277482929,42.98410707505351,0.17119643128530537,29.995441189921998
188.0,61.08325954931385,43.30004086203658,0.17345149936034865,29.88945117466413
189.0,58.42981595719103,43.59367104635857,0.17584345398840745,29.791522681027175
190.0,55.857991580792294,43.886617073454694,0.17849317461597036,29.702762223477805
191.0,53.27333954253075,44.28090719531326,0.18205812253236045,29.589005620719114
192.0,50.40490240094501,45.04974639808508,0.1886847802720495,29.348259786675996
193.0,48.19595790458734,45.248880172797044,0.19159686184381558,29.265044355282317
194.0,46.19883856028547,45.32206423717067,0.194150202730313,29.18133758471351
195.0,44.3629373203118,45.31310497115799,0.1965046136838562,29.090903244146173
196.0,42.650583096809164,45.25115988751954,0.19875693696574653,28.996249064723553
197.0,41.042779888065816,45.14925296352822,0.20100344579964702,28.90309188322037
198.0,39.53968799715978,45.015722635934914,0.20333602412076415,28.816552085266608
199.0,38.131768207788376,44.867412625068795,0.20583373933734433,28.73834854568452
200.0,36.80279498306871,44.72480603825379,0.20858047093936805,28.665398970201153
201.0,35.47412416136688,44.667898022350535,0.21227018743573126,28.564643389646225
202.0,34.038722414063685,44.80349738771068,0.21799199873981503,28.390014793726387
203.0,33.05022668827233,44.57628673251182,0.22103110795337513,28.317439458463163
204.0,32.23767461504128,44.25482164386547,0.2236115719667873,28.254357792826745
205.0,31.554745093982376,43.88180651027887,0.225981410536584,28.188964424403785
206.0,30.97983991674985,43.47447912213437,0.22819662160362122,28.1203679106502
207.0,30.498686980675327,43.04295724799045,0.2303081632316645,28.049609045538052
208.0,30.10864637814197,42.58718168815355,0.23236472907268024,27.97889126707964
209.0,29.802655458613405,42.11482049566219,0.23440893637507854,27.91082899399836
210.0,29.57698207438296,41.63190712693339,0.23647740442047208,27.847369361966305
211.0,29.428344020419615,41.14356079416922,0.2385995698260944,27.78926798418026
212.0,29.351676536537827,40.65574804217651,0.24079488717897765,27.736355716722116
213.0,29.341630600527424,40.17422058998003,0.24307669994746486,27.68763923090649
214.0,29.392450711038514,39.7046220392167,0.24547622551424758,27.640620159992384
215.0,29.49385522433566,39.25716425271382,0.24813878815741408,27.588136122529612
216.0,29.61950553278444,38.85820463144159,0.2514769419586147,27.51447004270122
217.0,29.804713112254635,38.47168863168266,0.25494595861604447,27.437551905750656
218.0,30.125932151086104,38.0198725508052,0.25760212458004256,27.387671442137275
219.0,30.542944373315322,37.54135472096478,0.2598527419827736,27.349922466962013
220.0,31.03341089767146,37.056419024011326,0.2619146763406185,27.316036627092835
221.0,31.588106261895533,36.57218766174286,0.263852758067478,27.28339622772992
222.0,32.20306222089443,36.09042534832665,0.2656893706441383,27.25123469186902
223.0,32.87450035997517,35.61303543637094,0.26743677391535337,27.219369135187353
224.0,33.59990332922163,35.14104506916591,0.2691050609724294,27.18781220883147
225.0,34.37387998587809,34.67855895126361,0.27070342922463936,27.156660258117117
226.0,35.19112209363247,34.22908235460108,0.2722399521444075,27.12605472805389
227.0,36.0467566872139,33.79505928280727,0.2737216405310118,27.096165851856274
228.0,36.93642545506827,33.378030441169685,0.27515407230220096,27.067186585378067
229.0,37.856167908688356,32.97897884340849,0.27654167549425085,27.039287305953795
230.0,38.80231408237827,32.59835302963627,0.2778879701860485,27.012621428270705
231.0,39.77137543587338,32.23642876349167,0.279195715868948,26.987293007874893
232.0,40.76024388660797,31.89295272148558,0.2804666649719683,26.963381578307004
233.0,41.76619358243482,31.567402599203366,0.28170218533037766,26.940926294885298
234.0,42.78667009222044,31.25921074162765,0.2829028714016671,26.919934101887858
235.0,43.81852566580354,30.96828812379949,0.2840693408790048,26.900389688445326
236.0,44.857669326187164,30.695457795265995,0.2852016595532662,26.882235951169132
237.0,45.899070573412274,30.441913411782533,0.2862994663899591,26.865419359825527
238.0,46.93755251295096,30.20891676983533,0.28736264954650226,26.84985184071881
239.0,47.96780059795589,29.99722220734526,0.2883905097001252,26.83546337937228
240.0,48.984423551535905,29.807479369457397,0.28938254231079985,26.822181011393
241.0,49.98201555251603,29.64015259275441,0.2903381577079504,26.809928516470553
242.0,50.954963185957155,29.495818755201814,0.2912566124375301,26.7986391401004
243.0,51.89753786530959,29.375019785831025,0.2921371068683077,26.788250132197334
244.0,52.804168309816916,29.278095594440597,0.29297964390505954,26.77867811963142
245.0,53.669904334459765,29.204888263514103,0.29378278777674877,26.769902154623924
246.0,54.48980055923562,29.155283168163695,0.29454665245827283,26.761835606934643
