Time,J,A,S,tau
0.0,1.0,1.0,0.6511784861138288,30.3030303030303
1.0,9.83106957807904,5.323544952959949,0.6514433885242219,30.352847113585817
2.0,20.487492269192362,9.501861160233153,0.6516739485430213,30.401591793295967
3.0,27.177437486563242,13.539486681375418,0.6518694502978193,30.449244493466963
4.0,29.908597738761895,17.44079922414146,0.6520290267842261,30.49578642812014
5.0,29.79751118068974,21.210021819030267,0.65215185906498,30.54120003250053
6.0,27.861132655524877,24.851225058513137,0.6522372690506206,30.585470313641153
7.0,24.81345719001114,28.368350611183608,0.6522843620171991,30.628579672613142
8.0,21.111383368706854,31.76520254111833,0.6522925163243335,30.67051153617859
9.0,17.03597649675727,35.04544508809665,0.65226098921652,30.711252985371768
10.0,12.757103592385137,38.21263688357214,0.6521889042696339,30.750785037861363
11.0,8.376918843486845,41.27019702076093,0.6520755479412971,30.789094672652602
12.0,3.95693371679252,44.22143420111181,0.6519201977742572,30.826167339497157
13.0,-0.4655721277204243,47.06954452135701,0.6517222195746474,30.861988850032787
14.0,-4.867770777250731,49.8176049054626,0.6514808367898886,30.89654920861783
15.0,-9.235571283719496,52.46860926580109,0.6511953082416797,30.92983004921771
16.0,-13.560094161071861,55.02542986874349,0.6508649009131736,30.961821429585314
17.0,-17.835700414486883,57.49085860885007,0.6504891445933267,30.992506302750108
18.0,-22.05873058022342,59.86759444986447,0.6500671649543528,31.021865988190847
19.0,-26.226681157628107,62.15821172153999,0.6495984199711925,31.04989847823178
20.0,-30.337901653394614,64.36523072056572,0.6490823483028622,31.07658620345471
21.0,-34.391146255057976,66.49106527205193,0.648517412892311,31.101917188763778
22.0,-38.3855975873137,68.53805546756837,0.6479042042849922,31.12588428271882
23.0,-42.32060638280143,70.50847455971184,0.6472419031478427,31.14846957790851
24.0,-46.1955877918569,72.40449567145089,0.6465293500837345,31.169665436868595
25.0,-50.01012180464073,74.2282174244435,0.645766869592242,31.18947380210127
26.0,-53.7638405455159,75.98169285269127,0.6449533524021237,31.207872862042635
27.0,-57.4564622620389,77.66689850869089,0.6440886917681802,31.22484927341553
28.0,-61.08767343677128,79.28572961371506,0.6431723292695727,31.240398279015885
29.0,-64.6571821177262,80.84002930447562,0.6422037249191598,31.25451422479858
30.0,-68.16468114380729,82.33156583951273,0.6411821487924867,31.267195478974994
31.0,-71.61007396990702,83.76206385328447,0.6401085516436993,31.278435545034096
32.0,-77.33246424467394,87.45603208645566,0.6396320546074906,31.28112978282303
33.0,-86.5569534235829,94.55372863384076,0.6381654154148451,31.238547133471855
34.0,-93.3191802493336,99.09838144178632,0.6366264380434481,31.19331595726355
35.0,-97.19067274266753,100.72691876751996,0.6350243238039248,31.14526210004897
36.0,-98.95496612910887,100.2779530896015,0.6333703750237938,31.094506222327052
37.0,-99.36592592760393,98.54099713453601,0.6316768795318326,31.041573834943666
38.0,-98.94754731503187,96.0604811664376,0.6299567156644421,30.987425669694257
39.0,-98.03237337397142,93.1796392993411,0.6282222757413544,30.93330058891498
40.0,-96.8289554738688,90.11124147413416,0.6264890374083729,30.880386038215335
41.0,-95.46540133511924,86.98416069341653,0.624770493804497,30.8295522238422
42.0,-94.01634740957931,83.87223334452982,0.6230811650057012,30.78120026765658
43.0,-92.52366142623235,80.81506553748426,0.6214363601176677,30.735345711312636
44.0,-91.01077279886097,77.83338775989576,0.6198480305691635,30.691773960414515
45.0,-89.49104795465755,74.93768636512104,0.618322388044599,30.65013288990497
46.0,-87.97237264296773,72.1328766852189,0.6168588646580008,30.610022046592537
47.0,-86.45923342374803,69.42058898769486,0.6154488881484074,30.571013490563026
48.0,-84.95416302710086,66.80063128477842,0.6140771509856019,30.532708854138907
49.0,-83.45825153086548,64.2716008958926,0.612721533989585,30.494701896910936
50.0,-81.97146542848179,61.83154921057001,0.6113554379849863,30.4565900025101
51.0,-80.49307930156607,59.478220898913506,0.6099530019474237,30.417953937950482
52.0,-79.02179313360992,57.209263809520586,0.6084912205789084,30.378410623299562
53.0,-77.55545952883939,55.02220844565169,0.6069537988445077,30.337518894665997
54.0,-76.09112040886411,52.91451821801281,0.6053321233900694,30.294843406168763
55.0,-74.62490089750865,50.88363480627754,0.6036258424275737,30.24998966538414
56.0,-73.15198792287438,48.926977834745884,0.6018425416804696,30.202581843715397
57.0,-71.6664347341157,47.04205992917564,0.5999939101080776,30.15246587502839
58.0,-70.16116360947537,45.226427026621046,0.5980951984664388,30.09977490520963
59.0,-68.62793514878784,43.47772084349857,0.5961630572525489,30.045101767507955
60.0,-67.05712633311437,41.79360969598448,0.5942139632396225,29.98949510784846
61.0,-65.43770457680009,40.171833540043124,0.5922633145464935,29.934296008348802
62.0,-63.75715069614079,38.610212481717305,0.5903268219114991,29.880738348355962
63.0,-62.00135748820608,37.106574487705274,0.5884203692664071,29.82966384753271
64.0,-60.15510211223617,35.658966638338356,0.5865602695138709,29.781417662814537
65.0,-58.20134333840823,34.26543677030528,0.5847603066107411,29.735977184074727
66.0,-56.122375681194825,32.924097422248934,0.583032908759635,29.693082778033983
67.0,-53.89869800122302,31.633097559939806,0.5813826551224629,29.652354156353855
68.0,-51.51020934134723,30.39065849777849,0.5798089004938144,29.613370286362102
69.0,-48.935995530690356,29.19506742098057,0.5783025944033214,29.575729458174663
70.0,-46.154521367390906,28.044684650531202,0.5768474044721971,29.539040874504522
71.0,-43.14407655864664,26.93794710965562,0.5754219538694132,29.502942983930254
72.0,-39.88315706250711,25.87335649063817,0.5740020261909762,29.46709239849245
73.0,-36.35084527049456,24.849494025586203,0.5725638789109337,29.431170926555453
74.0,-32.52690836163001,23.86501448549105,0.5710865161117659,29.394860554233567
75.0,-28.39245147042099,22.91867634078793,0.5695545219259593,29.35784314044145
76.0,-23.930222912311923,22.009361910203147,0.5679589238007982,29.319806871987122
77.0,-19.125185020720476,21.13609777721011,0.5662975453960776,29.280458203618156
78.0,-13.964852742557904,20.298080706491877,0.5645743562452573,29.23954365602831
79.0,-8.439840613253182,19.49470756149951,0.5627979888005238,29.196886292268378
80.0,-2.5442756550470387,18.725620819032933,0.5609799899343212,29.152445981127187
81.0,3.723573020286141,17.99076812994625,0.5591332829273458,29.10638607679347
82.0,10.36076955582346,17.290467865196394,0.5572708510925858,29.0591282150969
83.0,17.35919320275336,16.625444050685196,0.5554050827072945,29.011350021511102
84.0,24.705064852733035,15.99679826385149,0.5535475771044015,28.96388817741913
85.0,32.37854615604218,15.406026229476582,0.551709344075065,28.917569608442015
86.0,40.35292093177043,14.855142461622313,0.5499009822604649,28.87304487138527
87.0,48.59442934830089,14.346842896231271,0.548132752954889,28.83070434571979
88.0,57.06155396903732,13.884577028576356,0.5464142568090768,28.790690057719292
89.0,65.70484161663153,13.472710013506878,0.5447539018446029,28.7529525140504
90.0,74.46655352672342,13.116729067570589,0.5431583770271367,28.717335583210062
91.0,83.28041740815897,12.823456149181595,0.5416311829458503,28.68361197738148
92.0,92.07202367042568,12.601253836831257,0.5401728890999637,28.65153812846021
93.0,100.75863562111451,12.459728724147451,0.5387806449246646,28.62088770634726
94.0,109.25024030401013,12.409238853279989,0.5374492301068853,28.591416762079454
95.0,117.45080605499945,12.459940736815808,0.5361705010320494,28.56292053772254
96.0,125.25925271365753,12.621159370218113,0.5349341487830569,28.535213239742586
97.0,132.57023484864405,12.901212610086747,0.5337288538327157,28.50813134257365
98.0,139.27568724483535,13.307467334684906,0.5325430306663564,28.481540912712262
99.0,145.26654371360482,13.846603389039572,0.5313657176243651,28.455324561893327
100.0,150.4359498451343,14.524919506610303,0.5301873533132274,28.429372311129395
101.0,154.68401687804064,15.348441510390085,0.5290005592896552,28.403584142690416
102.0,157.9238537883786,16.323043476753885,0.5278002434858048,28.37786043034043
103.0,160.0880633691425,17.4543061173161,0.5265835342781798,28.352113043343977
104.0,161.1347213340135,18.74750031144143,0.5253497515647213,28.326265108094933
105.0,161.0516607191983,20.207287930855426,0.524100162512481,28.30025666743607
106.0,159.8585766526863,21.837585145143933,0.5228374953691943,28.27403882751889
107.0,157.60571063627594,23.64116678766171,0.5215652623267967,28.247591269936954
108.0,154.36902216719702,25.619658377006573,0.5202881005971127,28.2209050291576
109.0,150.24401982745076,27.77298793600308,0.5190107445225906,28.19400347700448
110.0,145.33782677170188,30.099177111494452,0.5177380171151643,28.166936880036438
111.0,139.76188431866126,32.59377326575168,0.5164745225779674,28.1397801877421
112.0,133.6255332059303,35.24962448154131,0.5152248428869936,28.112638834402148
113.0,127.0319714331297,38.05598872031786,0.5139929253571018,28.085643534914855
114.0,120.07545776578633,40.998614524766865,0.5127823345472945,28.058942288363102
115.0,112.84093456814232,44.05901983493092,0.5115961381896494,28.03269369713496
116.0,105.40362977636872,47.215299784777145,0.5104372232768785,28.007048613951053
117.0,97.83087868647847,50.44181231823544,0.5093079823735905,27.98214813240637
118.0,90.18346923780534,53.70954025427802,0.5082105287130407,27.958112457659727
119.0,82.51721860121074,56.98655512749882,0.5071466384086366,27.935036959687878
120.0,74.88441495055388,60.238228726913434,0.5061180338803724,27.91298297001308
121.0,67.3359971372751,63.427014777110884,0.5051256994021005,27.891991299888446
122.0,59.92165083729585,66.51327409583385,0.504171042457574,27.872076142533917
123.0,52.69086592479068,69.4554648793045,0.5032548301232718,27.853232489097795
124.0,45.69349959670328,72.21049817886971,0.5023776092747556,27.835449647471627
125.0,38.979526488830714,74.73419932541205,0.5015394736724929,27.81869756508734
126.0,32.598905932375615,76.98227698011871,0.5007410639799332,27.80293961821962
127.0,26.600778039709404,78.91109380845151,0.49998218009188705,27.788143507031176
128.0,21.03164504226365,80.47977586776777,0.4992626753507454,27.77426537152987
129.0,15.933110254316366,81.6525707851935,0.49858231401663955,27.76127107230215
130.0,11.33890279936162,82.40175089034554,0.4979406081745101,27.74912546484729
131.0,7.271742340551251,82.71067953832898,0.49733718924418835,27.73779348231484
132.0,3.7409299401998712,82.57605273750441,0.4967715383560818,27.72724174809335
133.0,0.7407297212871704,82.00934784967889,0.49624298351015844,27.71744173985672
134.0,-1.7497237109566617,81.0366987497672,0.4957509858387133,27.708366725784522
135.0,-3.764905866610905,79.69719571643981,0.49529501642427015,27.699992156566374
136.0,-5.34989633568213,78.03975362859177,0.49487442149507405,27.692297468140715
137.0,-6.556622206488506,76.11928825865881,0.4944885897649927,27.685263556678677
138.0,-7.43977511245908,73.99265134749817,0.4941371111677947,27.678876333325952
139.0,-8.053101100026986,71.71499258769616,0.4938192300906209,27.673118489642107
140.0,-8.446439681142273,69.33696733607758,0.49353435167881476,27.667980031695258
141.0,-8.663683148884882,66.9028641253389,0.49328226263615876,27.663444660876927
142.0,-8.74166226354703,64.44972105096163,0.4930624825209548,27.659500339472707
143.0,-8.709836309640577,62.007241405530664,0.49287468740454676,27.656141350962205
144.0,-8.590612615309535,59.598305983873104,0.4927187544159184,27.653359192944613
145.0,-8.399930112675948,57.23976227181846,0.492594335644498,27.651145763423802
146.0,-8.148103404402379,54.94345509508071,0.4925010833643665,27.649501969903962
147.0,-7.840721191414861,52.717215643946886,0.4924390156250712,27.648420450840657
148.0,-7.479387422057782,50.56579966776623,0.4924082964896521,27.647903623069514
149.0,-7.06238196035778,48.49160718212873,0.4924084700644344,27.647947901992445
150.0,-6.585245327891294,46.49535802540698,0.49243935094397034,27.64855397640266
151.0,-6.041269444974878,44.57661524460069,0.492501422811551,27.64972229426526
152.0,-5.421712475851265,42.73409041917422,0.4925942677038451,27.651454865800016
153.0,-4.716160741054369,40.96597939642249,0.49271817161599996,27.653753826576285
154.0,-3.9126722730435888,39.270131007975706,0.4928730853624793,27.6566225996262
155.0,-2.9979910057849755,37.64420081607647,0.4930593078040396,27.66006500688373
156.0,-1.9576800924061168,36.08574221179235,0.4932771993073167,27.664086475036108
157.0,-0.7762536367103006,34.59227903960621,0.4935268983620298,27.668695025242357
158.0,0.5626332063515458,33.161350200162744,0.49380885727037616,27.673898478308693
159.0,2.0760343223202407,31.790544370102563,0.4941234907560717,27.67970638428978
160.0,3.7815062718261214,30.47752303492757,0.49447130005569256,27.686130045250184
161.0,5.69690383868509,29.220040598669648,0.4948527663213881,27.69318277087314
162.0,7.840136520270893,28.015959649435725,0.49526843827549677,27.70088025235532
163.0,10.228905781027354,26.86326742496136,0.4957188065033036,27.709239443953514
164.0,12.880348805123898,25.76009235189059,0.49620454353485505,27.718280135347626
165.0,15.810774638807688,24.70472505074998,0.49672624365878953,27.728024339074654
166.0,19.0352633164013,23.695638681845153,0.49728451222694803,27.73849737013649
167.0,22.567249800282916,22.73151586318367,0.49787994016372594,27.749725307765463
168.0,26.418208412384303,21.81128055824805,0.4985129889057976,27.761737629364536
169.0,30.59698569814291,20.93412089635005,0.4991842540576157,27.77456705017435
170.0,35.10959269509821,20.099527958529496,0.49989395849181184,27.78824648650724
171.0,39.95823594240866,19.307322247457545,0.500642622464383,27.802807198649425
172.0,45.14149000138306,18.557697827828765,0.5014302629633153,27.818286582005374
173.0,50.65314064779874,17.851232256014363,0.5022568261901943,27.834718365011796
174.0,56.481920594480506,17.188940587099083,0.5031222776500517,27.85212971881079
175.0,62.61103695699901,16.572283739875786,0.5040261968579075,27.870546850871147
176.0,69.01774485401826,16.003178790750653,0.5049681310985001,27.88998916563042
177.0,75.67288460224549,15.484059100508267,0.5059473331353563,27.910454991461137
178.0,82.54092942780615,15.017843258970855,0.5069627206863259,27.931929855092253
179.0,89.57954312647433,14.607940024033992,0.5080130000979313,27.954380441252933
180.0,96.73953277182106,14.258276015798302,0.5090966008187238,27.977748565478787
181.0,103.96538447010965,13.97327611773432,0.510211730122415,28.00194819457955
182.0,111.19491030325632,13.757884306147519,0.5113563084507577,28.02687043164707
183.0,118.35983878759697,13.61751885570063,0.5125279016707543,28.052387172322206
184.0,125.38602141598392,13.5580056617723,0.5137237088046016,28.078353266929945
185.0,132.19405855301903,13.585596408902184,0.5149405047223746,28.104629658901782
186.0,138.6998442454394,13.706785888993707,0.516174644864199,28.131068966254904
187.0,144.81524584640698,13.928216123385019,0.5174220021776944,28.15754707756895
188.0,150.44985803190107,14.256498922634202,0.5186779430396645,28.183960949931567
189.0,155.51213332288106,14.697963644051024,0.5199376301558306,28.210228562180138
190.0,159.91261087355906,15.258458420496385,0.5211959672044395,28.23629786543468
191.0,163.56718356417514,15.943045264273367,0.5224475015881139,28.26213468970643
192.0,166.40100698356773,16.756007114855336,0.5236875048666433,28.287740928583553
193.0,168.35325773123083,17.700771389841385,0.5249114477111743,28.31313363991008
194.0,169.38144664153015,18.780286600958423,0.5261158942632309,28.338344997433982
195.0,169.46478363776066,19.99748115883409,0.527298256218507,28.363420009208347
196.0,168.60640182588529,21.355478790754717,0.5284579694471546,28.388436212180288
197.0,166.83352190105566,22.857918522656803,0.5295962279184229,28.413475791212868
198.0,164.19611069870055,24.508634998199582,0.5307162978299392,28.438633784438544
199.0,160.7629267141293,26.311171305306495,0.531824035147341,28.46400554998538
200.0,156.616170582637,28.268291115110795,0.5329284382532697,28.489677775256347
201.0,151.84569781791313,30.381224983146943,0.5340409203091724,28.5157278884559
202.0,146.5429860745423,32.64908605069295,0.5351744850701677,28.542237885079885
203.0,140.79624346728906,35.06826667837472,0.5363422916415508,28.569317863069582
204.0,134.6868862817108,37.63223164507761,0.5375563016678656,28.597109846913895
205.0,128.28753549132125,40.33123125732826,0.5388271344191314,28.625806413201648
206.0,121.66169057367031,43.15207906306487,0.5401622033991811,28.655603481885805
207.0,114.86461579964147,46.07825594742503,0.5415671263683061,28.686721704005464
208.0,107.94517628550119,49.08943351977415,0.5430444523883124,28.719377869107156
209.0,100.94817025819785,52.16115060783344,0.544593956933762,28.753788695649988
210.0,93.9164951529747,55.26446758642588,0.5462112461415801,28.79014760426279
211.0,86.89216856457675,58.366784471346186,0.5478903419260837,28.82859700284343
212.0,79.91699054068619,61.43254388724783,0.5496226589264781,28.86917927777179
213.0,73.03157815014958,64.42552535141789,0.5513982713499169,28.91178604800505
214.0,66.27390238892777,67.3109264111487,0.5532062672196841,28.956090748422227
215.0,59.67757822310601,70.05783874790757,0.5550357583969062,29.001544907504133
216.0,53.27396440347836,72.63767371202799,0.5568751493288926,29.047439939968754
217.0,47.09503701642636,75.02143317048507,0.5587123052735395,29.093025093727988
218.0,41.17830588068146,77.17512190592201,0.5605342023435349,29.13765517470625
219.0,35.567351987340665,79.0592469037347,0.5623272763658027,29.180890172228917
220.0,30.30982149449442,80.63083832111522,0.5640772266326213,29.222512190043844
221.0,25.451590007610125,81.84931272380892,0.5657712601040085,29.262491996867876
222.0,21.03172107711443,82.68140235895432,0.5673983707289815,29.300946562727166
223.0,17.077919040912917,83.10554794752169,0.5689517496820683,29.338071934291083
224.0,13.603942462526875,83.1143289308596,0.5704302362270466,29.37411641115803
225.0,10.608323771022777,82.71551030119693,0.5718389990462261,29.40935503751777
226.0,8.074321183489424,81.93186071126325,0.5731905139826765,29.444075884851593
227.0,5.97128980639328,80.7995566686222,0.5745036802917386,29.478560833793935
228.0,4.257381719326131,79.36527327519492,0.575802943255767,29.513075133300422
229.0,2.8836056576444524,77.68197848909752,0.577115477119335,29.547882681196985
230.0,1.7988043632309905,75.8038473320216,0.5784673826738463,29.583271777784958
231.0,0.9549764655377403,73.7809164419246,0.5798805368885315,29.619570260170104
232.0,0.3108609953438914,71.65552899478146,0.5813706896079771,29.65713364672443
233.0,-0.16819888629589916,69.46256166745444,0.582946341894976,29.6963294337356
234.0,-0.5127911382400543,67.2320979719357,0.5846083285504464,29.737519462597056
235.0,-0.7509269725310267,64.99108882486341,0.586350445929552,29.781028707438853
236.0,-0.9074949249315559,62.762989171926655,0.588160884190823,29.82708525187698
237.0,-1.0031405350801914,60.56680954072466,0.590024284905722,29.875719326112566
238.0,-1.0538017823546477,58.41682698868909,0.5919237029176224,29.926647588678392
239.0,-1.0709648439200674,56.32297699206205,0.5938418562012624,29.979189328935654
240.0,-1.0622417531547055,54.29155041872321,0.5957618509118945,30.032311250745927
241.0,-1.0319965650143181,52.32609708196318,0.5976664930295511,30.084862015197714
242.0,-0.9819940198915779,50.427927211045784,0.5995393636536467,30.13583207829249
243.0,-0.9120280312785009,48.59706829953458,0.6013630902308896,30.184585365458403
244.0,-0.8202945552501629,46.8326499628479,0.603120853664967,30.230877618696372
245.0,-0.7035957366183593,45.13322775056358,0.6047979996419809,30.27477116762661
246.0,-0.5574693061738489,43.49699509519641,0.6063842759882895,30.31651494543412
247.0,-0.37626224906863964,41.921938632603556,0.607876092344142,30.356450134072123
248.0,-0.15315876548134372,40.40594479655513,0.6092780022884589,30.39495342665353
