Time,J,A,S,tau
0.0,1.0,1.0,0.6101212940684715,30.3030303030303
1.0,6.574356076943476,4.198582804250512,0.5888889330988797,30.5497537345927
2.0,16.387909759273118,7.178859856824925,0.5681824138568727,30.798046576343253
3.0,26.7158593188518,9.949396945303763,0.5479992410586526,31.047871472942056
4.0,36.201341201660604,12.518604906476902,0.5283363141634956,31.299193615771888
5.0,44.440965925634316,14.894716041515947,0.5091900428601056,31.55198640084494
6.0,51.40842441965718,17.08585808474488,0.4905565715355174,31.806211543253927
7.0,57.21617163457127,19.099968212182585,0.4724314152322942,32.06183895361707
8.0,62.01717309542021,20.944841357685686,0.45480987408903506,32.31883515551512
9.0,65.96492215874731,22.628114157077203,0.43768670346132704,32.57716280016938
10.0,69.19906348205477,24.15720132901616,0.4210562083764984,32.8368014377278
11.0,71.84124366111978,25.53939584953934,0.4049124712190385,33.09771652563953
12.0,73.99519924472668,26.781778821227206,0.38924915528125853,33.35988613794572
13.0,75.74859749596214,27.891300956683157,0.37405969500817166,33.623272353556786
14.0,77.17532201253022,28.874702992907963,0.3593371298943204,33.88784735845278
15.0,78.33741861388364,29.738586376469534,0.3450743825581353,34.153569759726196
16.0,79.28724913425349,30.48925948343132,0.331263843094614,34.42044083748068
17.0,80.0687689994735,31.132979374789972,0.31789798563333654,34.68841149467896
18.0,80.71912920021265,31.67574737561831,0.30496865187268574,34.95744964778704
19.0,81.26972681934828,32.12340121556439,0.2924679495655053,35.227531636315604
20.0,81.74718291348474,32.481529228230926,0.28038737078266035,35.49865136870896
21.0,82.17408341038096,32.75567731608864,0.26871862738843755,35.77073517195424
22.0,82.56943630338331,32.95103679082575,0.2574529432926695,36.04379379982807
23.0,82.94923201212136,33.07266307353352,0.24658150407522428,36.31781592216902
24.0,83.32742120055623,33.125466533328165,0.23609552654568391,36.592771717603505
25.0,83.71551802931184,33.11419269583046,0.2259862081815432,36.86862400140418
26.0,84.12336527745873,33.04338826634474,0.21624453968641164,37.14533456446135
27.0,84.55973621995047,32.91739791553304,0.20686152093198001,37.422884684819465
28.0,85.03124142012658,32.74036621480473,0.19782792735728985,37.70126264000311
29.0,85.54415828527527,32.516330531278385,0.18913482544739035,37.980420935585634
30.0,86.10324145775976,32.249108799607654,0.18077309217163598,38.26033882621467
31.0,86.71296504364415,31.94230870250283,0.17273354050736706,38.541023554168085
32.0,87.37696037667186,31.59944442854347,0.1650072195046003,38.82243390482856
33.0,88.09836109532608,31.22381406260235,0.15758508998386606,39.104568324166415
34.0,88.87952423487131,30.818624403488425,0.150458327151184,39.38736308031238
35.0,89.72287740211468,30.38683407265138,0.1436179289061642,39.67082332347124
36.0,90.63008530031843,29.931308759828088,0.13705517130940098,39.95491342541753
37.0,91.60266495701872,29.454750302028042,0.1307613654650078,40.23960117393265
38.0,92.64197271687509,28.959700324760462,0.12472792227331181,40.524876806827585
39.0,93.74914756217774,28.448566892824754,0.11894637396862895,40.81071795159021
40.0,94.9252245213805,27.92361354486664,0.11340835577888589,41.097106775308916
41.0,96.17104924061381,27.386950260596265,0.10810560318268872,41.38406076210522
42.0,97.43737923696106,26.88680593506597,0.10314575527276491,41.639175038220785
43.0,98.1423429476806,26.932867052215542,0.1016941989305107,41.67027323690229
44.0,98.52403759997374,27.192866343575037,0.10033508357071812,41.701963119250834
45.0,98.78013517740574,27.455291477133457,0.09905152210723579,41.73572911291085
46.0,99.00625032634422,27.645012271728433,0.09783337968394493,41.77222708592
47.0,99.26214425148531,27.732262177342626,0.0966712701478573,41.81208837501427
48.0,99.58576066820675,27.708996364512583,0.09555726683633214,41.855822986494104
49.0,100.00044108851489,27.578793776107332,0.09448506385648671,41.90347853542657
50.0,100.51586286745795,27.35431135102979,0.0934499404277046,41.95414040429646
51.0,101.12690897564849,27.05777908242054,0.0924482672747077,42.0057789677754
52.0,101.8154848831807,26.713050222418733,0.09147827580256146,42.05514507923432
53.0,102.5743074255138,26.345652049159792,0.09053743921949609,42.10015985419813
54.0,103.40221415729076,25.964265236970668,0.08962393836343457,42.14001155812054
55.0,104.30571188653734,25.56786312192806,0.08873614095669077,42.174893631345846
56.0,105.28866517800122,25.15643901119996,0.08787246092809926,42.20545398555153
57.0,106.35047145982789,24.733152899559467,0.08703148167121588,42.23236914859564
58.0,107.48887575672173,24.302000131130722,0.08621215479820654,42.25629017151352
59.0,108.70154985682755,23.866725488182425,0.0854139768924204,42.27768283502889
60.0,109.98643700638823,23.430476039151564,0.08463684553937822,42.29694187709319
61.0,111.34159102478927,22.99578987088379,0.08388069254361842,42.31443346232944
62.0,112.76516745614882,22.564719553080455,0.08314564079528468,42.33052215312408
63.0,114.2539795613717,22.138843232446046,0.08242969370060396,42.345806503534924
64.0,115.80548730205265,21.718477071617947,0.08172051006567921,42.36209827656979
65.0,117.42767521585496,21.291528819160444,0.08090591618951451,42.391523603033725
66.0,119.35868646684298,20.613135195422817,0.07754494598253527,42.62430666789082
67.0,121.05627608813472,20.223892148875226,0.07689103088535672,42.6441877715868
68.0,122.78711676442913,19.85476035221833,0.07632292420855645,42.658054904726754
69.0,124.55123782958913,19.50175723226794,0.07580117720677948,42.67033513247544
70.0,126.3448717067059,19.16438050721137,0.07531783891912588,42.68187269356795
71.0,128.16370821794519,18.842614510254823,0.07486968788824853,42.69292413163855
72.0,130.00275666434737,18.536500383292033,0.07445504845878743,42.703543308079475
73.0,131.85734548355748,18.24612091853398,0.07407271156268971,42.71370566106264
74.0,133.72258468265062,17.97154573783457,0.07372160054517579,42.72339218434533
75.0,135.59384184977193,17.712838293019303,0.07340089592414914,42.73255211734354
76.0,137.46647099307026,17.47005849743348,0.07310991929800396,42.74108701571091
77.0,139.33583259369584,17.24325560567315,0.0728478753994313,42.749017313150894
78.0,141.1973613815904,17.032489812998094,0.07261423288840768,42.75632159209363
79.0,143.04712452522267,16.83778744042238,0.0724086046559715,42.76289899263093
80.0,144.8808931789074,16.659173327233205,0.07223053968065085,42.76872270410234
81.0,146.69459741885967,16.49666678594279,0.07207975220344873,42.77375829226073
82.0,148.48441362045898,16.350297099363075,0.07195596206120808,42.77798714574199
83.0,150.24655417407553,16.220089302849846,0.07185891941488971,42.7813977226663
84.0,151.97743214082496,16.10607065486162,0.0717885332211611,42.78394350063264
85.0,153.67444982890333,16.00751396364841,0.07174483263408943,42.785528126766145
86.0,155.34446524840595,15.91607491464042,0.0717276445616378,42.78620980667669
87.0,156.99444983710805,15.82602634301697,0.07173693588246825,42.78596967317928
88.0,158.62750101356713,15.736937850523695,0.0717727359896825,42.78482818616143
89.0,160.24440163095193,15.65023901771205,0.07183501953636968,42.7828662813603
90.0,161.8442211908006,15.568077620947738,0.07192395870008765,42.78002916393018
91.0,163.42505816332107,15.492552798769319,0.07203970035160447,42.776303687086866
92.0,164.9846692908053,15.425511105957623,0.07218244907698365,42.771730352753494
93.0,166.52039191293395,15.368561803966152,0.07235251979530825,42.76634700352712
94.0,168.02909480982882,15.322936376748668,0.0725501429481121,42.76020675993056
95.0,169.5082504654115,15.289295424867749,0.07277568480391493,42.753376605864794
96.0,170.95471788463712,15.268737820779771,0.07302989091213058,42.74579861691411
97.0,172.3646855364413,15.26188811964297,0.07331287083014797,42.737664778722014
98.0,173.73548643161027,15.269233060101854,0.07362551185433262,42.728953535619304
99.0,175.06360052363885,15.291333967132777,0.07396839748995311,42.71975484544895
100.0,176.34581679719426,15.328794826071613,0.07434258090228314,42.71006406040854
101.0,177.5784344653413,15.382080411570477,0.07474898456939451,42.69995601928517
102.0,178.75879334733665,15.451788304116587,0.07518908032343533,42.689388387358996
103.0,179.88307022796292,15.538549348426743,0.0756644787666855,42.67833814479906
104.0,180.94815736042958,15.643165899819722,0.07617875014893127,42.666505060970096
105.0,181.95071456589548,15.7672600018708,0.07674188468005019,42.65281400799918
106.0,182.87969340465733,15.919663895943627,0.07741527222395017,42.630456606818115
107.0,183.4433981272014,16.387926868622863,0.0814394623468559,42.36435435628444
108.0,184.23784240280017,16.573087285345192,0.08218796843835913,42.34310058652497
109.0,184.9701467266386,16.76529736856675,0.08290525644414622,42.327186041725184
110.0,185.62980108567376,16.970827702786565,0.08363612106647703,42.31130901089389
111.0,186.21273185820624,17.190346891142674,0.08438722604221112,42.29430104919484
112.0,186.71659517181385,17.42369840539146,0.08515964623905799,42.27566888491191
113.0,187.1397705926575,17.671017798847608,0.08595345060428476,42.255048430071405
114.0,187.48087463261496,17.932346270031797,0.08676823077801453,42.23218633951216
115.0,187.73855590895016,18.20861574472644,0.08760475089217278,42.20646102205032
116.0,187.90834265592832,18.5016946907074,0.08846372854302056,42.17735938069238
117.0,187.98610953597736,18.814159878095776,0.08934621765999064,42.144441622293066
118.0,187.96569474168163,19.151196595254774,0.09025370146264854,42.10705302659143
119.0,187.84121226072233,19.517700650953255,0.09118799644103881,42.06505069495152
120.0,187.61240170755082,19.912873616192385,0.0921510417833294,42.01897612288167
121.0,187.29673390836146,20.332019493497622,0.09314424507670535,41.97070716491511
122.0,186.88882371354825,20.76313456447709,0.0941710141024846,41.92223469104993
123.0,186.39611201394885,21.195787573843358,0.09523428039657195,41.87579658537245
124.0,185.82092662238813,21.627628107876255,0.09633809632004209,41.83264398971173
125.0,185.1590038862463,22.06388161990584,0.09748857840919316,41.7929700688178
126.0,184.4059991024497,22.51089853901233,0.09869353360298469,41.756552856922475
127.0,183.55867858225525,22.97390780849975,0.09996280459935529,41.7229020772122
128.0,182.61197287057416,23.457784505089457,0.10130767563024438,41.6914095013879
129.0,181.56063921167163,23.964844898758656,0.10274655061205992,41.66074569834083
130.0,180.07124648711792,24.824117348848898,0.1082629612834529,41.405039045670584
131.0,178.72730375700374,25.44027266716949,0.11038765677302126,41.3368352185427
132.0,177.35397985233865,26.000595908805828,0.11199181350450223,41.304404732092955
133.0,175.89729450633212,26.56667660232691,0.11357352696995159,41.268576016369934
134.0,174.3626965127166,27.13952797786481,0.1151429744636536,41.2271732542348
135.0,172.74381643760233,27.727692226132927,0.11670768670242135,41.178226777959786
136.0,171.01839736643353,28.351680419943804,0.11827817179116824,41.11941320182095
137.0,169.1582779354526,29.036379866832835,0.11986537373269335,41.049708985746605
138.0,167.16935055562934,29.769428022461124,0.1214806588276339,40.972488737653045
139.0,165.0897088144051,30.507644229819952,0.12313442725495963,40.89681149426652
140.0,162.97222495720598,31.21181289666638,0.12484148878343582,40.82948517449215
141.0,160.81342891738967,31.894890689284907,0.1266235695429418,40.77150801150279
142.0,158.5877957803703,32.589363570012246,0.12851044891688368,40.72121562651281
143.0,156.27861586197682,33.312984888020345,0.1305383726296738,40.67630082605513
144.0,153.85769007725997,34.0865263211516,0.13286801091693395,40.62523977534234
145.0,150.86648596652748,35.3438354579993,0.14028489102847874,40.34221085568832
146.0,148.28528005598352,36.12675569417167,0.14255821518147146,40.29705053083097
147.0,145.67560576586797,36.895759612339816,0.14473810381738408,40.24465819947906
148.0,143.03102443934546,37.66582133645448,0.1468542743225582,40.180288162590124
149.0,140.2947867752074,38.492557597550004,0.14893931003010522,40.09891885632358
150.0,137.4127772601264,39.42172298953277,0.15102736415790352,40.00029931374448
151.0,134.44901465383802,40.365453235702255,0.15314830700143126,39.8994185601562
152.0,131.55107510784998,41.20973944491387,0.15533856474427976,39.81295344685428
153.0,128.68654019917886,42.00438315861792,0.1576535817782244,39.742408297539285
154.0,125.79489149753488,42.81666178938449,0.16016830079865793,39.68317257304566
155.0,122.83070293296934,43.6873189901082,0.16306338676873613,39.62394346642904
156.0,119.21109477267835,45.16674286735979,0.17164327175530616,39.34408871371191
157.0,116.20529477741303,46.01389171095327,0.17445273375480622,39.28704885423064
158.0,113.25611189942451,46.81177912676824,0.17707421801887324,39.21726072011038
159.0,110.29940059931495,47.62959027424863,0.17957686528442043,39.12607510343453
160.0,107.185185805797,48.60853383669611,0.1820375637833883,39.00849597995205
161.0,104.02510687881752,49.60777679133169,0.18452218659102596,38.886146724139955
162.0,101.06741824882327,50.41565097833894,0.18710566465910622,38.78666523918884
163.0,98.19142391043596,51.17050461472007,0.18990375985745875,38.70880847817913
164.0,95.30742987028019,51.96332152629298,0.1930658881888082,38.64340060937721
165.0,91.67599970322392,53.51032661516768,0.20255262066165786,38.36856765865108
166.0,88.80141371719164,54.30434930389551,0.20593328686131313,38.303311606099996
167.0,86.06064385795824,55.004405528967844,0.20895236033361475,38.22481801924067
168.0,83.3579211775919,55.71172670848105,0.2117575235926129,38.11900451446486
169.0,80.46956399219661,56.63811433069675,0.21448557479619448,37.98016392725689
170.0,77.69170747702773,57.46751930288833,0.21724891393927004,37.846235736775604
171.0,75.18051575530922,58.07691480483521,0.22018725824661065,37.74496361120389
172.0,72.73476033125858,58.67581898738402,0.2234995467844501,37.66669790529813
173.0,69.87410200686975,59.738076628701094,0.2306395486774005,37.49233504551033
174.0,67.103336992948,60.72472454903035,0.2373616976788742,37.334544269252625
175.0,64.85983513609644,61.23735057269935,0.24079356820630912,37.255990665610454
176.0,62.723113273957004,61.70389283117244,0.24386187581502242,37.150693061418
177.0,60.44434979883949,62.3665988722255,0.2467682244152291,37.00568073334796
178.0,58.2049357233196,63.02428252543234,0.2496797852620657,36.856956278666836
179.0,56.300636448109884,63.40265755280626,0.25277453092057045,36.74644903278877
180.0,54.48799875738071,63.75251961574008,0.25630109340551943,36.66339435494115
181.0,52.56448151326436,64.27182889054794,0.26152066673246066,36.55750583302606
182.0,50.27810920614725,65.18383380260202,0.27067043200797913,36.34829198708527
183.0,48.72856902087788,65.41704086219306,0.27434404101147175,36.27017060010519
184.0,47.28999470657065,65.60354230470304,0.27755442327624164,36.166990702510404
185.0,45.767729989589846,65.93350551351126,0.2805407460774282,36.023631377612865
186.0,44.21967118517055,66.33299068172595,0.2835009356992707,35.870326716750945
187.0,43.036670569312186,66.424009532233,0.2866194130988141,35.75604797830644
188.0,41.95598525993894,66.47599489090724,0.29014223072687395,35.67181890265214
189.0,40.91022003917517,66.55407631967117,0.29439185239900023,35.59836794773195
190.0,39.40252166273776,67.13715354054546,0.3042815097134813,35.38750371418651
191.0,38.55227502925535,67.11187864027833,0.30831816826669756,35.319608918145654
192.0,37.82919367753253,67.02057845663242,0.3117601163683514,35.23920110863825
193.0,37.18485485416013,66.91158992779694,0.3148289948943374,35.13289390978967
194.0,36.40557894640676,66.9923811317788,0.3177382172941181,34.99310561440265
195.0,35.7292198078333,67.0151663672193,0.3206384967981716,34.85719815159194
196.0,35.32039334739966,66.82578466779982,0.3236737875635831,34.75664425448175
197.0,34.992166443635156,66.61423332260871,0.32701974285132646,34.68124950450219
198.0,34.72472479285126,66.39906272523186,0.33081742119733115,34.6194382963289
199.0,34.38666534057587,66.30761353707749,0.3367276037480888,34.519950518816266
200.0,34.035191002851626,66.2706053430079,0.34392888151181583,34.393138708134174
201.0,33.98368042824091,65.98542119689276,0.3477075458494554,34.339983017396015
202.0,34.007168044265896,65.67957904564528,0.35103149638128867,34.2816669274364
203.0,34.09454136198677,65.36353654624556,0.35402128010505585,34.21286034359775
204.0,34.24675113633353,65.03514257584807,0.35679885028615604,34.12814225762687
205.0,34.335026477197175,64.81942612693624,0.35946864648207794,34.025401898898544
206.0,34.372514324688254,64.69460707152649,0.3620969639868917,33.92006310476504
207.0,34.64187110665006,64.38092696368543,0.3647329744566571,33.83300609490894
208.0,35.00145487074877,64.02463454977594,0.36742635293549447,33.76570619785811
209.0,35.40731226617718,63.66940562024506,0.37022472383972993,33.71233893124959
210.0,35.85495843072785,63.31838570771702,0.37315878122880586,33.66823323903829
211.0,36.34520377303735,62.96903794963297,0.3762339452018051,33.630417494828016
212.0,36.87792154102861,62.62001472244583,0.379455072536621,33.59609944514391
213.0,37.43218554243599,62.28992754089369,0.3829857081341613,33.55868296632898
214.0,37.97133057383716,62.01205065220308,0.3875488727367186,33.50007481167631
215.0,38.55250125542892,61.7270984028756,0.3918909204518412,33.44688119056431
216.0,39.20943089602133,61.40145011792162,0.3951298817841586,33.417095242872804
217.0,39.901428216805606,61.07560716485286,0.39798929534328475,33.394033891520664
218.0,40.61930214195283,60.75744091916255,0.40065793446209286,33.37298329598802
219.0,41.36431314997718,60.44428876656858,0.40318298155007026,33.3528399084727
220.0,42.131404505044365,60.13972900791114,0.40558463583053994,33.33333917159153
221.0,42.91300102484306,59.8494448456631,0.40787710008212474,33.314480034355405
222.0,43.70619328308578,59.57432871730463,0.4100732618723679,33.29629364276983
223.0,44.512097639950994,59.31126076632088,0.4121847978224534,33.27881066715168
224.0,45.332987849373474,59.05622671638992,0.41422094927865566,33.26212438985574
225.0,46.159151988938376,58.817044497914125,0.4161894067809697,33.246315130981955
226.0,46.98652924675198,58.59558377095996,0.4180955623910558,33.231491758946056
227.0,47.8136734668001,58.39099475412465,0.41994416709925597,33.2177425524185
228.0,48.64213648183586,58.199748662046275,0.4217386180970292,33.20514817926653
229.0,49.46792207583304,58.023816793260146,0.4234810378688556,33.1937789541426
230.0,50.28488531058582,57.86694927865446,0.4251727359306076,33.183700506618635
231.0,51.09038540859722,57.729759834521936,0.42681530430992987,33.17496054901138
232.0,51.88278759353101,57.61139056700796,0.42840880881009835,33.167577251844975
233.0,52.66317160036179,57.508801591192466,0.42995415386731256,33.16152167045859
234.0,53.42897367484472,57.422587449892475,0.43145107406119576,33.156783841930206
235.0,54.17456954135528,57.35642545608252,0.43290046667961635,33.15327185158423
236.0,54.89737512035259,57.31077378267222,0.4343018637201869,33.1509322831878
237.0,55.595275418987214,57.2855039089222,0.4356550438950265,33.14967983555333
238.0,56.26697402368143,57.279911029057835,0.4369598690195827,33.149418733559905
239.0,56.9130487093838,57.291641068250684,0.43821601867200566,33.1500741664381
240.0,57.53245163142769,57.31987353050919,0.43942330914245015,33.15150038713557
241.0,58.12172883989113,57.36663506913414,0.4405818847761405,33.15361254076881
242.0,58.677367482797216,57.43335072257901,0.44169140093329645,33.15631571584963
243.0,59.197905566485886,57.519785326387236,0.4427516683571861,33.15949269573129
244.0,59.681877862799524,57.62550533305267,0.4437624482317212,33.163056708354134
245.0,60.12828036178338,57.749991397334774,0.4447235953796939,33.16690200388691
246.0,60.535955615342715,57.89256138391971,0.44563485509181205,33.17093675412632
247.0,60.90490714181658,58.05198316963107,0.44649623457138377,33.1751124433487
248.0,61.234303464432166,58.227394598736204,0.44730737244998364,33.179338821043025
