Time,J,A,S,tau
0.0,1.0,1.0,0.4859783145456383,23.809523809523807
1.0,5.5920062493087155,2.7463738071999706,0.48213785172793205,23.92606897471112
2.0,13.428302045576062,4.332585197457114,0.47826769855468787,24.04490036432642
3.0,22.749751991318085,5.771221386240978,0.4743704345875197,24.165940365920676
4.0,32.58884661977997,7.073891966968785,0.47044841333153764,24.289131519337978
5.0,42.41539618655386,8.251370763748426,0.4665041685209632,24.414401093917757
6.0,51.94560228646537,9.313595071618469,0.4625399877355502,24.541691048349506
7.0,61.03595049851115,10.269763897578958,0.45855817603597643,24.67094002050142
8.0,69.62391346221283,11.128382036661433,0.45456098520566435,24.80208757394223
9.0,77.6930709727788,11.897317667550514,0.45055066227268376,24.935070766918738
10.0,85.25316642200866,12.583835119687926,0.44652935338162475,25.06983136977495
11.0,92.32854740810353,13.194641431764069,0.4424991192796424,25.206314609049485
12.0,98.95049556844711,13.735948692734924,0.43846208276363186,25.344457661247734
13.0,105.15347387297099,14.213475208263597,0.43442018435967983,25.484208958039595
14.0,110.97250767706545,14.632499014177062,0.4303752973326056,25.625518783544173
15.0,116.44203531981675,14.997913969265664,0.42632939993753627,25.768326116843404
16.0,121.59424420455295,15.3141888596955,0.422284076916114,25.912597823436702
17.0,126.45974484016605,15.585495075643285,0.4182412087274775,26.058274040052048
18.0,131.06704952670916,15.815670767936856,0.4142025501894091,26.205301943767026
19.0,135.4417412518862,16.008266281699548,0.41016987762267687,26.35362292633553
20.0,139.6078841196987,16.166495362578576,0.4061444953087675,26.50321307479506
21.0,143.5871231914787,16.29339155230223,0.4021281652169886,26.65400864704677
22.0,147.39889877162912,16.391713956152508,0.3981223376590104,26.805967828224937
23.0,151.0614601478083,16.464012712428236,0.39412846904160365,26.95904489994464
24.0,154.59058399648643,16.512634852579758,0.3901479561914714,27.11319567722963
25.0,158.00106316548573,16.539742320334526,0.38618215238294645,27.268376138509975
26.0,161.3060257204731,16.547313394317158,0.3822322798191478,27.424550277157476
27.0,164.5172678799505,16.537217578054722,0.3782998522621581,27.581652982296198
28.0,167.59502902693234,16.560608946950477,0.3745019093247511,27.6885447979416
29.0,168.99942757005462,17.823123646240624,0.3735938156700776,27.72025776334363
30.0,168.51048284004952,19.978889941849978,0.37269769750979875,27.755334353262853
31.0,166.47269213477404,22.473913333656256,0.3718114583560771,27.79492568433472
32.0,163.25519195316525,24.982068596131587,0.37093285141207333,27.840390891420547
33.0,159.2053450671004,27.319125532896262,0.37006309229265294,27.892573823665256
34.0,154.60386938338868,29.403202351710775,0.3692047077569699,27.950915342993152
35.0,149.67182010802895,31.221362265344233,0.36836545725739067,28.011750080456494
36.0,144.62797416113438,32.80583108487965,0.3675610918951547,28.068687382959194
37.0,139.44425675934005,34.184438862188024,0.36679700931411763,28.118106637193236
38.0,134.16346310401676,35.40611510984628,0.36607576884305354,28.159330310161803
39.0,128.8451037434446,36.49111629102013,0.3653950110335028,28.19358597156058
40.0,123.55203901610466,37.44031158150208,0.3647510628055979,28.22240715853734
41.0,118.33277396000327,38.25619095151454,0.36414188115798235,28.246947599934042
42.0,113.21987160417758,38.94725454512066,0.3635656894798802,28.268092448407472
43.0,108.23409445910274,39.52592028765039,0.36302007165785494,28.28657608449942
44.0,103.38841448823393,40.005803084772474,0.36250278738535074,28.30294885318276
45.0,98.69048631240939,40.40079353425377,0.36201382971050433,28.317486578068984
46.0,94.14450294405967,40.723700356612476,0.36155140215213416,28.330530729177006
47.0,89.75229933841445,40.98642197716279,0.3611142538664687,28.342321294535854
48.0,85.51463097842382,41.19955055168111,0.3607005518823057,28.353095308704198
49.0,81.43153280687889,41.372257412165105,0.36030732618518624,28.363116655097752
50.0,77.50255719520551,41.51163732991394,0.3599282279755278,28.37281563488643
51.0,73.72740692224023,41.62219573348565,0.3595522849532795,28.38285550300799
52.0,70.10980941043145,41.700986279359185,0.3591484269042939,28.394959967357984
53.0,66.68888824427037,41.70738404077504,0.35857553442174456,28.416633001788508
54.0,64.33785526003247,40.76188526330833,0.35546479433767153,28.568351157654167
55.0,61.223896128974395,40.69127075665997,0.35473643470969474,28.599621726849886
56.0,58.10394386042402,40.73744028459628,0.35438214375438826,28.61173327237488
57.0,55.08637075188078,40.78681571555844,0.35411385859281336,28.61989221296783
58.0,52.34612017691307,40.67963019741933,0.3538913002809364,28.626260937066704
59.0,50.06191659891148,40.28556563489586,0.3537019838951179,28.63152113208972
60.0,48.31743672712641,39.5815996281419,0.3535408401518174,28.635933525784978
61.0,47.13221499758534,38.60733554349405,0.3534053132430673,28.63963070908124
62.0,46.493762469021355,37.42616000341579,0.35329397256515727,28.642699922561746
63.0,46.37358697842821,36.10726212598401,0.3532061988769941,28.645137223328533
64.0,46.73477217648369,34.71639755559403,0.3531417205977329,28.646964976512525
65.0,47.51776591990264,33.32556415750366,0.35310047396023914,28.648173424984044
66.0,48.73956075684367,31.929976712831014,0.35308244009783984,28.648759649723324
67.0,50.38559938141433,30.55148742125455,0.3530872425981901,28.648749636938817
68.0,52.439858226807594,29.20733810657326,0.3531147600925085,28.648148720355685
69.0,54.88546612230511,27.909912051565858,0.35316548884219856,28.64693431352945
70.0,57.70386069511178,26.667922338035137,0.3532392772923871,28.64511466467532
71.0,60.874594459091014,25.487027780179513,0.353336856432286,28.642656710833105
72.0,64.37512400454789,24.370642029189483,0.35345806209072755,28.63958942791155
73.0,68.18090715329409,23.320370176127124,0.3536041880490893,28.635843117238235
74.0,72.26536266477488,22.336670267499787,0.3537773067223435,28.631310417082958
75.0,76.59986176961881,21.419096688086167,0.353981872320483,28.62576298383944
76.0,81.15477417199494,20.56660856223992,0.35422804663348056,28.618655778387158
77.0,85.89793702467608,19.77947284463345,0.35454709650766475,28.608296080198215
78.0,90.7850156385806,19.069589346870544,0.35513014019192035,28.584535964389822
79.0,95.41660908414109,18.80339668444572,0.3587070025213818,28.40994443003335
80.0,100.53825697247694,18.204286294685943,0.35929573278965854,28.387468708366423
81.0,105.74972885895039,17.642846418385197,0.35970471439273993,28.37512282452884
82.0,111.0156294250882,17.126393739939562,0.3600865803070824,28.3647908768565
83.0,116.31153185508363,16.65285768875741,0.360472091979728,28.354773014750275
84.0,121.61675097425729,16.21868420607217,0.36087279724174076,28.344371509498163
85.0,126.91318231907559,15.820137899835391,0.36129494533218054,28.333142725290475
86.0,132.18005449864322,15.457768340338868,0.3617409384356001,28.320857037022908
87.0,137.38709522402954,15.140566860369084,0.36221260571096214,28.307254285437832
88.0,142.4932332153317,14.882651594781084,0.36271088879942576,28.29211066725741
89.0,147.4508450058378,14.698118629784636,0.36323683745047175,28.27512115857637
90.0,152.2087637759355,14.59891420960128,0.36379251582634986,28.255847858165232
91.0,156.7136114974364,14.594581359249315,0.36437997725953086,28.233705000532215
92.0,160.91147208735262,14.69255967472234,0.36500007917670557,28.208057894531432
93.0,164.749413931834,14.897947436750279,0.3656571881506985,28.17774767141915
94.0,168.1689155941031,15.222834076039852,0.36635120103549723,28.141828043948806
95.0,171.09249063724806,15.69946196883057,0.36708662047968166,28.098819489092357
96.0,173.4315072427973,16.371387939362425,0.36786306882031083,28.048259710446832
97.0,175.1387125315636,17.23100407784599,0.36867851509856436,27.991531695941063
98.0,176.1940019584116,18.187544954968732,0.3695201406535422,27.933559333559007
99.0,176.71167047404055,19.167960400554428,0.3703795217295892,27.8790505818719
100.0,176.6950633431829,20.153689382330352,0.371250120630148,27.830529259239984
101.0,176.10857731828983,21.17496157481238,0.37212918381073734,27.788140401112493
102.0,174.9442965761139,22.24852891423172,0.3730179634720714,27.750835867041737
103.0,173.21771264708394,23.37703117093925,0.3739171878468601,27.717547967123593
104.0,170.95422820421658,24.558211751979805,0.3748298064106247,27.68721799938629
105.0,168.1783538887814,25.790111324022508,0.3757576368375492,27.659083845475305
106.0,164.90550742522112,27.073301969075914,0.3767207207818738,27.63152379656101
107.0,161.05676067246358,28.49444940542903,0.37806795050547326,27.586175522784703
108.0,155.60803551722506,31.084123392618462,0.3827480416900235,27.38105822769986
109.0,151.0409810349458,32.4274558363373,0.38381064810198556,27.35091596943785
110.0,146.23892691428594,33.729456757676054,0.38486135535784755,27.319766805933476
111.0,141.2536998909741,35.00113564103526,0.3859567222391883,27.283288290058213
112.0,136.1172658903359,36.25208436878296,0.38710700018545985,27.23870683200561
113.0,130.8204296129008,37.52056111874194,0.38832542408230786,27.181387829177503
114.0,125.277259938518,38.910599249713485,0.3896247841343068,27.104644948277915
115.0,119.41991837768278,40.49418204614688,0.3910080822151906,27.005238823583262
116.0,113.44919149405405,42.040587777951124,0.39243016077341664,26.901534573312148
117.0,107.69936139519707,43.30838519914693,0.3938370373800886,26.816507796549715
118.0,102.19900742065317,44.31888231003498,0.39521787780960504,26.750973728989013
119.0,96.86201741512936,45.191588077445786,0.3965818559633878,26.69836765790204
120.0,91.65923536359387,45.97644681586534,0.39794133953020183,26.65363620567603
121.0,86.57736718638037,46.697740308621825,0.3993688956501114,26.610442605776267
122.0,80.38204127928789,48.56277018800166,0.40441474698376195,26.401691352514327
123.0,75.6828918916127,48.97349260423189,0.4059469778834048,26.355431788132144
124.0,71.39691192169961,49.1007402467116,0.407395248437479,26.309150611805794
125.0,67.47092417540954,49.0304611938474,0.40891656958928485,26.250957095232184
126.0,63.85116179954963,48.83558147307868,0.4105402669360375,26.170955394173852
127.0,60.24625442739345,48.81154447115047,0.41229378184793974,26.054007486746116
128.0,56.642325773145274,48.947633211594436,0.4141352096554579,25.912841848988144
129.0,53.86449598983389,48.449843387968464,0.415930783475403,25.801405515599857
130.0,51.73648255396402,47.54982844582465,0.41765300899095537,25.722989788244686
131.0,50.01375915677559,46.51478458846024,0.41932819628938,25.662923633159824
132.0,48.649412807131256,45.40025653448493,0.4210144190592453,25.610930462694306
133.0,47.11366436201888,44.7237384832464,0.4258157836780611,25.424325500680546
134.0,46.49305574585995,43.39048371339345,0.42774897137796836,25.364681327342495
135.0,46.299947416064015,41.9419238501757,0.4294457001275217,25.310344279489215
136.0,46.4544476432847,40.46927515638483,0.43122323013712793,25.24039093565714
137.0,46.88732029162186,39.04062630915077,0.4331240968831166,25.139305328008483
138.0,47.08433796042322,38.144327599796966,0.43517078817228494,24.99046840956256
139.0,47.63482005084124,37.15328112205127,0.437221127809631,24.84553206319002
140.0,48.92325739046679,35.72456426009655,0.43914797549256007,24.747897294253946
141.0,50.53300824458804,34.29280891997364,0.4409800895900232,24.678821469536413
142.0,52.405337416794055,32.910613652832545,0.4427573030250209,24.623918080382598
143.0,54.49487475949031,31.60547349470709,0.4448294836231968,24.56181155022902
144.0,56.68134593412899,30.468988003342602,0.4490087911615586,24.411970449181204
145.0,59.19171153012158,29.26790347793634,0.4507630754168004,24.363751964957324
146.0,61.9088343139208,28.118522584253185,0.45246500076302315,24.31263841321282
147.0,64.82416556696849,27.021583606299753,0.4542114878948737,24.24980048005059
148.0,67.90011263672966,25.998353159756068,0.45602285328769077,24.165878310323713
149.0,70.86694935181346,25.285045069817322,0.4579183725856125,24.048194852005306
150.0,73.54138434479992,25.034802648383984,0.4598367171935165,23.914724321671365
151.0,76.7616910513682,24.38659767242075,0.4616469090149707,23.812974185591496
152.0,80.14767626765797,23.703289243047674,0.4633355225902332,23.742632545718568
153.0,83.56543162429811,23.102722248850473,0.46492859523486146,23.690594524293843
154.0,86.9708617088833,22.59935930828882,0.46644667552712665,23.64927708374045
155.0,90.32515453528264,22.196329199667332,0.46790656966434513,23.614584881982736
156.0,93.59300424922468,21.89197684038175,0.4693508120378312,23.582882088771832
157.0,96.7439796043281,21.684013027013386,0.4709529188435955,23.54589692629375
158.0,99.72610594920864,21.596140738831963,0.4730365812340622,23.489970787220503
159.0,102.53491335692122,21.60393711550329,0.4747804179446615,23.448119161706284
160.0,105.15381210215214,21.695025423751048,0.4760742128624939,23.424519585778974
161.0,107.55492014888937,21.872544936172098,0.47721369605246156,23.407044802025432
162.0,109.73088114740791,22.12681067078604,0.4782787702190716,23.39241955102008
163.0,111.66415011360844,22.461808910023727,0.47928961167656436,23.379856624459226
164.0,113.3313429846619,22.88716999264919,0.4802504906202126,23.369276119880073
165.0,114.71813841231341,23.40432158193277,0.4811624192643474,23.3607464338945
166.0,115.82326258820689,24.005267052228852,0.482024616172608,23.35441761933549
167.0,116.65341712460514,24.679471541333427,0.4828372310749136,23.350373144704218
168.0,117.21132741770788,25.424182235695298,0.48359968407270715,23.34870347864952
169.0,117.5015591265226,26.237347299067604,0.48431330833119635,23.349363727837755
170.0,117.53066606341692,27.11663978748132,0.4849789369061844,23.352293856797903
171.0,117.31130797731262,28.05532747050723,0.4855973504071633,23.35739882236579
172.0,116.86601072877612,29.03926744330227,0.48617092241328774,23.3644787651577
173.0,116.21575021053998,30.058302716375568,0.486701684164892,23.37333564677912
174.0,115.37383333853523,31.11023790732335,0.4871920187054069,23.383755124457057
175.0,114.37031048093759,32.17709632708257,0.48764357888013604,23.395566076485597
176.0,113.22696551593548,33.25007865158253,0.48805751767910527,23.408637071589617
177.0,111.96437764300374,34.32097903777461,0.4884331056962856,23.422942660670792
178.0,110.6092104764393,35.37603508387874,0.4887664114663038,23.43861115487754
179.0,109.19037078491094,36.3995875924771,0.4890496372590657,23.455954977411558
180.0,107.734612033135,37.377906906849894,0.4892752310482694,23.47530051099224
181.0,106.26076809719525,38.304717261335185,0.4894489911485538,23.49646338715897
182.0,104.78023238276117,39.18100834653636,0.4896008321646351,23.51833342561683
183.0,103.30311000447995,40.008210329770684,0.4897622027000173,23.53975357609685
184.0,101.84407832128763,40.7827638471359,0.4899373044436053,23.56069905667101
185.0,100.41918322809855,41.499201214629224,0.49011121808958175,23.58197182395946
186.0,99.04096848001159,42.154356840516996,0.4902685077993789,23.604480140851358
187.0,97.72075483728946,42.7458938393922,0.4903999332000915,23.628986230221326
188.0,96.47102375882329,43.27008267777659,0.4905010605179017,23.65622202572283
189.0,95.30525395722056,43.7222344936961,0.49056872393834017,23.68713513018942
190.0,94.23863281210372,44.09673949039879,0.49059850074510986,23.72317064565009
191.0,93.29602968476478,44.38117809688767,0.49058528288720893,23.766561101344347
192.0,92.54835431958593,44.51920021639969,0.4905208022631062,23.820950234898174
193.0,92.18433528009305,44.331978534584806,0.49039449760657344,23.891562381936957
194.0,92.28031043870337,43.74347083392392,0.4902003151810374,23.981423878751343
195.0,92.57252526939658,43.014385619617414,0.4899784257780725,24.076858567539816
196.0,92.7082213011987,42.50166185421047,0.48979527053717925,24.156301043953675
197.0,92.58732747534671,42.313647316808236,0.4896559106949019,24.217834015467464
198.0,92.45277888733473,42.209536074875935,0.4895507598628859,24.26657814560199
199.0,92.39496190834467,42.09149495700008,0.4894705589559742,24.30685748730344
200.0,92.41829726749184,41.94807305468496,0.4894080316210405,24.341471993860495
201.0,92.51817588972999,41.78134268841239,0.4893575158372476,24.372195868788268
202.0,92.68936098193944,41.595527593086445,0.4893148650791336,24.400183692465113
203.0,92.92643081156051,41.39513505145773,0.48927534303482,24.42630029675577
204.0,93.22371906159029,41.18500824842596,0.48923294946616075,24.451265405905954
205.0,93.57532751364856,40.96972276534854,0.4891824394270052,24.475662248050998
206.0,93.97581074614966,40.75293756481191,0.48912448104405076,24.49973671418595
207.0,94.41885066689831,40.53865915905445,0.4890662933802759,24.523431822179813
208.0,94.8966824429881,40.331916446146735,0.48901275449907683,24.546778302745533
209.0,95.40304083061383,40.13603144083594,0.48896137451204946,24.570105742562003
210.0,95.93296685384732,39.952378667057026,0.48890650326091734,24.59389872411045
211.0,96.48221200431621,39.78183313669564,0.48884360222555434,24.61864039224603
212.0,97.04652367290544,39.62526191095869,0.48876986386745214,24.64482256834198
213.0,97.62158913295173,39.48368199073086,0.48868337990411304,24.672989617159757
214.0,98.20381838197916,39.358423399841044,0.4885821435240645,24.70388080585996
215.0,98.79139162018437,39.25100793168135,0.488463437529769,24.738530201142808
216.0,99.38807641133899,39.161175516681006,0.4883244947406874,24.778344106727978
217.0,100.02131841643946,39.06431181841622,0.4881604580482433,24.825385237707884
218.0,100.81636912509529,38.82887184643197,0.4879687950667409,24.88182311387697
219.0,101.91244480722088,38.3010695567194,0.48774545443917405,24.94901577331274
220.0,103.14870898578975,37.62693368254907,0.4874987751820786,25.022867682847945
221.0,104.26376457126703,37.06228871236487,0.4872715385707366,25.090821388024683
222.0,105.08844639951285,36.78045571972947,0.4870826257474944,25.14648986774379
223.0,105.66196349751382,36.74839934279828,0.4869252495530666,25.19127547680926
224.0,106.13285646755091,36.82020212559029,0.4867925511840453,25.227809576554872
225.0,106.56924490623004,36.92555202594547,0.4866798633825685,25.258227210624007
226.0,106.98176382558798,37.047478378793535,0.48658322112538893,25.284085925217347
227.0,107.36906139030584,37.18210612999174,0.4864995159728026,25.306475797469815
228.0,107.72775350380253,37.32814734615676,0.48642631939948827,25.32614494060769
229.0,108.05546060293644,37.48466852688055,0.4863617890065697,25.34362001254921
230.0,108.35279004536287,37.65081107790546,0.4863045763568819,25.359281240548807
231.0,108.61802015881145,37.8256429721529,0.48625344038874296,25.37341083637185
232.0,108.85183460766795,38.0081305842058,0.48620760368161203,25.38620743471972
233.0,109.0547424501492,38.19701923462324,0.486166334940485,25.397831341901167
234.0,109.22746736723072,38.39092293405536,0.4861290586260857,25.408399257978523
235.0,109.37108959578013,38.58811158698069,0.4860953685401935,25.417999679470206
236.0,109.48729751242873,38.787023197186215,0.4860649234314525,25.4267086056631
237.0,109.57602445627967,38.98669768432568,0.4860374545568344,25.434571894636285
238.0,109.63825602497157,39.186260182207974,0.4860128257139117,25.441623970096597
239.0,109.67436743223719,39.38484447089447,0.48599089220302544,25.44789716902761
240.0,109.68588406357718,39.58181940109383,0.4859715817386585,25.453407569097003
241.0,109.67129470201299,39.77763262285846,0.4859548346203864,25.458172190985547
242.0,109.6286982087691,39.97425673654166,0.4859406439289693,25.462199902964517
243.0,109.55593318799984,40.173374840978184,0.48592900375671283,25.465495771369905
244.0,109.45531830439997,40.372336224038506,0.4859199138883534,25.468064282072866
245.0,109.33358826659703,40.56450064573105,0.48591337801255885,25.469906909468286
246.0,109.1962245569522,40.745008445984425,0.4859094003564255,25.471024226896596
247.0,109.04327966699483,40.9145652671089,0.4859079846084952,25.471416174124272
248.0,108.87160524573785,41.07688314744014,0.48590914112871025,25.471079919119465
