Time,J,A,S,tau
0.0,1.0,1.0,0.6101212940684715,30.3030303030303
1.0,10.205654454680316,5.635206781639983,0.6081956463306947,30.247797594724563
2.0,19.77538197899307,10.216972270147417,0.6062013086988234,30.190635917902245
3.0,24.28623831867086,14.744354970543547,0.6041391753530894,30.13156416115921
4.0,24.655155866144803,19.216458978369285,0.6020100324343847,30.07059734623101
5.0,22.495204845728328,23.632415575483734,0.599814723189111,30.007751134740104
6.0,18.97377360490678,27.99138457870747,0.5975541473911462,29.943041825594374
7.0,14.784291582484505,32.29255565474488,0.5952292606579624,29.876486352086857
8.0,10.305492037914165,36.53514959848782,0.5928410736616566,29.808102278732626
9.0,5.735473479467679,40.71841956860247,0.590390651231165,29.737907797768635
10.0,1.1753485711804474,44.84165227900116,0.5878791113510045,29.665921725384667
11.0,-3.3240468548871767,48.904169145176084,0.5853076240602139,29.59216349768627
12.0,-7.737447062853982,52.9053273699321,0.582677410231137,29.516653166013455
13.0,-12.052485631504732,56.844521013743154,0.579989740310004,29.439411392986404
14.0,-16.26327168196513,60.72118186503764,0.5772459327651677,29.36045944531803
15.0,-20.367198985767047,64.53478065907625,0.5744473529485198,29.27981919341069
16.0,-24.363318648915424,68.28482737815763,0.5715954106810871,29.197513091610954
17.0,-28.251560773591766,71.97087011288167,0.5686915573608144,29.113564156959875
18.0,-32.03234419196399,75.59250264081317,0.5657372884516417,29.027995999850877
19.0,-35.70632962706584,79.14937062402284,0.5627341523190103,28.940833074055824
20.0,-39.27423887037318,82.64112974805899,0.559683705387646,28.85209993342284
21.0,-42.73707583590862,86.06750812627669,0.5565875615006137,28.76182195517568
22.0,-46.09580968684338,89.4282723641673,0.5534473690203132,28.670025169991085
23.0,-49.35151434015291,92.723214642412,0.5502647917059588,28.57673581876738
24.0,-52.50534495045664,95.95220123245926,0.5470415439634464,28.48198108189319
25.0,-55.55842443760851,99.1151144229377,0.5437793520878855,28.385788409526004
26.0,-58.51203414212467,102.2118945874058,0.5404799713943937,28.288185781309444
27.0,-61.36741573772026,105.24253300866121,0.537145186981828,28.189201924498487
28.0,-64.12584716768072,108.20704257516867,0.5337767929051354,28.088865783131375
29.0,-69.9422046838231,114.27234890094681,0.5319893145254068,28.04025812139605
30.0,-76.244693398307,120.90099945730147,0.5303618556883799,27.99690898671816
31.0,-79.57784828181447,124.61444979610981,0.5287579804913773,27.95433061862655
32.0,-80.52413500042077,125.96137224405805,0.5271783075236198,27.912531838121943
33.0,-80.05385300711457,125.88917435144793,0.5256234447830622,27.871521197225995
34.0,-78.83943514822334,125.05752928912439,0.5240939893494218,27.831306981191606
35.0,-77.26425838232167,123.84339769983522,0.5225905270653897,27.791897210674435
36.0,-75.52972821766375,122.4452534024798,0.5211136322427394,27.753299644249346
37.0,-73.73723174472056,120.96335782016779,0.5196638673588159,27.715521780470247
38.0,-71.93668286050493,119.44740499556777,0.5182417828140393,27.678570861052506
39.0,-70.15219942783847,117.92174289993291,0.5168479166184398,27.642453872224554
40.0,-68.39530547833643,116.39834624226128,0.5154827941764931,27.60717754800321
41.0,-66.67137070619616,114.88314491885991,0.5141469279235767,27.572748370512883
42.0,-64.98281122333364,113.37917058784217,0.512840818005877,27.53917258895972
43.0,-63.33048055665336,111.88791336867679,0.5115649494215239,27.5064561734636
44.0,-61.71464348751398,110.41030742808796,0.5103197981624131,27.474604932171204
45.0,-60.135089945841955,108.94679000849567,0.5091058176098444,27.443624278772837
46.0,-58.59153973016139,107.49772911794166,0.5079234577495619,27.4135195653176
47.0,-57.083521456609475,106.06336767579847,0.5067731545561501,27.38429590940023
48.0,-55.61056929447572,104.64386893534021,0.5056553126573539,27.355957921956424
49.0,-54.17223006984195,103.23939561596126,0.5045703342481771,27.328510175105993
50.0,-52.76799836913983,101.8500983158329,0.5035186191578396,27.301957200479844
51.0,-51.39727876154655,100.47608326578501,0.502500537515857,27.276303070587954
52.0,-50.059565493980486,99.11745672288806,0.5015164408349231,27.251551582844485
53.0,-48.75433949956318,97.77432288064637,0.5005666804809424,27.227706530504985
54.0,-47.48100030955578,96.44676181769269,0.49965158934328435,27.20477143140059
55.0,-46.239018906944,95.13484689731892,0.4987714720663195,27.18274940733029
56.0,-45.027875332193155,93.83865178179268,0.49792663161147915,27.16164355682582
57.0,-43.84697099009754,92.55823170273308,0.4971173611017287,27.141456831516923
58.0,-42.69575433019683,91.29362965990732,0.49634391986669096,27.122191729319045
59.0,-41.573703798558256,90.04489015824316,0.4956065615632464,27.103850675526314
60.0,-40.48024028687132,88.81204567388772,0.4949055364122472,27.086436039510865
61.0,-39.414789370038136,87.59511026999796,0.49424106123495853,27.0699497548197
62.0,-38.37682853711827,86.39409984663138,0.4936133402982397,27.054393600759887
63.0,-37.36580478132117,85.20902426282939,0.4930225772995966,27.039769342719623
64.0,-36.381128650961315,84.03987162925577,0.4924689493071007,27.026078402239364
65.0,-35.422278276635794,82.88663051670729,0.491952611561797,27.013321940558924
66.0,-34.48872308436247,81.7492873921926,0.49147371871505235,27.001501109383472
67.0,-33.579882628275506,80.62780871847167,0.49103240692781275,26.990616821778865
68.0,-32.695230030053885,79.52215814396317,0.49062878733575715,26.980669697302297
69.0,-31.83423115467616,78.43229656168121,0.49026296910818673,26.97166032926493
70.0,-30.99632817303229,77.35816851758885,0.48993503982792297,26.96358904567386
71.0,-30.18100883811504,76.29971818796892,0.48964506755723575,26.95645595296312
72.0,-29.38773854182506,75.25688348083855,0.4893931180666864,26.950261123691433
73.0,-28.615980449453343,74.2295887303816,0.48917923075284375,26.945004318662573
74.0,-27.86523293329921,73.21775968434076,0.48900343170596205,26.94068515224316
75.0,-27.134963335767164,72.22131247111028,0.4888657423933186,26.937303174829875
76.0,-26.424658206999823,71.24015445111405,0.4887661554855125,26.934857607406972
77.0,-25.733823119334808,70.27419402035365,0.4887046561356436,26.933347589422265
78.0,-25.06193377583103,69.32332799942485,0.48868122025209154,26.932772142887735
79.0,-24.40849629956982,68.38744909682676,0.4886957961654736,26.93312998140734
80.0,-23.773022067708958,67.46644966700299,0.4887483285157266,26.93441977755172
81.0,-23.154999880546566,66.56021019514111,0.4888387471416002,26.936640024602614
82.0,-22.553951263519952,65.66861076634015,0.48896695822077774,26.939788955207938
83.0,-21.969392388297866,64.79152910932207,0.48913286603850725,26.943864777859737
84.0,-21.400827843660874,63.928832608498915,0.4893363546580119,26.948865462600683
85.0,-20.84779070825997,63.080390571229984,0.489577290005739,26.95478878140235
86.0,-20.309801257629065,62.24606765202219,0.48985553594217257,26.961632476570802
87.0,-19.786380713965187,61.425721467459944,0.49017093183317356,26.969394005780263
88.0,-19.27707010736258,60.619212183994094,0.4905233049993221,26.978070695208075
89.0,-18.781396343908245,59.82639375426267,0.4909124770897085,26.987659797522532
90.0,-18.298895401608775,59.047117308883394,0.49133824628777484,26.99815829355928
91.0,-17.829108217996055,58.28123400993176,0.49180040493704863,27.00956309744226
92.0,-17.37157125147289,57.52858981264288,0.4922987286422932,27.021870920884016
93.0,-16.92583299349549,56.78903239696277,0.49283297928110587,27.035078317988564
94.0,-16.491434805713194,56.062404859583935,0.4934029106825837,27.04918174059991
95.0,-16.06792710569894,55.34855102690363,0.49400825635823226,27.064177398636232
96.0,-15.654859559561217,54.64731326245842,0.49464874537179854,27.080061446476563
97.0,-15.251782724611372,53.9585320494001,0.49532408768429786,27.096829801033245
98.0,-14.85825263211342,53.282049631702534,0.4960339842593045,27.11447827076618
99.0,-14.473822936894747,52.617705114177426,0.4967781246805026,27.13300251588132
100.0,-14.098052738535714,51.9653404881943,0.49755618202521634,27.152397989903875
101.0,-13.730500987309046,51.324795727774855,0.49836782451323247,27.172660081013156
102.0,-13.370729210684889,50.69591258269099,0.4992127010228397,27.193783923978017
103.0,-13.018300776863729,50.07853371396267,0.5000904549460168,27.215764582043857
104.0,-12.672781496302884,49.47250134048603,0.5010007153934464,27.238596922345693
105.0,-12.333737885912562,48.877661343559154,0.5019430995996126,27.262275651729926
106.0,-12.000740996640067,48.293858346906354,0.502917217884548,27.286795378132936
107.0,-11.673361931819974,47.72094144396294,0.5039226634977547,27.312150467017474
108.0,-11.3511746023859,47.15876017062326,0.5049590252749824,27.338335219962886
109.0,-11.033757550884983,46.607166700361255,0.5060258772265444,27.365343717663542
110.0,-10.720689710231143,46.06601572191163,0.5071227861776941,27.39316993333546
111.0,-10.411556003375846,45.5351647885835,0.5082493064755766,27.421807645668302
112.0,-10.105941008098114,45.01447451995739,0.5094049847552381,27.45125051213496
113.0,-9.803437668512954,44.50380860553704,0.5105893564368144,27.48149200697562
114.0,-9.50363732959518,44.00303453912274,0.5118019488503499,27.512525470116824
115.0,-9.206142245795528,43.51202303997654,0.5130422793804579,27.544344070644357
116.0,-8.910551993178757,43.03064938284479,0.5143098570053073,27.576940829324933
117.0,-8.616479565907753,42.558792159138434,0.5156041819905965,27.61030860902731
118.0,-8.323534598740043,42.09633527767802,0.5169247459772547,27.644440109920875
119.0,-8.031342424836962,41.643165993515915,0.5182710330566613,27.679327887259255
120.0,-7.739524948459004,41.19917763336806,0.5196425186043716,27.714964319385103
121.0,-7.447721641556189,40.76426685023618,0.5210386715127112,27.751341652224024
122.0,-7.155569295193479,40.33833709123396,0.5224589520157958,27.788451941303716
123.0,-6.862723561073707,39.921295081212506,0.5239028148153049,27.826287121213927
124.0,-6.568839162594451,39.51305499748871,0.5253697061738712,27.86483892395419
125.0,-6.273590258621875,39.11353424560033,0.526859067646312,27.904098970495284
126.0,-5.976652997244946,38.72265824110094,0.5283703327328402,27.94405866890445
127.0,-5.677722707791538,38.340355609077875,0.5299029309225308,27.984709323995478
128.0,-5.376500913280134,37.966563402545596,0.5314562841936196,28.026042019842272
129.0,-5.072707164499965,37.601221930534734,0.5330298110895286,28.068047742330464
130.0,-4.766072764237541,37.24428016684654,0.5346229233298884,28.110717251856084
131.0,-4.456344973765459,36.89569048997419,0.5362350296727694,28.1540412123961
132.0,-4.143289712838879,36.55541395847891,0.537865532856443,28.198010061389628
133.0,-3.8266859302843335,36.223415318888485,0.5395138330549262,28.242614137752028
134.0,-3.5063392638154327,35.899667769100525,0.5411793253069556,28.287843556948232
135.0,-3.18206520070683,35.584148595178576,0.5428614024444032,28.333688330033194
136.0,-2.853714093141739,35.276843107852464,0.5445594530849844,28.380138251249598
137.0,-2.5211436406132894,34.97774115836397,0.5462728639965384,28.42718300163044
138.0,-2.184253949715635,34.68684005512539,0.5480010186469658,28.4748120547125
139.0,-1.8429511289648945,34.40414210637824,0.5497432990458535,28.523014759888646
140.0,-1.4971902222817153,34.129656392603174,0.5514990847736672,28.57178027045494
141.0,-1.1469322688808192,33.86339742263133,0.5532677544050505,28.621097603077406
142.0,-0.7921924723140742,33.60538571097352,0.5550486848853174,28.67095559124901
143.0,-0.4329921066218695,33.35564783646931,0.5568412527294591,28.721342911710952
144.0,-0.0694049485006954,33.114215154460474,0.5586448335839946,28.772248086195454
145.0,0.2984643771330639,32.88112477939484,0.5604588029165957,28.82365946646853
146.0,0.6704764508188235,32.65641906062002,0.5622825363085365,28.875565241810435
147.0,1.0464549570135648,32.44014534395717,0.5641154097457187,28.927953439424677
148.0,1.4261852772628052,32.23235578366312,0.5659567999297547,28.98081192393961
149.0,1.8094134910349815,32.03310709461321,0.5678060845956545,29.03412839721342
150.0,2.1958447299219,31.842460227189726,0.5696626427862518,29.087890400234198
151.0,2.5851428330701594,31.660480125558422,0.5715258551905239,29.142085311437494
152.0,2.9769301067529885,31.48723533771313,0.5733951044018328,29.196700349883823
153.0,3.3707868591378305,31.32279769644375,0.5752697752221638,29.251722574491815
154.0,3.7662514097662756,31.16724196150944,0.5771492549865674,29.307138883139253
155.0,4.162819158578959,31.02064534849423,0.5790329338115359,29.36293601438818
156.0,4.559943880776135,30.88308706950669,0.5809202048665538,29.419100548995534
157.0,4.957038519879627,30.754647869321943,0.5828104646398818,29.47561891070398
158.0,5.353475848184341,30.635409481860158,0.5847031131825152,29.532477367391667
159.0,5.748591979020833,30.525454151148853,0.5865975544889385,29.589662028999093
160.0,6.141684158628064,30.424863890626078,0.5884931966478604,29.647158850190475
161.0,6.532015404500308,30.333719930885593,0.5903894520425024,29.704953633926195
162.0,6.918817481286069,30.252102072161538,0.5922857376002333,29.763032031968997
163.0,7.301293767582002,30.18008792350204,0.5941814751740456,29.821379541899955
164.0,7.678620355259549,30.117752088193377,0.5960760916438245,29.879981511172044
165.0,8.049951580921038,30.065165473114,0.5979690190722864,29.93882314067816
166.0,8.414424460818196,30.02239451396379,0.5998596949297891,29.99788948556501
167.0,8.771163460534646,29.98950011398307,0.6017475624644392,30.057165452780932
168.0,9.119282867058807,29.966536813047885,0.60363207073796,30.116635805799582
169.0,9.457893170899219,29.95355188990097,0.6055126747845802,30.176285167283208
170.0,9.786108759168918,29.950584668677187,0.6073888357228566,30.236098022817544
171.0,10.103051631734214,29.9576647646905,0.6092600213114197,30.29605871374324
172.0,10.40785518073806,29.97481173648433,0.6111257056317426,30.35615144901944
173.0,10.699672644680511,30.002034220777986,0.612985369251301,30.416360307335424
174.0,10.977684730291427,30.03932807452635,0.6148384997919669,30.476669231114883
175.0,11.241102240151477,30.08667549185467,0.6166845918428937,30.53706203258494
176.0,11.489171777251775,30.144045378336763,0.6185231465134619,30.597522406800724
177.0,11.721188543842189,30.21138980739597,0.6203536726782167,30.658033914594686
178.0,11.93649120849203,30.288644819176962,0.6221756861173358,30.718580000541078
179.0,12.134476877690778,30.375729634874485,0.6239887097534222,30.77914399533368
180.0,12.314604093967958,30.47254296258349,0.6257922745860625,30.83970910335021
181.0,12.476385427144837,30.578967313300442,0.627585917870175,30.90025843491982
182.0,12.619422428086136,30.69486012347227,0.6293691861433576,30.960774968244515
183.0,12.743362718148731,30.820063631968456,0.6311416313434196,31.021241604525738
184.0,12.847963611732837,30.95439036235339,0.6329028157664272,31.081641109595136
185.0,12.933017561755669,31.09764098907878,0.6346523057315666,31.14195619481612
186.0,12.998448964013772,31.24957901938164,0.6363896798471036,31.202169423574695
187.0,13.044222756974802,31.409957809229617,0.6381145201020074,31.262263319788815
188.0,13.070385153660567,31.578503265428022,0.6398264173148248,31.322220303922407
189.0,13.077131062812246,31.754901599049038,0.641524974945065,31.382022669950427
190.0,13.064667337936694,31.938835703699457,0.6432097975160955,31.44165270124969
191.0,13.033288382859261,32.129959160289545,0.6448804990260436,31.50109258546618
192.0,12.983396300411144,32.32789445569752,0.6465367033924793,31.56032442360037
193.0,12.915439702401219,32.53224942560743,0.6481780394629555,31.619330275302072
194.0,12.82996863993614,32.742600210485016,0.6498041466210446,31.6780921197565
195.0,12.727574588945172,32.9585097322878,0.6514146689255461,31.736591902547772
196.0,12.60893344654389,33.17951324933171,0.6530092603678048,31.794811504633298
197.0,12.474766587610075,33.40513110074804,0.6545875807233024,31.852732773538413
198.0,12.32585974691803,33.63486168491013,0.6561492985611858,31.910337511701663
199.0,12.163040003260633,33.868189457772424,0.6576940888535052,31.96760749353471
200.0,11.987181298967366,34.10458225339213,0.6592216344744781,32.024524464128355
201.0,11.799192796520302,34.34349592276591,0.6607316254009886,32.08107014853813
202.0,11.60001379145785,34.58437530616432,0.6622237585812804,32.1372262570018
203.0,11.39060905270462,34.826656839973026,0.6636977384517964,32.192974490789325
204.0,11.17196028161047,35.06977126880319,0.6651532758544325,32.24829654867412
205.0,10.945061895013461,35.31314562746146,0.6665900891641519,32.303174133978445
206.0,10.710913737405226,35.556206661171004,0.6680079032721693,32.35758896076754
207.0,10.470515725064583,35.79838279283462,0.6694064495455365,32.41152275945571
208.0,10.224861104903013,36.03910805925799,0.6707854665473001,32.46495728743975
209.0,9.974932892722954,36.27782367014018,0.6721446987723492,32.51787433093552
210.0,9.721696555510183,36.51398168929796,0.6734838973257155,32.57025571595586
211.0,9.466095302499138,36.74704842941305,0.6748028198235299,32.62208331673659
212.0,9.209048616628438,36.97650482916265,0.6761012295073562,32.67333905595208
213.0,8.951442300141933,37.20185255775715,0.6773788961937552,32.724004923109554
214.0,8.694129640540712,37.42261402388248,0.678635595440513,32.77406297456784
215.0,8.437927331875775,37.6383344544199,0.6798711083549333,32.82349533980992
216.0,8.18360763142992,37.84858758316615,0.6810852222661076,32.872284241451574
217.0,7.931903452197959,38.05297282819798,0.6822777296140743,32.920411987176294
218.0,7.683500204472946,38.25112027337755,0.6834484284070534,32.96786098876228
219.0,7.439034536182556,38.44269272091998,0.6845971222323891,33.014613772744944
220.0,7.199098675656976,38.627382705790794,0.6857236194093145,33.060652972806565
221.0,6.964230917981222,38.80491893712024,0.6868277337361409,33.10596136074251
222.0,6.734921512554503,38.97506353244382,0.687909283869075,33.15052184020023
223.0,6.5116120092601495,39.13761202907113,0.6889680930251845,33.19431745188158
224.0,6.294690159531893,39.29239737606482,0.690003989575333,33.23733140453123
225.0,6.084499265371755,39.43928396920762,0.6910168061421218,33.279547055553515
226.0,5.881331142878315,39.5781720540187,0.6920063798776628,33.320947940763794
227.0,5.685431080830674,39.70899539363228,0.6929725525102084,33.361517781660446
228.0,5.497003278938253,39.8317167320915,0.69391516945338,33.40124046641137
229.0,5.316199450759602,39.946336264501184,0.6948340811185288,33.4401001278825
230.0,5.143142562936292,40.0528747766521,0.695729140714964,33.478081040142655
231.0,4.977901314290901,40.15139167606147,0.6966002068400577,33.51516778426076
232.0,4.820523339391023,40.24196113368057,0.6974471400489871,33.551345058707234
233.0,4.671011876198348,40.32468972872329,0.6982698063588104,33.586597891280725
234.0,4.52932959084339,40.39971021801569,0.6990680750236434,33.62091159872094
235.0,4.395432385858696,40.467161047396736,0.699841816715068,33.654271569837746
236.0,4.269233288704032,40.527211048493314,0.7005909082156913,33.68666363642368
237.0,4.150625991221884,40.58004048517463,0.7013152278932908,33.71807382090427
238.0,4.0394845078606805,40.625843580538785,0.7020146580185701,33.748488442242696
239.0,3.935658113484597,40.664828890828396,0.702689083856476,33.77789416783965
240.0,3.838986592740343,40.69721141129671,0.7033383931835709,33.80627787151182
241.0,3.7492899705943104,40.723216924488675,0.7039624773752676,33.8336268394063
242.0,3.6663799084411575,40.74307568549244,0.7045612301896264,33.859928604888395
243.0,3.5900552631475025,40.75702335317313,0.7051345483967787,33.88517109898508
244.0,3.5201091158041704,40.76529779016973,0.7056823313345726,33.909342539640015
245.0,3.4563265586574135,40.76813845891641,0.7062044809950485,33.93243154330709
246.0,3.3984894552052705,40.76578467469314,0.7067009020276761,33.95442705264008
247.0,3.3463755430831386,40.75847443931003,0.7071715014122876,33.975318404120635
248.0,3.299761677160455,40.74644338591025,0.7076161888718849,33.99509530391149
