Time,J,A,S,tau
0.0,1.0,1.0,0.5171416977915664,23.809523809523807
1.0,5.092220733630303,3.0644252695478067,0.5175757972069593,23.74364359883127
2.0,12.069408514402912,4.995563227262359,0.5180121150159394,23.677317498041422
3.0,19.952796635546076,6.802186678460479,0.5184508108688431,23.610504585889284
4.0,27.796747295085478,8.492478533681993,0.5188920344601716,23.54317059695271
5.0,35.17222548268599,10.07408379915568,0.5193359341519457,23.475281064513858
6.0,41.9085569131803,11.554144998471623,0.5197826609881966,23.406801643646368
7.0,47.96266255889497,12.939335369625095,0.5202323648074737,23.33769813939417
8.0,53.352252973404795,14.23588860412083,0.5206851885124352,23.26793757626409
9.0,58.12168248109,15.449633154707637,0.5211412879762606,23.197484294408934
10.0,62.32539821345048,16.586009984053348,0.5216008032540914,23.12630738453397
11.0,66.01845047712905,17.650110980224422,0.5220638965949733,23.05437025410004
12.0,69.25335790578528,18.64668675639879,0.5225306998716602,22.981642790174753
13.0,72.0779238106882,19.580182379448924,0.5230013670696366,22.908091028779953
14.0,74.5351065523168,20.454752154302092,0.5234760485724581,22.8336812630199
15.0,76.66307745514167,21.274277505356775,0.5239548913027636,22.75838153877535
16.0,78.49556879457418,22.04238807637511,0.5244380478719078,22.682158603208933
17.0,80.06220549214953,22.76247830759384,0.5249256796618911,22.60497805842097
18.0,81.38921156637541,23.43771365545352,0.5254179030823991,22.526811967215792
19.0,82.49974782754754,24.07106225794119,0.5259148880576278,22.44762543417024
20.0,83.41419159110966,24.66529461867544,0.5264167789559306,22.36738747527797
21.0,84.15090964343564,25.22300278983485,0.5269237302227381,22.286065628601182
22.0,84.72583675255892,25.74660423820544,0.5274358617242261,22.203634023270038
23.0,84.44509517014951,26.897198665582906,0.527278516375662,22.254834300317096
24.0,81.9800958939134,29.677136738277987,0.5273573793178018,22.236094099108513
25.0,78.28146342807993,32.982477159308885,0.5274441934786422,22.215332734236284
26.0,73.9851493537384,36.24399268851517,0.5275398682642515,22.192228972316837
27.0,69.45525230382707,39.21823136041661,0.5276453634391721,22.166423857849065
28.0,64.8916164499426,41.82211934316878,0.5277616134911923,22.137550960748147
29.0,60.40102423640359,44.04861983153365,0.5278892986463554,22.105309681598282
30.0,56.03950898467884,45.922703387229646,0.5280285804017979,22.069604423998012
31.0,51.83728855878924,47.47898651692311,0.5281784511857602,22.030764819434143
32.0,47.81271272221809,48.75087486128661,0.5283360256471139,21.98974407955978
33.0,43.98228076706358,49.76371161254993,0.5284966327474862,21.94804955530349
34.0,40.36904646073362,50.52881505340632,0.5286554075421435,21.90726529171269
35.0,37.0031482495217,51.04494548837797,0.5288088398091572,21.86854594289899
36.0,33.90665305792596,51.314806441366336,0.5289549764041077,21.832458567049137
37.0,31.0768634959685,51.362054156995264,0.5290929750680697,21.799105293800174
38.0,28.489983798274718,51.227939004217085,0.5292226567676631,21.768315247667775
39.0,26.117442473784614,50.95481886307663,0.5293443233321523,21.73979091153691
40.0,23.936273651819736,50.57627717944609,0.5294585385023832,21.713199034513448
41.0,21.93013439719687,50.11652799262502,0.5295660088154739,21.688218538270124
42.0,20.087068130268477,49.593207022279756,0.5296674889492196,21.66456393260332
43.0,18.39759281048195,49.01984060242417,0.5297637673522355,21.641976683287847
44.0,16.85369707686228,48.407316603440584,0.5298555975415736,21.62023818759925
45.0,15.518662100779034,47.69730951078649,0.529943754778602,21.59915252483226
46.0,14.564259699589726,46.73673633847372,0.5300290064587718,21.578548768482065
47.0,14.012526392395795,45.53242239300909,0.5301121294863979,21.558259725754223
48.0,13.822905543895121,44.15090392870305,0.5301939113525124,21.538137460705034
49.0,13.949293435752107,42.65797833007319,0.5302751693129683,21.518032174582956
50.0,14.353671772680855,41.1057262232776,0.5303567329779788,21.497795698720388
51.0,15.006935977691302,39.5328249567684,0.5304394680271102,21.477274356363885
52.0,15.887402596475654,37.967222065942586,0.5305242989247627,21.456305720598753
53.0,16.9787611151797,36.42900322004949,0.530612321259686,21.434685504450872
54.0,18.26868390357919,34.93239898560166,0.5307047475817496,21.412200234087617
55.0,19.7473480103157,33.48756155501202,0.5308030003220178,21.388580213277773
56.0,21.406449788435946,32.101800215204875,0.5309087381266177,21.363490021424216
57.0,23.23836514675929,30.780426620919716,0.5310239010473647,21.336502542812095
58.0,25.235509274955028,29.52719250379718,0.5311507987455054,21.307061376955545
59.0,27.389678694563763,28.344645183768765,0.5312921497732431,21.2744300353238
60.0,29.69138283626922,27.234500921802695,0.5314511330931888,21.23763620373143
61.0,32.12755768448041,26.199161115548147,0.531631216170099,21.195449829753468
62.0,34.671467860064475,25.251956668176913,0.5318356041996365,21.146487599034305
63.0,37.25520378551278,24.44544518333269,0.5320657036094831,21.089782856716855
64.0,39.799466342419166,23.843385579804917,0.5323179029894836,21.026171289856606
65.0,42.35809591648698,23.377207982630512,0.5325792198603518,20.959820939277936
66.0,45.07494462753328,22.889382520352985,0.5328312229449899,20.896701790358335
67.0,47.96640704091055,22.34820687555839,0.5330621437433849,20.840501812459554
68.0,50.936826639537095,21.829787382363097,0.5332688139695977,20.791725249303504
69.0,53.913678429387254,21.38264159448928,0.5334524553919257,20.749325416822035
70.0,56.85498573786481,21.02083043958658,0.5336159743106043,20.711944844621843
71.0,59.72553843373981,20.74800157890785,0.5337626198676637,20.678385296279973
72.0,62.48999129829375,20.56511026455257,0.5338954299359907,20.64770562112338
73.0,65.11215204463512,20.472209102226618,0.5340171207053535,20.6191762119696
74.0,67.55583540607753,20.468864121994564,0.5341300753533639,20.59223732288384
75.0,69.78659010339086,20.55388980008796,0.534236458533583,20.566440441686325
76.0,71.77130268778241,20.726217978046805,0.5343382779138568,20.54140853548322
77.0,73.47962837128863,20.984729254592974,0.534437376350754,20.516824790786373
78.0,74.88573655174542,21.327211666872092,0.5345353874482529,20.49239516219451
79.0,75.96902481504092,21.750138056511226,0.5346337326864903,20.467852580194297
80.0,76.71525396212786,22.24861864180356,0.5347339017170727,20.442918672695196
81.0,77.11715319067432,22.81634223140414,0.5348376547427518,20.417283344746036
82.0,77.17422596207297,23.44585408077074,0.5349470468549437,20.39058356260002
83.0,76.89153116519489,24.129661781479516,0.5350643563997028,20.362384360549854
84.0,76.27725448517167,24.861830521937534,0.5351921347445588,20.33214109724395
85.0,75.33980534232907,25.639057386357173,0.5353332911707873,20.29915222603207
86.0,74.08616175237619,26.46145901192143,0.5354911469895014,20.262503591368315
87.0,72.51676204721282,27.336621145567086,0.5356694340414857,20.221003140909307
88.0,70.61953708212945,28.285459594579663,0.5358717625796555,20.17322717766282
89.0,68.35967992597868,29.35257907624856,0.5361004469728511,20.11787420390661
90.0,65.71807114650238,30.568237155621727,0.5363534841938596,20.054914174094232
91.0,62.7855946450189,31.856347783141597,0.5366204382027712,19.987394379334464
92.0,59.72270592204092,33.07929705435936,0.5368824412422765,19.921349822543846
93.0,56.677596095638116,34.12030318774694,0.5371233997065072,19.86182679889076
94.0,53.71908759664019,34.94636000059848,0.5373369900729182,19.810334312493627
95.0,50.84371702241183,35.595984382773615,0.5375235038557389,19.766069680652468
96.0,48.04533155569668,36.10656277083718,0.5376859594109128,19.727587240728372
97.0,45.33623829632141,36.49317026025317,0.5378280627640549,19.69353753117375
98.0,42.73789734471898,36.758611171001675,0.5379532929844061,19.662856357518844
99.0,40.2733715781772,36.90211809878111,0.538064652175776,19.63473831451182
100.0,37.964977908973324,36.92212482126668,0.5381647241671577,19.608574002468597
101.0,35.83551123198519,36.815697674177464,0.5382557856982837,19.583892249405565
102.0,33.90243098824051,36.58451337317731,0.538340028185162,19.560313494206003
103.0,32.174178811082115,36.23807238348568,0.5384195090261928,19.537519880638854
104.0,30.65893886411011,35.78511161838221,0.5384959407638966,19.515250334406478
105.0,29.366024542858803,35.232606581722415,0.5385703223339005,19.49329732909168
106.0,28.3046221448395,34.58743591407028,0.5386430435717082,19.47149630932792
107.0,27.483543574804177,33.85690373258267,0.5387145141140433,19.449683859912536
108.0,26.910934133608816,33.04917996093411,0.538785614743962,19.427682131461804
109.0,26.594145623022584,32.17363710877747,0.5388577169500867,19.405282527953194
110.0,26.539374356734772,31.240988587215337,0.5389323354299034,19.382258383331134
111.0,26.750992950668852,30.263646740103354,0.5390109092731614,19.358355739506745
112.0,27.230848504333604,29.255867800210936,0.5390947977907299,19.333290374735626
113.0,27.977810613353043,28.23324759019487,0.5391853937396845,19.30673023218686
114.0,28.98823284396164,27.211330045789282,0.539284112673399,19.27827988446123
115.0,30.256860880145464,26.204151033266566,0.5393923854521809,19.247475526364646
116.0,31.775870411175614,25.224349851930324,0.5395116457040214,19.213786525295106
117.0,33.53235799621777,24.285592838026233,0.5396429084029362,19.176673119370808
118.0,35.503435203853165,23.407437566260725,0.5397866456501116,19.135706367628586
119.0,37.65232141584876,22.619317817557473,0.5399416927226715,19.09087692408966
120.0,39.944454325100146,21.94491704287649,0.5401046342847134,19.04297821044763
121.0,42.37921890478601,21.370662251160596,0.5402692036108623,18.993848231015928
122.0,44.98640791560215,20.849562643609364,0.5404276588649362,18.945931280962213
123.0,47.782388852596306,20.34463386222726,0.5405731989345323,18.90131454363224
124.0,50.74184634051925,19.856545765234657,0.5407020913228463,18.86104264342397
125.0,53.81245197818426,19.408499050904805,0.5408131894568754,18.82523406237712
126.0,56.93911084731569,19.021911905570736,0.5409070388445256,18.793494413484442
127.0,60.07125001055513,18.709729400549676,0.5409849137072812,18.765254519495258
128.0,63.15945975301388,18.479744709034936,0.5410485392702521,18.739944709426187
129.0,66.15312722424454,18.337753192756132,0.5410993832938633,18.71707813895607
130.0,68.99948132336652,18.288763615442654,0.5411389415534658,18.69624864354072
131.0,71.6444975013324,18.33705707256851,0.5411685279166406,18.677125636407805
132.0,74.03434319115797,18.486042194078177,0.5411892421188342,18.659448139165065
133.0,76.1163114148402,18.738600835072553,0.5412021142591978,18.6430032421839
134.0,77.84141409359287,19.096321384130526,0.5412080654102817,18.627618514776554
135.0,79.16716372013215,19.558848057817187,0.541207926529335,18.61315407325487
136.0,80.05886014753675,20.12394332159235,0.5412024534636544,18.599492234131738
137.0,80.49162192984107,20.787638816313038,0.5411924608640415,18.586531718279897
138.0,80.45041244242276,21.54462092002036,0.5411788150946786,18.57418285500289
139.0,79.93103852590436,22.388103371421877,0.5411623112063974,18.562368386503863
140.0,78.9403239607754,23.309523625365756,0.5411437616884575,18.551019868020543
141.0,77.49620134229653,24.298288203128223,0.5411238282670602,18.5400816067163
142.0,75.6269839996795,25.34170374799145,0.5411029671682172,18.52951128278817
143.0,73.37026840733803,26.425130733083076,0.5410813746878924,18.519279927979483
144.0,70.77097204740471,27.532308152654007,0.5410590000702293,18.50937461410047
145.0,67.8798208075866,28.645501207194812,0.5410356045191747,18.499792611928395
146.0,64.75108317917443,29.74578214963097,0.54101085033,18.49053573731522
147.0,61.44172778088398,30.81317001970624,0.5409844322378873,18.481607333224137
148.0,58.009584504363396,31.826950013490762,0.5409561268677578,18.473010332487423
149.0,54.512293586463294,32.766106077529884,0.5409258682603983,18.46474169783727
150.0,51.00621248538323,33.60991505738228,0.5408936937928993,18.456793887895763
151.0,47.54566283663456,34.33835520600405,0.5408597633671167,18.44916378980166
152.0,44.1815676146395,34.93316801832536,0.5408243185879448,18.44184205583683
153.0,40.96098033929156,35.37854532137567,0.5407876627653645,18.434819218857196
154.0,37.92629584274781,35.66203678098862,0.5407500801905781,18.428085686140925
155.0,35.114417918684964,35.775349115580084,0.5407118846561733,18.421634529499908
156.0,32.55614895216156,35.71519855417588,0.5406733626455408,18.41545366929489
157.0,30.27607721540185,35.4834527508183,0.5406347849174193,18.409539091397107
158.0,28.293193299752186,35.086879015880534,0.5405964098240661,18.4038838270011
159.0,26.621687334181093,34.53635749936616,0.5405584227498712,18.398486460045802
160.0,25.271820995293773,33.84629924651271,0.5405210241561033,18.393344753737153
161.0,24.2507695435655,33.03386121224899,0.5404844360372818,18.388452027009933
162.0,23.563512918955915,32.11810265042771,0.5404487883599979,18.383809980423187
163.0,23.213675627551353,31.11906484741048,0.540414259662928,18.37941630841641
164.0,23.20426596615126,30.05690632088022,0.5403809763902617,18.375271648183155
165.0,23.538078925505292,28.951216407588916,0.5403490807645521,18.37137571653006
166.0,24.217917957033514,27.820435544467568,0.5403186973038637,18.36772803925434
167.0,25.246263385264534,26.681462221433044,0.5402899229267409,18.36433058045042
168.0,26.624988294946515,25.549441071247013,0.5402628622751637,18.361183440905826
169.0,28.354228919335196,24.437819910652873,0.5402376471203207,18.35828458982788
170.0,30.431820481039924,23.358238442174013,0.5402143579209969,18.35563594443187
171.0,32.851955274566485,22.320820134163533,0.5401930698782139,18.353237993220812
172.0,35.60432511623003,21.33422566813145,0.5401738024449192,18.35109431861785
173.0,38.67302945966375,20.406047817886304,0.5401567780896401,18.349198570870836
174.0,42.035617390256135,19.54298328054,0.5401419632112004,18.347555252792418
175.0,45.662948533080446,18.751026845114765,0.5401294652224069,18.346162540280105
176.0,49.51847813821712,18.035856907841403,0.5401193266307408,18.34502020153165
177.0,53.55819900935091,17.402978930493234,0.5401114926188467,18.34413373596996
178.0,57.7312304946778,16.85792722423012,0.5401060877862006,18.343497057133753
179.0,61.979954070248425,16.406389820280896,0.5401031546722388,18.343110667316235
180.0,66.24074445476693,16.054369508988177,0.5401026650845657,18.342976434808644
181.0,70.44491012365854,15.80813847380048,0.5401046454047111,18.343092823536082
182.0,74.5195412396978,15.674145147915128,0.5401090869817335,18.34345786499709
183.0,78.38855550646578,15.658929185358334,0.5401158824273884,18.344077650074485
184.0,81.9742810918489,15.768809212809584,0.5401251194728931,18.34494648004372
185.0,85.19843176271843,16.009634904344157,0.5401366245187237,18.346071471349674
186.0,87.98511085415903,16.386340709878187,0.5401504704449617,18.347445284030506
187.0,90.26260918435456,16.902541461949113,0.5401666057186505,18.34906880492663
188.0,91.96698592803669,17.56003769276916,0.5401849230203832,18.350944507364414
189.0,93.04575049045626,18.358386909946926,0.5402053489825083,18.353071233139183
190.0,93.46136567555145,19.294502121322928,0.5402277808094722,18.35544855983163
191.0,93.19432008199175,20.362290581035243,0.5402522582982665,18.3580712146468
192.0,92.24499736778674,21.55248461004503,0.5402787279073706,18.36093718083687
193.0,90.63420904583764,22.852496904896388,0.540306932725324,18.364053222629657
194.0,88.40169312185769,24.24655809566422,0.5403368104590989,18.367417044696786
195.0,85.60365686756884,25.71580382041275,0.5403683040775197,18.37102607688802
196.0,82.30889999318113,27.23865415230065,0.5404011294800914,18.37488617973586
197.0,78.5947493452037,28.79113837267375,0.5404353278522862,18.3789917765648
198.0,74.54330384861017,30.347449803807454,0.5404707132968792,18.38334281023639
199.0,70.23790557851383,31.880347654256333,0.5405071501427899,18.387939206277018
200.0,65.76082037522873,33.36159754527347,0.5405445085523565,18.392782797125598
201.0,61.191453912263384,34.762550798294,0.5405825982076057,18.397873192521338
202.0,56.605264425775836,36.05453979264532,0.5406212198063006,18.40321250072561
203.0,52.07323685152838,37.20948989060095,0.5406601299946511,18.408805640051142
204.0,47.661480934637424,38.20058500473245,0.5406990942330502,18.414657003400762
205.0,43.43078379710094,39.00312808694686,0.5407377748127558,18.420775581094606
206.0,39.436016692441235,39.595664514203726,0.5407757845323441,18.427172627466636
207.0,35.72525996364304,39.961522222055414,0.5408128330456615,18.433854456182445
208.0,32.339229743244275,40.08987591398559,0.5408484310954782,18.44083786863427
209.0,29.31010950473815,39.97718351054985,0.5408821711208138,18.448133622343093
210.0,26.66136897188672,39.62774123715888,0.5409135557944666,18.45576053325038
211.0,24.407694648298662,39.05384491402969,0.540942260020293,18.4637303567264
212.0,22.55610165068929,38.27496403130301,0.5409680080185331,18.47205496845963
213.0,21.107276202175377,37.3163961724997,0.5409907715996177,18.480736250633058
214.0,20.057616972547116,36.20733905308472,0.5410107652472519,18.489769616880807
215.0,19.401267882163914,34.97889225918783,0.5410285002602739,18.49914227341629
216.0,19.131793759605184,33.66214463415862,0.5410447217653179,18.508832921491386
217.0,19.243828467259004,32.28659784703427,0.541060290758173,18.518821852538675
218.0,19.733550527712886,30.87917913889581,0.5410759719445468,18.529086206405875
219.0,20.59927782578565,29.463422590757318,0.5410922239376069,18.53962450255819
220.0,21.840676992224317,28.059495031014805,0.5411090888506872,18.550452115323804
221.0,23.45830460341548,26.684063847269677,0.5411261688951825,18.561608342048995
222.0,25.45221502220528,25.350817128496416,0.5411427052271598,18.573148377244205
223.0,27.820695628929343,24.070787004475015,0.5411576912774374,18.585143860778288
224.0,30.558986963119313,22.852789107892058,0.5411700461390389,18.597676866861313
225.0,33.657850077731545,21.704048664747322,0.5411786971378529,18.610838446489815
226.0,37.10235785304257,20.630488764251503,0.5411827016703395,18.624725728829752
227.0,40.87101646464267,19.637225422518355,0.541181160126866,18.639448219979563
228.0,44.93512334124149,18.728872430436265,0.541173249366997,18.65513247573917
229.0,49.25841734498713,17.909958552518017,0.5411581320322055,18.671924468761134
230.0,53.79675227658326,17.185080676984413,0.5411348519908166,18.690010455046252
231.0,58.499038121317945,16.55915055205957,0.5411023618650613,18.70961292823301
232.0,63.30767406529771,16.037465050758925,0.5410594898977557,18.73100827060747
233.0,68.15954114691938,15.62553299696512,0.5410049688835394,18.754534302882405
234.0,72.98725868721601,15.328605224432254,0.5409374061757269,18.780602103962543
235.0,77.72119976055501,15.150176226432173,0.5408553236570751,18.809695934691973
236.0,82.29358577191454,15.08841734171743,0.540757321938793,18.842336109777584
237.0,86.64410625856021,15.130714798026174,0.5406424676684889,18.878984613084103
238.0,90.72043330968039,15.254408902678822,0.5405109631274082,18.919815762317537
239.0,94.46062397140106,15.44649457668292,0.5403648147596659,18.964391882104888
240.0,97.77067486738596,15.728540609650679,0.5402085864409086,19.01137095694973
241.0,100.53474276402902,16.150788525857905,0.5400491102433506,19.058651476049565
242.0,102.65016277358333,16.76012224842589,0.5398932698331477,19.10413310813193
243.0,104.05462529775491,17.575146557700172,0.5397460931739357,19.14644180045491
244.0,104.72732912834144,18.58608656313374,0.5396100532128887,19.18509891525009
245.0,104.67260043190763,19.771434986811293,0.5394858486247096,19.22023224066004
246.0,103.90849882350297,21.10941768496764,0.5393730371324047,19.252256408364715
247.0,102.46559801124221,22.579343964906535,0.539270481726514,19.28167052381061
248.0,100.38865788324041,24.159668844582892,0.5391769015854744,19.308943159521544
249.0,97.73709146759343,25.826049309126752,0.5390909524070983,19.334486193021124
