Time,J,A,S,tau
0.0,1.0,1.0,0.7889614055847577,27.77777777777778
1.0,1.3034875614532688,1.5775218169397633,0.7889614055847577,27.77777777777778
2.0,1.8442447963412743,2.1441068066597304,0.7889614055847577,27.77777777777778
3.0,2.542539799490392,2.6999620857896747,0.7889614055847577,27.77777777777778
4.0,3.3375125084535853,3.245290848799018,0.7889614055847577,27.77777777777778
5.0,4.183029355529758,3.7802924423044217,0.7889614055847577,27.77777777777778
6.0,5.0444383203754635,4.305162438258362,0.7889614055847577,27.77777777777778
7.0,5.896029631799606,4.820092703804726,0.7889614055847577,27.77777777777778
8.0,6.719041287868012,5.325271477497173,0.7889614055847577,27.77777777777778
9.0,7.5001005327351224,5.8208834308831054,0.7889614055847577,27.77777777777778
10.0,8.229993215603482,6.307109743740102,0.7889614055847577,27.77777777777778
11.0,8.902713266699001,6.784128162438411,0.7889614055847577,27.77777777777778
12.0,9.514695432771818,7.252113076973726,0.7889614055847577,27.77777777777778
13.0,10.064231625118166,7.711235652529915,0.7889614055847577,27.77777777777778
14.0,10.551014264244877,8.161663693134477,0.7889614055847577,27.77777777777778
15.0,10.975782573977565,8.603561701643962,0.7889614055847577,27.77777777777778
16.0,11.340002403041849,9.037091388078334,0.7889614055847577,27.77777777777778
17.0,11.64568880915168,9.462410898309447,0.7889614055847577,27.77777777777778
18.0,11.895223876945783,9.879675889052853,0.7889614055847577,27.77777777777778
19.0,12.091222859509944,10.289038902132187,0.7889614055847577,27.77777777777778
20.0,12.236436556216226,10.690649592140002,0.7889614055847577,27.77777777777778
21.0,12.333676100147882,11.08465478210627,0.7889614055847577,27.77777777777778
22.0,12.385756189022828,11.471198516445746,0.7889614055847577,27.77777777777778
23.0,12.395452435262035,11.85042207082313,0.7889614055847577,27.77777777777778
24.0,12.365470737879077,12.222464050617761,0.7889614055847577,27.77777777777778
25.0,12.29842609791785,12.587460463091578,0.7889614055847577,27.77777777777778
26.0,12.19682806020082,12.945544742436654,0.7889614055847577,27.77777777777778
27.0,12.063071145115604,13.296847773345148,0.7889614055847577,27.77777777777778
28.0,11.892659021206283,13.648217859861647,0.7889614055847577,27.77777777777778
29.0,11.527516892511338,14.153330564289101,0.7889614055847577,27.77777777777778
30.0,10.944314340652038,14.822078529338546,0.7889614055847577,27.77777777777778
31.0,10.197235695476298,15.593867512040152,0.7889614055847577,27.77777777777778
32.0,9.332246555498433,16.42276785410586,0.7889614055847577,27.77777777777778
33.0,8.387801580644867,17.274267734157633,0.7889614055847577,27.77777777777778
34.0,7.395438223692716,18.122747185921266,0.7889614055847577,27.77777777777778
35.0,6.380463866395554,18.949486581615467,0.7889614055847577,27.77777777777778
36.0,5.362727243525862,19.74111595268088,0.7889614055847577,27.77777777777778
37.0,4.35743291140523,20.488395532700657,0.7889614055847577,27.77777777777778
38.0,3.375933392667641,21.185259665135906,0.7889614055847577,27.77777777777778
39.0,2.426451882574304,21.828068974658525,0.7889614055847577,27.77777777777778
40.0,1.5147133072558534,22.415025023277362,0.7889614055847577,27.77777777777778
41.0,0.6444793398557734,22.94571163065208,0.7889614055847577,27.77777777777778
42.0,-0.1820110081736891,23.420737428518244,0.7889614055847577,27.77777777777778
43.0,-0.9636820219806742,23.841456540273516,0.7889614055847577,27.77777777777778
44.0,-1.700338489422851,24.209754181702692,0.7889614055847577,27.77777777777778
45.0,-2.392438183376498,24.527877610919667,0.7889614055847577,27.77777777777778
46.0,-3.0409107511815283,24.79830672035399,0.7889614055847577,27.77777777777778
47.0,-3.647020556248578,25.023656513606095,0.7889614055847577,27.77777777777778
48.0,-4.212258577628187,25.206601979217957,0.7889614055847577,27.77777777777778
49.0,-4.738259301636524,25.349821917118504,0.7889614055847577,27.77777777777778
50.0,-5.226737158810214,25.455957372888285,0.7889614055847577,27.77777777777778
51.0,-5.679438324390197,25.527581547941693,0.7889614055847577,27.77777777777778
52.0,-6.098104610799726,25.567178527118728,0.7889614055847577,27.77777777777778
53.0,-6.48444675786467,25.577128900148782,0.7889614055847577,27.77777777777778
54.0,-6.840125043131614,25.559700678620164,0.7889614055847577,27.77777777777778
55.0,-7.16673557497098,25.517044266645343,0.7889614055847577,27.77777777777778
56.0,-7.465547164047395,25.45093685726531,0.7889614055847577,27.77777777777778
57.0,-7.731085305926934,25.356435490295926,0.7889614055847577,27.77777777777778
58.0,-7.9544797590137435,25.225389377840298,0.7889614055847577,27.77777777777778
59.0,-8.132447753427085,25.055377334001737,0.7889614055847577,27.77777777777778
60.0,-8.26587011743227,24.848178842251716,0.7889614055847577,27.77777777777778
61.0,-8.357991229910146,24.607910393457004,0.7889614055847577,27.77777777777778
62.0,-8.413115925598232,24.339689105083576,0.7889614055847577,27.77777777777778
63.0,-8.435754386189219,24.048765065742963,0.7889614055847577,27.77777777777778
64.0,-8.430134309112775,23.740033342167216,0.7889614055847577,27.77777777777778
65.0,-8.39996956758064,23.417808830553945,0.7889614055847577,27.77777777777778
66.0,-8.348388239553358,23.085763052478896,0.7889614055847577,27.77777777777778
67.0,-8.277949602478458,22.74695034730665,0.7889614055847577,27.77777777777778
68.0,-8.19070140735779,22.403873463498275,0.7889614055847577,27.77777777777778
69.0,-8.088254098983723,22.058565071272792,0.7889614055847577,27.77777777777778
70.0,-7.97185439639709,21.71266719635713,0.7889614055847577,27.77777777777778
71.0,-7.842453690196718,21.36750414978035,0.7889614055847577,27.77777777777778
72.0,-7.700766024645568,21.0241441793914,0.7889614055847577,27.77777777777778
73.0,-7.547308700291682,20.68344234811458,0.7889614055847577,27.77777777777778
74.0,-7.382453661729825,20.34609231209056,0.7889614055847577,27.77777777777778
75.0,-7.206458031286801,20.01266100214849,0.7889614055847577,27.77777777777778
76.0,-7.019474426859645,19.683594365761405,0.7889614055847577,27.77777777777778
77.0,-6.821603240706434,19.35927562410845,0.7889614055847577,27.77777777777778
78.0,-6.612875180871364,19.039997465480514,0.7889614055847577,27.777777777777775
79.0,-6.3932877467214935,18.72601787965357,0.7889614055847577,27.777777777777775
80.0,-6.162826187864168,18.417543868623643,0.7889614055847577,27.77777777777777
81.0,-5.921432208434986,18.114742720785806,0.7889614055847577,27.77777777777777
82.0,-5.669056857986576,17.817768899697775,0.7889614055847577,27.77777777777777
83.0,-5.405662861404319,17.526741776791596,0.7889614055847577,27.777777777777768
84.0,-5.13119728228855,17.241778889523246,0.7889614055847577,27.777777777777768
85.0,-4.8456504353028755,16.963012599205644,0.7889614055847577,27.777777777777768
86.0,-4.549178224500088,16.690675837267065,0.7889614055847577,27.777777777777768
87.0,-4.24200272369368,16.425051047334875,0.7889614055847577,27.777777777777768
88.0,-3.9244301657597176,16.166447338774137,0.7889614055847577,27.777777777777768
89.0,-3.596809589412651,15.915174182089824,0.7889614055847577,27.777777777777768
90.0,-3.25954249472815,15.67153072833435,0.7889614055847577,27.777777777777768
91.0,-2.913074410314964,15.435801589517578,0.7889614055847577,27.777777777777768
92.0,-2.557893795440259,15.20825688937588,0.7889614055847577,27.777777777777768
93.0,-2.194539384785866,14.98915190437009,0.7889614055847577,27.777777777777768
94.0,-1.8235996312475813,14.778729520260114,0.7889614055847577,27.777777777777768
95.0,-1.4457184039511732,14.577221568036075,0.7889614055847577,27.777777777777768
96.0,-1.0615944911188173,14.384850783577688,0.7889614055847577,27.777777777777768
97.0,-0.6719849889375659,14.201831793595101,0.7889614055847577,27.777777777777768
98.0,-0.2777042675179805,14.028372254187028,0.7889614055847577,27.777777777777768
99.0,0.12037509868477352,13.864673222810284,0.7889614055847577,27.777777777777768
100.0,0.5213238064823477,13.710929434937297,0.7889614055847577,27.777777777777768
101.0,0.924157687341053,13.567329262936633,0.7889614055847577,27.777777777777768
102.0,1.327840324712846,13.434054302497174,0.7889614055847577,27.777777777777768
103.0,1.731286433474734,13.311278887060942,0.7889614055847577,27.777777777777768
104.0,2.133365259441078,13.19916931849593,0.7889614055847577,27.777777777777768
105.0,2.5329057839242877,13.097882920082998,0.7889614055847577,27.777777777777768
106.0,2.9287016996837276,13.007567149064426,0.7889614055847577,27.777777777777768
107.0,3.31951667205651,12.928358417911697,0.7889614055847577,27.777777777777768
108.0,3.704091188410431,12.860380703312126,0.7889614055847577,27.777777777777768
109.0,4.081148431873882,12.803744698651693,0.7889614055847577,27.777777777777768
110.0,4.44940173827495,12.758546026515925,0.7889614055847577,27.777777777777768
111.0,4.807562041993492,12.724864256751028,0.7889614055847577,27.777777777777768
112.0,5.154345063150382,12.702761222489096,0.7889614055847577,27.777777777777768
113.0,5.488480575083001,12.692278622418584,0.7889614055847577,27.777777777777768
114.0,5.808724707648342,12.693432971854275,0.7889614055847577,27.777777777777768
115.0,6.113872678578499,12.706209866729901,0.7889614055847577,27.777777777777768
116.0,6.402770972815873,12.730559795595234,0.7889614055847577,27.777777777777768
117.0,6.674329559019904,12.766395190010295,0.7889614055847577,27.777777777777768
118.0,6.927531350847703,12.813587885303189,0.7889614055847577,27.777777777777768
119.0,7.161445035552337,12.871967079637338,0.7889614055847577,27.777777777777768
120.0,7.375230929695025,12.941318297813295,0.7889614055847577,27.777777777777768
121.0,7.5681520077958355,13.021382062194775,0.7889614055847577,27.777777777777768
122.0,7.7395777741838305,13.111855027709984,0.7889614055847577,27.777777777777768
123.0,7.889002616377353,13.212386353248396,0.7889614055847577,27.777777777777768
124.0,8.016039042223987,13.322579204833202,0.7889614055847577,27.777777777777768
125.0,8.120419285851625,13.441996102826733,0.7889614055847577,27.777777777777768
126.0,8.202032837716855,13.570145429399394,0.7889614055847577,27.777777777777768
127.0,8.260869628219732,13.70650460431416,0.7889614055847577,27.777777777777768
128.0,8.297087928383121,13.850495866335866,0.7889614055847577,27.777777777777768
129.0,8.310946131673319,14.00151356775188,0.7889614055847577,27.777777777777768
130.0,8.302869187559729,14.15890206509769,0.7889614055847577,27.777777777777768
131.0,8.273381808831079,14.3219800264693,0.7889614055847577,27.777777777777768
132.0,8.223150935408595,14.490026661231449,0.7889614055847577,27.777777777777768
133.0,8.152951494709406,14.662294772827297,0.7889614055847577,27.777777777777768
134.0,8.063673890117675,14.838009896574713,0.7889614055847577,27.777777777777768
135.0,7.956313966021828,15.016374462621426,0.7889614055847577,27.777777777777768
136.0,7.831954914480839,15.196573858259391,0.7889614055847577,27.777777777777768
137.0,7.69176745839034,15.377778404805069,0.7889614055847577,27.777777777777768
138.0,7.53699584369819,15.55914877250579,0.7889614055847577,27.777777777777768
139.0,7.3689461081157885,15.739840754776965,0.7889614055847577,27.777777777777768
140.0,7.188975575480713,15.919009750640928,0.7889614055847577,27.777777777777768
141.0,6.998482016984799,16.095815551814166,0.7889614055847577,27.777777777777768
142.0,6.798892323458501,16.26942810519487,0.7889614055847577,27.777777777777768
143.0,6.591650337761597,16.43903296902788,0.7889614055847577,27.777777777777768
144.0,6.378205721884229,16.60383675996958,0.7889614055847577,27.777777777777768
145.0,6.160001667445123,16.763073275162075,0.7889614055847577,27.777777777777768
146.0,5.938465415051692,16.916009893637153,0.7889614055847577,27.777777777777768
147.0,5.71499654860786,17.061952885212136,0.7889614055847577,27.777777777777768
148.0,5.490957528069648,17.20025299591963,0.7889614055847577,27.777777777777768
149.0,5.267664621624699,17.330310609128436,0.7889614055847577,27.777777777777768
150.0,5.04637970733,17.45158043871794,0.7889614055847577,27.777777777777768
151.0,4.8283029265244775,17.563575763175887,0.7889614055847577,27.777777777777768
152.0,4.6145663905031835,17.665871968497665,0.7889614055847577,27.777777777777768
153.0,4.40622864358648,17.758109536454704,0.7889614055847577,27.777777777777768
154.0,4.204270420163208,17.839996493979967,0.7889614055847577,27.777777777777768
155.0,4.009591884142883,17.911309356621633,0.7889614055847577,27.777777777777768
156.0,3.8230102517450892,17.97189397839988,0.7889614055847577,27.777777777777768
157.0,3.6452589405995774,18.02166513672576,0.7889614055847577,27.777777777777768
158.0,3.4769874586283334,18.060605594014472,0.7889614055847577,27.777777777777768
159.0,3.3187624015159014,18.088764216040968,0.7889614055847577,27.777777777777768
160.0,3.171069772075367,18.10625333290649,0.7889614055847577,27.777777777777768
161.0,3.0343156138652367,18.113245845115127,0.7889614055847577,27.777777777777768
162.0,2.908831880404193,18.109971177322095,0.7889614055847577,27.777777777777768
163.0,2.794878635329206,18.096711295614853,0.7889614055847577,27.777777777777768
164.0,2.6926519972366045,18.07379397566175,0.7889614055847577,27.777777777777768
165.0,2.6022805267487246,18.041591248663153,0.7889614055847577,27.777777777777768
166.0,2.523839878546393,18.000512665611705,0.7889614055847577,27.777777777777768
167.0,2.4573518542959936,17.95099693719482,0.7889614055847577,27.777777777777768
168.0,2.402790833637799,17.893514303508606,0.7889614055847577,27.777777777777764
169.0,2.3600818604278397,17.828552456221274,0.7889614055847577,27.777777777777764
170.0,2.3291242750850234,17.756617926137316,0.7889614055847577,27.777777777777764
171.0,2.3097767167999605,17.678229258800055,0.7889614055847577,27.777777777777764
172.0,2.301869106597732,17.59391351674179,0.7889614055847577,27.777777777777764
173.0,2.305207314771853,17.504201211594413,0.7889614055847577,27.777777777777764
174.0,2.3195705380131164,17.409623163891737,0.7889614055847577,27.777777777777764
175.0,2.3447221690702658,17.31070776454094,0.7889614055847577,27.777777777777764
176.0,2.3804063213413293,17.207977553380562,0.7889614055847577,27.777777777777764
177.0,2.426352031179028,17.101946646408113,0.7889614055847577,27.777777777777764
178.0,2.482275288681983,16.993119337764767,0.7889614055847577,27.777777777777764
179.0,2.5478792610873815,16.881987972395198,0.7889614055847577,27.777777777777764
180.0,2.622855737884758,16.769031026391445,0.7889614055847577,27.777777777777764
181.0,2.7068861577349086,16.65471312651772,0.7889614055847577,27.777777777777764
182.0,2.7996416193807443,16.53948388131289,0.7889614055847577,27.777777777777764
183.0,2.9007827657317566,16.423776424541753,0.7889614055847577,27.777777777777764
184.0,3.0099601563220695,16.3080082916154,0.7889614055847577,27.777777777777764
185.0,3.126814229666282,16.192581151101407,0.7889614055847577,27.777777777777764
186.0,3.2509744698706218,16.0778795695015,0.7889614055847577,27.777777777777764
187.0,3.382059056874656,15.96427228240734,0.7889614055847577,27.777777777777764
188.0,3.5196751813835374,15.852112513967755,0.7889614055847577,27.777777777777764
189.0,3.663418119183719,15.741737013023485,0.7889614055847577,27.777777777777764
190.0,3.812870291739387,15.633467116176519,0.7889614055847577,27.777777777777764
191.0,3.9676021267741417,15.527609515468171,0.7889614055847577,27.777777777777764
192.0,4.127171663467718,15.42445548307189,0.7889614055847577,27.777777777777764
193.0,4.291123103982071,15.32428146617797,0.7889614055847577,27.777777777777764
194.0,4.458988316598297,15.227350100774236,0.7889614055847577,27.777777777777764
195.0,4.6302874189694245,15.133909568600444,0.7889614055847577,27.777777777777764
196.0,4.804527039636643,15.044193620190175,0.7889614055847577,27.777777777777764
197.0,4.981202395832716,14.9584226442902,0.7889614055847577,27.777777777777764
198.0,5.159798989147569,14.876803215958017,0.7889614055847577,27.777777777777764
199.0,5.339791061324653,14.799527482859945,0.7889614055847577,27.777777777777764
200.0,5.520643865314555,14.726774242346572,0.7889614055847577,27.777777777777764
201.0,5.701816627877203,14.658708528862375,0.7889614055847577,27.777777777777764
202.0,5.882761629395944,14.595480582976126,0.7889614055847577,27.777777777777764
203.0,6.062926268434278,14.537226806110574,0.7889614055847577,27.777777777777764
204.0,6.241756961166307,14.484069495786823,0.7889614055847577,27.777777777777764
205.0,6.4186996023117135,14.436115437120502,0.7889614055847577,27.777777777777764
206.0,6.59320085992675,14.393456712241703,0.7889614055847577,27.777777777777764
207.0,6.764712607748846,14.356170635147954,0.7889614055847577,27.777777777777764
208.0,6.932694304443533,14.32431813055312,0.7889614055847577,27.777777777777764
209.0,7.096613085568724,14.29794433333392,0.7889614055847577,27.777777777777764
210.0,7.255947801495244,14.277078844080274,0.7889614055847577,27.777777777777764
211.0,7.410195493641822,14.261733758615232,0.7889614055847577,27.777777777777764
212.0,7.55886648117517,14.251904589747852,0.7889614055847577,27.777777777777764
213.0,7.701493534640113,14.247570659382383,0.7889614055847577,27.777777777777764
214.0,7.837633051981608,14.248692300187452,0.7889614055847577,27.777777777777764
215.0,7.966862826675325,14.25521361634847,0.7889614055847577,27.777777777777764
216.0,8.088795788697377,14.2670605900924,0.7889614055847577,27.777777777777764
217.0,8.20306961593136,14.284140741462817,0.7889614055847577,27.777777777777764
218.0,8.309356326592214,14.306345764308693,0.7889614055847577,27.777777777777764
219.0,8.407367040237522,14.33354601636766,0.7889614055847577,27.777777777777764
220.0,8.496842550466573,14.365599017935436,0.7889614055847577,27.777777777777764
221.0,8.577572897265576,14.402338926152574,0.7889614055847577,27.77777777777776
222.0,8.649377643692667,14.443589289689694,0.7889614055847577,27.77777777777776
223.0,8.712126585192545,14.489150122262847,0.7889614055847577,27.777777777777757
224.0,8.765733893010395,14.538809958023483,0.7889614055847577,27.777777777777757
225.0,8.81013900661472,14.592341157503338,0.7889614055847577,27.777777777777754
226.0,8.845360181476483,14.649495026740276,0.7889614055847577,27.777777777777754
227.0,8.871424866544873,14.710018758308543,0.7889614055847577,27.777777777777754
228.0,8.888419695238124,14.773637538706291,0.7889614055847577,27.77777777777775
229.0,8.89648543087893,14.840065879138503,0.7889614055847577,27.77777777777775
230.0,8.895777579947728,14.909011719343788,0.7889614055847577,27.77777777777775
231.0,8.886519459066173,14.980166157226954,0.7889614055847577,27.777777777777747
232.0,8.868955936409632,15.053216430599893,0.7889614055847577,27.777777777777747
233.0,8.843379850767285,15.127839502025441,0.7889614055847577,27.777777777777743
234.0,8.810117644213499,15.20370724485617,0.7889614055847577,27.777777777777743
235.0,8.769525229617717,15.280487523023371,0.7889614055847577,27.777777777777743
236.0,8.721994211837165,15.357844491508205,0.7889614055847577,27.777777777777743
237.0,8.667941267239128,15.43544179469176,0.7889614055847577,27.777777777777743
238.0,8.607809842262563,15.512942982082535,0.7889614055847577,27.777777777777743
239.0,8.542064783489069,15.590014401238374,0.7889614055847577,27.777777777777743
240.0,8.471189528858083,15.666325775150273,0.7889614055847577,27.777777777777743
241.0,8.39568424657646,15.741553153161318,0.7889614055847577,27.777777777777743
242.0,8.316059576384939,15.815379303084088,0.7889614055847577,27.777777777777743
243.0,8.232837631922258,15.887496951821484,0.7889614055847577,27.777777777777743
244.0,8.146543301216617,15.957608596219535,0.7889614055847577,27.777777777777743
245.0,8.057707294315415,16.025430322777613,0.7889614055847577,27.777777777777743
246.0,7.966856115547287,16.090690616940037,0.7889614055847577,27.777777777777743
247.0,7.874516272482553,16.15313504228951,0.7889614055847577,27.777777777777743
248.0,7.781203967508358,16.212523722312152,0.7889614055847577,27.777777777777743
