Time,J,A,S,tau
0.0,1.0,1.0,0.9867891227753932,9.090909090909092
1.0,1.7137862925277545,2.4570543692517273,0.9857560263329871,8.980092551246475
2.0,2.6153128781705357,3.9063237430899984,0.9846966355900588,8.86711938619794
3.0,3.139445199836771,5.347998074363692,0.983611394901449,8.752045484508782
4.0,3.1506246941301526,6.782274211656847,0.9825005128515738,8.634903598124481
5.0,2.6835091113443816,8.209324780115047,0.9813642202574031,8.515727148299307
6.0,1.8252706942913524,9.629298728821208,0.9802027702661348,8.394550219417017
7.0,0.6663935423338342,11.042321850900485,0.9790164384240861,8.271407552581982
8.0,-0.7167576102618435,12.448497328635163,0.9778055227053346,8.1463345386339
9.0,-2.5836187739375984,14.157022397555837,0.9774726032184072,8.117102806116112
10.0,-4.877314286975155,16.125217769977205,0.9772747972263455,8.102647829770802
11.0,-6.920119053049587,17.728414282790013,0.9770790381656771,8.088501989170197
12.0,-8.511893946546683,18.814277523782234,0.9768854660263653,8.07466694190413
13.0,-9.66360224475311,19.424598939705213,0.9766942210201688,8.0611443009376
14.0,-10.454969570219784,19.659178292505374,0.9765054434004619,8.04793563453963
15.0,-10.974432672823482,19.620010668704673,0.9763192732788445,8.035042466175964
16.0,-11.297588474578873,19.392081950773306,0.9761358504384893,8.022466274442895
17.0,-11.4762182755097,19.033881806981444,0.9759553141445486,8.010208493013007
18.0,-11.534932463187568,18.575625711243937,0.9757778029523826,7.9982705106175445
19.0,-11.521751934795565,18.069794434505255,0.9756034545134064,7.986653671027297
20.0,-11.468981078203635,17.55165437309758,0.975432405380683,7.975359273112873
21.0,-11.390608566416523,17.03740025962593,0.9752647908114238,7.964388570824208
22.0,-11.292043633588078,16.534392169679215,0.9751007445719609,7.953742773328251
23.0,-11.175102869562746,16.04635275324615,0.9749403987320072,7.943423044834981
24.0,-11.040095779590263,15.575517192569738,0.9747838834678073,7.933430504795085
25.0,-10.886732444688777,15.123533897999971,0.974631326901515,7.9237662286945225
26.0,-10.714814972716281,14.692115142776132,0.9744828548307396,7.914431246389932
27.0,-10.524258299288997,14.282929922928405,0.9743385905626206,7.905426543493033
28.0,-10.31502720517794,13.89746038206997,0.9741986547859569,7.896753062240052
29.0,-10.0873342703437,13.537110717798942,0.974063165351909,7.8884117007980095
30.0,-9.841898724075897,13.203319781322389,0.9739322369741139,7.880403312049266
31.0,-9.580113622075395,12.897586664305408,0.9738059811555785,7.872728705630442
32.0,-9.30412832293904,12.621464762869437,0.9736845060690276,7.865388648334998
33.0,-9.01699392114052,12.376521529426327,0.9735679162384874,7.8583838628874485
34.0,-8.722643809476684,12.164271251246983,0.9734563124448334,7.851715028754495
35.0,-8.425872093926355,11.986076799740468,0.9733497915449784,7.845382782371929
36.0,-8.132216481255186,11.843057079978761,0.9732484463125691,7.8393877172007045
37.0,-7.8477812621045295,11.735984150305745,0.9731523652791398,7.833730383894049
38.0,-7.578979603979573,11.665172175021262,0.9730616326114525,7.828411290781973
39.0,-7.332192802068013,11.630356522902005,0.9729763279343613,7.823430903685226
40.0,-7.113369319110602,11.63058335919427,0.9728965262098495,7.818789646184486
41.0,-6.92761897639591,11.664118938612708,0.9728222976315668,7.814487900029024
42.0,-6.7788143928608475,11.728382933110918,0.9727537074848359,7.810526005156072
43.0,-6.669253742252206,11.819932485794277,0.9726908160270396,7.806904259716554
44.0,-6.599453583674529,11.93450811306534,0.9726336784103464,7.803622920485438
45.0,-6.5680696671214545,12.067137665708335,0.9725823445790757,7.800682202979475
46.0,-6.571974095483838,12.21230729977907,0.9725368591782202,7.798082281515863
47.0,-6.606492336054328,12.364192158619522,0.9724972615108408,7.795823289713728
48.0,-6.665748982393949,12.516929557742504,0.9724635854232707,7.793905320197169
49.0,-6.743118988135694,12.66491651469104,0.9724358592763834,7.792328424934108
50.0,-6.831699517400815,12.803095825728974,0.9724141059125859,7.79109261550948
51.0,-6.9247623120425255,12.927210402644182,0.9723983425979164,7.7901978631220565
52.0,-7.016146486318521,13.033992811891222,0.9723885809904592,7.789644098616285
53.0,-7.100543675761022,13.121266626959942,0.9723848271505474,7.78943121282134
54.0,-7.173674323426544,13.187966249728104,0.9723870815287372,7.789559056661077
55.0,-7.232361526921134,13.23407701397794,0.9723953389459283,7.7900274410601
56.0,-7.2745018558309535,13.26050074257129,0.9724095886316947,7.7908361371972665
57.0,-7.298975538403734,13.268885421743866,0.9724298142248016,7.7919848764416075
58.0,-7.305509339550513,13.26142995902581,0.9724559938206183,7.793473350552267
59.0,-7.294526719876348,13.240694844381373,0.9724881000568673,7.795301212008354
60.0,-7.267008381895602,13.209432270061102,0.9725261000881743,7.797468073508531
61.0,-7.224355693597968,13.170436660944812,0.9725699556693462,7.799973508287156
62.0,-7.168278987660585,13.126427670294156,0.9726196232465258,7.802817050233898
63.0,-7.100707716241239,13.079967490619309,0.9726750540934785,7.805998194377296
64.0,-7.023718398450434,13.033393727610788,0.972736194301238,7.809516396208296
65.0,-6.939470826971678,12.988778531858692,0.9728029849261206,7.8133710720169915
66.0,-6.850153990370143,12.947901332723315,0.9728753620899411,7.817561598912066
67.0,-6.757935690608107,12.91223324658675,0.9729532570949065,7.822087314850173
68.0,-6.664913823126568,12.882930231824242,0.9730365965462161,7.826947518661439
69.0,-6.573067963055051,12.86083280644535,0.9731253024819614,7.832141470070539
70.0,-6.48421148975856,12.846471288985104,0.9732192925089798,7.837668389700548
71.0,-6.39994602350539,12.840076195363546,0.973318479947619,7.8435274591088495
72.0,-6.32162016095924,12.841594036052273,0.9734227739821012,7.8497178208051315
73.0,-6.250297142671875,12.850709233324913,0.9735320798330239,7.856238578494659
74.0,-6.186725376090241,12.866868637247945,0.9736462988754465,7.863088796540641
75.0,-6.131326239866663,12.889314606144017,0.9737653288035865,7.870267499995056
76.0,-6.084210639799754,12.917128633450444,0.9738890639810481,7.87777367686044
77.0,-6.045154746722265,12.94925884189295,0.9740173952124092,7.885606272588936
78.0,-6.01367220576675,12.98458116941595,0.9741502103371236,7.893764196333881
79.0,-5.989032053448861,13.021934719120503,0.9742873942653468,7.902246318014564
80.0,-5.970305088849172,13.06017121749586,0.9744288290726792,7.911051468231901
81.0,-5.956424501132409,13.098198425695939,0.9745743942841373,7.920178438881537
82.0,-5.9462405675246,13.1350169921791,0.9747239670534127,7.929625983319212
83.0,-5.938574838213324,13.169751910916785,0.9748774223416803,7.93939281629341
84.0,-5.932273962336727,13.201680054530668,0.97503463307914,7.949477613316275
85.0,-5.926254069391328,13.230245493351536,0.9751954703870455,7.959879011372526
86.0,-5.919535964329465,13.255064360796279,0.9753598037799511,7.97059560920385
87.0,-5.91127208577607,13.275924291136741,0.9755275013497368,7.981625967382754
88.0,-5.900766970374178,13.292777836214436,0.9756984299424711,7.992968607983268
89.0,-5.887485793064038,13.305728431705669,0.9758724553529899,8.004622014848236
90.0,-5.8710589896064915,13.315011733066923,0.9760494425095751,8.016584632973013
91.0,-5.851261782974799,13.32096541520141,0.9762292557081035,8.028854872624333
92.0,-5.828039349080467,13.324020973576227,0.9764117586905071,8.041431100760642
93.0,-5.801444163207699,13.324660902760415,0.9765968149568564,8.05431165338205
94.0,-5.771670901842297,13.323410048700465,0.9767842878380819,8.067494821149106
95.0,-5.738988229641125,13.320803304123778,0.9769740407319211,8.080978865952012
96.0,-5.703756407860399,13.317372301479207,0.977165937244187,8.094762007564016
97.0,-5.666390975728591,13.313622974071105,0.9773598413962374,8.10884243027314
98.0,-5.62734727073317,13.310028560679356,0.9775556176893857,8.123218283979742
99.0,-5.587102878512321,13.307005001096217,0.9777531314535823,8.137887677891996
100.0,-5.54614145282198,13.304920538265883,0.9779522487183464,8.152848691585607
101.0,-5.5049309852169666,13.304068858991792,0.9781528367069467,8.168099362527553
102.0,-5.463920635141879,13.304684788981632,0.9783547636435078,8.18363769849767
103.0,-5.423516226426691,13.30693048629341,0.9785578991349637,8.199461669021314
104.0,-5.384079595035903,13.310900641744222,0.978762114230311,8.215569209833886
105.0,-5.345918797229444,13.31663091478684,0.9789672814009205,8.23195822455827
106.0,-5.309274805622996,13.324089881040567,0.97917327504018,8.248626578711674
107.0,-5.2743373267203,13.333202783113697,0.9793799709692688,8.265572110889691
108.0,-5.241213068584787,13.343838660963318,0.9795872474134192,8.282792618061857
109.0,-5.209971255391385,13.355840600428378,0.9797949838274042,8.30028587699695
110.0,-5.180587454817362,13.369010595002988,0.9800030629889216,8.318049614048201
111.0,-5.153010302925648,13.383140942727756,0.9802113686317382,8.336081541340972
112.0,-5.127131282022864,13.398008643814212,0.9804197874726626,8.35437933030847
113.0,-5.10280024559063,13.413388102063298,0.9806282084638264,8.372940622602638
114.0,-5.07984064435895,13.42905857012541,0.980836522683574,8.391763033188644
115.0,-5.0580479685448445,13.44481397408204,0.9810446244185916,8.410844138206004
116.0,-5.037207412585021,13.460459696145245,0.9812524094635771,8.430181495830094
117.0,-5.01709931243631,13.475834113618031,0.9814597775266531,8.449772620173773
118.0,-4.997503310602842,13.490788791683517,0.9816666296063665,8.469615010791141
119.0,-4.978214590203567,13.505217594396319,0.981872870703754,8.489706124213928
120.0,-4.959039251430972,13.519032280864955,0.9820784075295994,8.510043399064342
121.0,-4.939806612098405,13.532182072557502,0.9822831502352175,8.530624237758785
122.0,-4.9203722110081864,13.54464169378314,0.982487011569578,8.551446016800734
123.0,-4.900612453491649,13.556411127331884,0.9826899068380949,8.572506085698647
124.0,-4.880442466402054,13.567519483628335,0.9828917549070264,8.593801758944895
125.0,-4.859791196781162,13.578009045508928,0.9830924762328243,8.615330333660824
126.0,-4.838634794943204,13.587949056653862,0.9832919959824366,8.637089059940292
127.0,-4.816958228557288,13.597414028308389,0.9834902400468896,8.65907518043617
128.0,-4.794776368008277,13.606491725822847,0.9836871380968938,8.681285896105123
129.0,-4.772141167842649,13.615276684067855,0.9838826247302412,8.703718358225537
130.0,-4.749106091919482,13.62386354268885,0.9840766347415946,8.726369716116444
131.0,-4.725738643108156,13.632347634531886,0.9842691052275317,8.749237089835807
132.0,-4.702128256483937,13.64081713777414,0.9844599786438033,8.772317537990386
133.0,-4.678367018552833,13.649357644998377,0.9846491982984696,8.795608109899767
134.0,-4.654554973103301,13.658043924903279,0.9848367107690681,8.819105810133593
135.0,-4.630791598624262,13.666937295121617,0.9850224662070339,8.842807597876748
136.0,-4.607178486126016,13.676094794636969,0.9852064156331133,8.866710418281345
137.0,-4.583810736618658,13.685551958566865,0.9853885146205553,8.890811146454672
138.0,-4.560777752511119,13.695336856977821,0.9855687203495344,8.91510663392705
139.0,-4.538165458894415,13.705465418862541,0.985746992191651,8.939593690373977
140.0,-4.516042751753047,13.715934765846288,0.9859232935140576,8.964269053203855
141.0,-4.494476111045309,13.72673844535026,0.9860975883718012,8.989129445738543
142.0,-4.473517057537233,13.737853083951933,0.9862698445163685,9.014171507302938
143.0,-4.453204495927011,13.749246878011446,0.9864400319225672,9.03939182841777
144.0,-4.433574050631858,13.760883293441978,0.9866081215671134,9.064786970932836
145.0,-4.414640199671984,13.772712825705897,0.9867740890157634,9.090353366425619
146.0,-4.39641238163275,13.7846838178545,0.9869379108173373,9.116087418797942
147.0,-4.3788970376745455,13.796741975026611,0.9870995638349893,9.14198552326618
148.0,-4.362083874442933,13.808827819601374,0.987259030264205,9.168043870563357
149.0,-4.3459578755105435,13.82088147226334,0.9874162942031397,9.19425857636851
150.0,-4.330504006425109,13.832843047553867,0.9875713397479491,9.220625756499294
151.0,-4.315700652683056,13.844652260958014,0.9877241518212415,9.247141490109604
152.0,-4.301522647179023,13.85625414648428,0.9878747204641956,9.273801574591294
153.0,-4.287947959967623,13.867596247144286,0.9880230372816917,9.30060171505166
154.0,-4.27495455003373,13.878626105787545,0.988169093877911,9.327537616671282
155.0,-4.262514351200161,13.88929394513449,0.9883128825292324,9.354604942801835
156.0,-4.250607609117171,13.899560366549057,0.9884543999393924,9.381798998955665
157.0,-4.239223099001651,13.909388468135155,0.98859364425358,9.409114964150065
158.0,-4.228349593454446,13.918741348256544,0.9887306136167956,9.436548017430681
159.0,-4.217968318558828,13.927585699352338,0.9888653063986828,9.46409333437182
160.0,-4.208075438503119,13.935897762050702,0.9889977250337549,9.491745597996369
161.0,-4.198681136999631,13.943655057923774,0.9891278736928972,9.51949925925795
162.0,-4.189795597760673,13.950835108543687,0.9892557565469945,9.547348769110181
163.0,-4.181428300565342,13.957415877497915,0.9893813778023691,9.575288574510964
164.0,-4.17358580334826,13.963382154020563,0.9895047434723546,9.603312821735768
165.0,-4.16629153644632,13.968718580891242,0.9896258621957945,9.63141515810138
166.0,-4.1595727858026015,13.973408582906133,0.9897447428175489,9.659589184330283
167.0,-4.1534543632634024,13.977436753167934,0.9898613942655965,9.687828487678011
168.0,-4.1479610088582035,13.980788879190664,0.989975827246893,9.716126198721176
169.0,-4.143129157337369,13.9834464454474,0.9900880539422138,9.74447503225127
170.0,-4.138995840373577,13.985390690516779,0.9901980865677373,9.77286769212278
171.0,-4.135591735512658,13.986604515322428,0.990305937681601,9.801296775858203
172.0,-4.132950880045129,13.987065739058446,0.9904116216682166,9.829754177948255
173.0,-4.131113428839366,13.98674877825693,0.9905151534434325,9.858231569678434
174.0,-4.130118402348219,13.985628437809046,0.9906165479272051,9.886720624858512
175.0,-4.129995218672891,13.983679701488024,0.9907158207586436,9.915212653540753
176.0,-4.130779701990724,13.980869624337476,0.9908129888164771,9.943698240890175
177.0,-4.13250991732737,13.97716394822446,0.9909080690915405,9.972167899432835
178.0,-4.135219245697776,13.972529575900785,0.9910010786454632,10.000612105367768
179.0,-4.138932503318764,13.966930894098663,0.9910920354128318,10.029020629595232
180.0,-4.143682778199993,13.960326028829906,0.9911809578781099,10.057382727251207
181.0,-4.149503432005632,13.952672968905503,0.9912678645327672,10.085687646356092
182.0,-4.156416638230411,13.94393209468622,0.9913527740635949,10.113924442639618
183.0,-4.164445131536512,13.934058814534728,0.9914357058070474,10.142081251972211
184.0,-4.173617586741683,13.923005535278163,0.9915166792312502,10.170145980560141
185.0,-4.183960485823378,13.910725355341976,0.9915957138162036,10.198106532129827
186.0,-4.195486769803272,13.897174164004106,0.9916728292903989,10.225950297825461
187.0,-4.208219067925445,13.882302391327793,0.9917480456143755,10.253663872039663
188.0,-4.222182477916003,13.866059503514037,0.9918213827572423,10.281233789679721
189.0,-4.237394941980506,13.848397388497538,0.9918928607290517,10.308646518488795
190.0,-4.253867334998002,13.829269502089021,0.9919624996144724,10.33588771661817
191.0,-4.2716226013057526,13.808624574928006,0.9920303194556718,10.362942577910806
192.0,-4.290683589200862,13.7864113815449,0.9920963402961183,10.389796293971907
193.0,-4.311059739311985,13.762583927976838,0.9921605821979436,10.416433808371853
194.0,-4.3327669529710535,13.737093833794367,0.9922230649703228,10.442839223091118
195.0,-4.3558279509869635,13.709890097836224,0.9922838083400802,10.468996479236152
196.0,-4.380262330620396,13.680923079789217,0.9923428320500555,10.494889505401922
197.0,-4.40607715688018,13.650148899802941,0.9924001556452818,10.520501751551116
198.0,-4.433293140839492,13.617518161442655,0.9924557982269943,10.545816111144793
199.0,-4.461933174285244,13.582980544235767,0.9925097788625348,10.570815449248643
200.0,-4.4920117584517,13.54648983180774,0.9925621166165813,10.595482554907024
201.0,-4.523539700732944,13.508001864852245,0.99261282996972,10.619799689048087
202.0,-4.55653994254007,13.467466713457572,0.9926619370231637,10.643748897344533
203.0,-4.5910348659865,13.424834759199163,0.9927094558841366,10.6673122235577
204.0,-4.62703362225791,13.380063475235817,0.9927554044833667,10.690471555351225
205.0,-4.66455347337682,13.333105602036886,0.9927997998563683,10.71320848969034
206.0,-4.703617172475656,13.283910840675889,0.9928426588613364,10.73550459183547
207.0,-4.744243644967419,13.232431256057374,0.9928839983885968,10.757341408692326
208.0,-4.786440438499053,13.17862523647404,0.992923834748608,10.778700410575867
209.0,-4.830228358479572,13.122442105107753,0.9929621832973451,10.799563103868516
210.0,-4.875629724658455,13.06383020949052,0.9929990593392016,10.819911000946307
211.0,-4.922662030759047,13.002741266576939,0.9930344781958859,10.839725595255798
212.0,-4.971332339292422,12.939133027565873,0.993068454351474,10.85898857882063
213.0,-5.021660822531037,12.872952744885398,0.993101001299803,10.877681953229263
214.0,-5.073668652533192,12.804146929362398,0.9931321325005863,10.895787732349454
215.0,-5.127371725838379,12.732666453176915,0.9931618614186047,10.91328792741595
216.0,-5.182778175352525,12.658466967483877,0.9931902004682769,10.930165125732747
217.0,-5.239907744841273,12.58149301018037,0.9932171610756791,10.946402456135846
218.0,-5.298780710851458,12.501688647449114,0.9932427546462075,10.961983058784455
219.0,-5.359411988837642,12.419003473704947,0.9932669925690893,10.97689011009236
220.0,-5.421811873256936,12.333390202363345,0.9932898849755971,10.9911078089328
221.0,-5.48600043782643,12.244790172306068,0.9933114410512792,11.004621065081187
222.0,-5.551997982876249,12.153144474440492,0.9933316699715629,11.017414795389294
223.0,-5.619819975761717,12.058401120900289,0.9933505808638671,11.02947402238915
224.0,-5.689480537645114,11.960508968481715,0.9933681814042834,11.040785270145632
225.0,-5.761001269400696,11.859405451304358,0.9933844783992125,11.051335865572508
226.0,-5.83440383158973,11.755027915114056,0.993399478651802,11.061113138215408
227.0,-5.909706461882506,11.647322270002796,0.9934131888735439,11.070104629130295
228.0,-5.9869289459519415,11.536232231979385,0.9934256141548464,11.07829984400447
229.0,-6.066095896442442,11.421690346140332,0.9934367588177817,11.085689102584418
230.0,-6.147231925714623,11.303629173271677,0.9934466271848198,11.092262724271434
231.0,-6.230360843096982,11.181991648338363,0.9934552234282586,11.098011386041696
232.0,-6.315509596641168,11.056714616714576,0.9934625499661272,11.102928117822124
233.0,-6.402707124144645,10.927724302868533,0.9934686085636902,11.10700670533084
234.0,-6.4919823899564175,10.794947091497994,0.9934734009898428,11.11024093139981
235.0,-6.583367599674138,10.658321354525084,0.99347692878298,11.11262512343102
236.0,-6.6768972162282765,10.517775026625904,0.9934791916499058,11.114156213040992
237.0,-6.772604825035625,10.373226036303853,0.9934801887584228,11.114831785160991
238.0,-6.870524117724495,10.224592487849717,0.9934799192657456,11.11464944470165
239.0,-6.97069361202353,10.071798449068842,0.9934783816113786,11.11360804285453
240.0,-7.07312092389364,9.914764080610817,0.9934755732689662,11.111707894591857
241.0,-7.1722640610405515,9.753404295801193,0.9934714911446064,11.108950131171246
242.0,-7.262720818240611,9.58763092050216,0.9934661314797896,11.10533690029888
243.0,-7.344156319690202,9.417353592793178,0.9934594898899028,11.100871325296168
244.0,-7.416361216022518,9.242476324100323,0.9934515612407665,11.095557641176255
245.0,-7.479121085897835,9.062903283255137,0.9934423398897547,11.08940090143153
246.0,-7.532213236972983,8.878530681180495,0.9934318193519746,11.082407377392716
247.0,-7.575410464552561,8.68925600016293,0.9934199927432558,11.074583992198052
248.0,-7.608476057780678,8.494968717802392,0.993406852275421,11.065938961857306
