Time,J,A,S,tau
0.0,1.0,1.0,0.976131652619966,9.090909090909092
1.0,0.7085324160006489,3.2938303695527478,0.9759010396750922,9.071901047792952
2.0,-0.8098175698125925,5.527873785162378,0.9756712826467446,9.053214162980307
3.0,-2.9137809164103854,7.7035080195184715,0.9754425240968655,9.0348507036506
4.0,-5.188188017231243,9.822084780240882,0.975214908414835,9.016812889695473
5.0,-7.5024288290858205,11.884930179500882,0.9749885816706357,8.99910289340755
6.0,-9.821267632538383,13.893345248799688,0.9747636914612403,8.981722839201987
7.0,-12.135610470796498,15.84860643816589,0.9745403867525811,8.964674803287906
8.0,-14.443061362277037,17.751966914464596,0.9743188177068892,8.94796081378767
9.0,-16.745392493878146,19.607117362839798,0.9740991355430775,8.931582848725395
10.0,-18.64907133598582,21.02395383936812,0.9738814923035102,8.91554283894577
11.0,-19.332361211756567,21.204030258169304,0.9736660407174871,8.899842665423948
12.0,-19.480590618430703,20.853742730127486,0.973452933998753,8.88448415994057
13.0,-19.474342695281894,20.360763529613422,0.9732423256553948,8.869469104860366
14.0,-19.42802137411807,19.84118401011119,0.9730343692941328,8.85479923301968
15.0,-19.371477287312715,19.325034659486352,0.9728292184204471,8.840476227602737
16.0,-19.31215666971982,18.819562923040774,0.9726270262367978,8.82650172220731
17.0,-19.251896191098947,18.326318181650187,0.9724279454497532,8.812877301457398
18.0,-19.191147122996117,17.845449848360044,0.9722321280315421,8.79960449856579
19.0,-19.13004138963395,17.376784076851425,0.9720397251633549,8.786684804571271
20.0,-19.0686022840972,16.920061865175118,0.971850886318252,8.774119636595772
21.0,-19.006842592440922,16.475010688123948,0.9716657605616431,8.761910396250883
22.0,-18.944757029911855,16.041348971963412,0.9714844944770502,8.750058409347957
23.0,-18.88233577676,15.618814948171599,0.9713072331895788,8.738564957649777
24.0,-18.81956526417681,15.207135307785482,0.971134120401226,8.727431291532302
25.0,-18.756418615687274,14.806059161413845,0.9709652961877705,8.716658578202285
26.0,-18.692866783571993,14.415336189791566,0.9708008998906699,8.70624796993647
27.0,-18.628865109585526,14.034718533756916,0.9706410669028992,8.696200548708013
28.0,-18.564356025878112,13.663979449502206,0.9704859299763523,8.68651734675725
29.0,-18.499275370313608,13.30288333881453,0.9703356199728037,8.677199370710689
30.0,-18.433528898809698,12.951218547142291,0.9701902622641301,8.668247542787885
31.0,-18.367016909054954,12.608776956606482,0.9700499810813057,8.659662768875563
32.0,-18.299612063954676,12.275356601066473,0.9699148955076606,8.651445890968647
33.0,-18.231158819740237,11.950780862178506,0.9697851206515676,8.643597696220045
34.0,-18.161495602041036,11.634866746341759,0.9696607696386499,8.63611895349983
35.0,-18.090405915030203,11.327466237390272,0.9695419479023778,8.629010342308275
36.0,-18.017661010305456,11.028441416791589,0.9694287592781446,8.622272522841799
37.0,-17.943011271420136,10.73765997056152,0.9693213028297789,8.615906112699657
38.0,-17.866146562715087,10.455036174426446,0.9692196702136595,8.609911649662257
39.0,-17.786755279271553,10.180485415744277,0.9691239520916329,8.604289663514946
40.0,-17.704490734516025,9.913955344886636,0.9690342313545764,8.59904061680212
41.0,-17.618958021372748,9.655438801279168,0.9689505853285404,8.594164915018132
42.0,-17.529774465634144,9.404927700203775,0.9688730895808341,8.589662954076557
43.0,-17.436523784306498,9.16248046375865,0.9688018096526966,8.58553504445687
44.0,-17.338766696915886,8.92818519615368,0.9687368079793802,8.581781466227987
45.0,-17.236105591428906,8.702145196082864,0.9686781427687473,8.578402473371098
46.0,-17.128141197139506,8.48454978690327,0.9686258621383327,8.575398234489766
47.0,-17.014481353508973,8.275603759305275,0.9685800124088075,8.572768903289784
48.0,-16.894844332571658,8.075558020072416,0.9685406324377291,8.570514582699328
49.0,-16.768985862014613,7.884718538977766,0.9685077551148588,8.568635325973917
50.0,-16.636802011876398,7.703427333811585,0.9684814074615343,8.56713114639464
51.0,-16.498284466123593,7.53207878342213,0.9684616101585525,8.566002007032667
52.0,-16.353623316314263,7.371093982448136,0.968448378132193,8.565247832587472
53.0,-16.203167330410764,7.220931184641114,0.9684417201674739,8.564868501243385
54.0,-16.047523007853943,7.08206685497246,0.9684416384020267,8.56486384484297
55.0,-15.887489106092753,6.954987886339858,0.9684481297605523,8.565233657221995
56.0,-15.724154258877853,6.840172656976024,0.9684611838930359,8.565977680027707
57.0,-15.55882996776824,6.738075568663844,0.9684807854023658,8.567095619414978
58.0,-15.393074676169341,6.649103304022277,0.968506912274523,8.568587133442954
59.0,-15.228662274123307,6.573584467272047,0.9685395364567712,8.570451837088934
60.0,-15.06751667517179,6.5117539307348675,0.9685786242886469,8.57268930453461
61.0,-14.911649820614418,6.463712369360287,0.9686241358676826,8.575299063590691
62.0,-14.763089978586791,6.429395462820189,0.9686760254874531,8.578280599681962
63.0,-14.623786009602812,6.408564272830756,0.9687342420201083,8.581633357385723
64.0,-14.495483511950146,6.400756625666858,0.9687987283276376,8.585356734915491
65.0,-14.379647362387018,6.4052800669079435,0.9688694218146272,8.58945008872973
66.0,-14.277376458654174,6.42121494076467,0.9689462546560594,8.593912733415936
67.0,-14.189314000211404,6.447396364773465,0.9690291535644205,8.598743939722315
68.0,-14.115607264583613,6.482438737119824,0.9691180400851979,8.603942935432038
69.0,-14.055896747423587,6.524764979369956,0.9692128307487882,8.609508905649525
70.0,-14.009335777121859,6.5726492050883705,0.9693134372143167,8.615440992802453
71.0,-13.974640844769675,6.624270907064313,0.9694197664210206,8.621738296670188
72.0,-13.950168276634614,6.67777866212495,0.969531720723001,8.628399874097617
73.0,-13.93401568997003,6.7313626632134715,0.9696491980449224,8.635424738969748
74.0,-13.924135266279139,6.7833253079762725,0.9697720920969197,8.642811862651666
75.0,-13.918443421781626,6.832144469707876,0.9699002925526148,8.650560173976013
76.0,-13.914922291258515,6.876527108324016,0.9700336852304234,8.65866855927259
77.0,-13.911707714125292,6.915449915029106,0.9701721522714971,8.667135862259919
78.0,-13.907157094953922,6.94818353767762,0.9703155723235647,8.675960883999466
79.0,-13.899896247855818,6.974299431753186,0.970463820712642,8.685142382482645
80.0,-13.888830806272063,6.99364982306606,0.9706167697254787,8.6946790739397
81.0,-13.873144486068664,7.00633882798441,0.9707742888515026,8.704569633554822
82.0,-13.852319833141577,7.012712659787822,0.9709362446369121,8.714812689449461
83.0,-13.826050068455064,7.013274834480156,0.9711025014758554,8.725406833429723
84.0,-13.794266569775932,7.008677951201496,0.9712729212901904,8.736350610707825
85.0,-13.757069790186744,6.999662531719919,0.971447363996008,8.747642525561185
86.0,-13.714704004753157,6.987021800133683,0.9716256877500684,8.759281041982062
87.0,-13.667534355204108,6.971570271631682,0.9718077489648091,8.771264579533034
88.0,-13.616010383445591,6.954112278078972,0.9719934026863574,8.783591517369745
89.0,-13.560647756319636,6.935423559862285,0.9721825027544143,8.796260193797082
90.0,-13.502009894639327,6.916230294237599,0.9723749019488472,8.809268903566062
91.0,-13.440688946457673,6.897198156240947,0.9725704522678854,8.822615900903765
92.0,-13.37729416492006,6.8789271868943676,0.9727690051131874,8.836299400181387
93.0,-13.312438373529687,6.861941396391023,0.9729704114567264,8.850317573525349
94.0,-13.246727197247509,6.846684729416928,0.9731745220713254,8.864668551235335
95.0,-13.180752431832039,6.8335290551349965,0.973381187700405,8.879350426870415
96.0,-13.115072735658881,6.822760240979175,0.9735902592629277,8.894361249051297
97.0,-13.05021735348175,6.814590439505176,0.9738015880347378,8.909699029944845
98.0,-12.986662279177342,6.809155987575655,0.9740150258050094,8.92536173985694
99.0,-12.924836629771075,6.806519152273353,0.974230425112129,8.941347310577966
100.0,-12.86510708695418,6.806679416580698,0.9744476392659998,8.957653636535019
101.0,-12.807771026702458,6.809564845571552,0.9746665227960267,8.97427856940436
102.0,-12.753055513182849,6.815054405881341,0.9748869312343776,8.991219926211969
103.0,-12.70112328580884,6.82297401586595,0.975108721524496,9.008475486748756
104.0,-12.652033181868646,6.83309919301162,0.9753317525001828,9.026042981803926
105.0,-12.605813609719899,6.845186279040856,0.9755558838212106,9.043920124497465
106.0,-12.562392778988405,6.858952162757234,0.9757809777755092,9.06210457321055
107.0,-12.521658277365283,6.874103305025435,0.976006897811527,9.080593963945049
108.0,-12.48342498334995,6.8903355947997555,0.9762335101514127,9.099385883726606
109.0,-12.44747596834606,6.907344578820857,0.9764606823776204,9.1184778967658
110.0,-12.413547369900515,6.9248381869249185,0.9766882851454657,9.13786751964887
111.0,-12.381356457746573,6.942534613785425,0.9769161906156915,9.157552246500547
112.0,-12.350600980744037,6.9601830360906725,0.9771442742784029,9.177529525201262
113.0,-12.3209735249695,6.9775512510603965,0.9773724132641035,9.197796781483163
114.0,-12.292172794990902,6.99445114378049,0.9776004882455882,9.218351396198415
115.0,-12.263902847341468,7.010716636448393,0.977828381575327,9.239190729258302
116.0,-12.235895912950665,7.026234598291554,0.978055979541361,9.26031209448196
117.0,-12.207899473323865,7.040914200231772,0.9782831701186674,9.281712786187253
118.0,-12.179695228121009,7.054712356188539,0.978509844977028,9.303390057641515
119.0,-12.15110038402929,7.0676186742166855,0.978735898641123,9.325341131741009
120.0,-12.121949628283364,7.079646147243875,0.9789612275768018,9.347563209827817
121.0,-12.092138427117858,7.090854295325881,0.9791857333717869,9.370053441106375
122.0,-12.06157177136051,7.101309935143246,0.9794093183481235,9.392808967033499
123.0,-12.030194154315502,7.111108613017913,0.9796318888388675,9.41582688699596
124.0,-11.997999151439858,7.120368254327768,0.9798533559259431,9.439104254681812
125.0,-11.964984070624237,7.1292084975949255,0.9800736310426577,9.462638119951116
126.0,-11.931179477303314,7.137761115960682,0.9802926297610759,9.486425488579115
127.0,-11.896646998761215,7.146163529485744,0.9805102720218402,9.510463324121368
128.0,-11.861455041021769,7.1545531166240215,0.9807264785666977,9.534748580869113
129.0,-11.825697819549708,7.163062140269275,0.9809411753455629,9.559278157471962
130.0,-11.789477168582803,7.17181932304136,0.9811542906718828,9.584048929222744
131.0,-11.75290523032854,7.180946737964302,0.9813657548741336,9.609057746343714
132.0,-11.716100548713733,7.1905496515172205,0.9815755035749426,9.634301399774563
133.0,-11.6791828971312,7.2007298617202045,0.9817834733275265,9.659776669801747
134.0,-11.642275801034904,7.2115703460532,0.9819896045955241,9.685480284891733
135.0,-11.605493086164532,7.223138371148677,0.9821938415502826,9.711408927874363
136.0,-11.568953331833024,7.2354964142115605,0.9823961290746714,9.737559269942123
137.0,-11.532759454521447,7.248679070367614,0.9825964175732385,9.763927899474568
138.0,-11.497001133106231,7.2627113793479685,0.9827946596108573,9.790511373858978
139.0,-11.46177307833073,7.277613554549026,0.9829908083054865,9.817306239283363
140.0,-11.427145324920826,7.293378151407469,0.9831848225342766,9.844308935132796
141.0,-11.393168076567246,7.309988331637078,0.9833766636845445,9.87151585539749
142.0,-11.35989491078696,7.3274260012371135,0.9835662930676056,9.898923396232329
143.0,-11.327366104898186,7.345655104167098,0.9837536760061522,9.926527856883725
144.0,-11.295584519981423,7.364626208110619,0.9839387830855097,9.954325407413606
145.0,-11.26455083165494,7.3842895651884914,0.9841215851229022,9.982312212136323
146.0,-11.234267016238459,7.40459303871952,0.984302053110852,10.01048443123149
147.0,-11.204716960186262,7.425473676700487,0.984480162873036,10.038838063847178
148.0,-11.17586027438182,7.446868130913414,0.9846558943859905,10.067368963092559
149.0,-11.147655770967111,7.4687132618558,0.9848292277262902,10.096072978372096
150.0,-11.120062051115205,7.490944525776041,0.985000143233467,10.124945950249737
151.0,-11.093026743173027,7.51349998201307,0.9851686259559909,10.153983493510664
152.0,-11.066488591834133,7.536324334776815,0.9853346642167591,10.183181054187138
153.0,-11.040386201292593,7.559362456263095,0.985498246382999,10.212534075837105
154.0,-11.014657539255703,7.582559488513884,0.9856593611744504,10.242037984309468
155.0,-10.989241939558331,7.605873215472888,0.9858180017496615,10.271687894651503
156.0,-10.96408111388264,7.6292700895418655,0.9859741637527869,10.301478732772816
157.0,-10.939116801809751,7.652716628325044,0.9861278428428,10.33140542332696
158.0,-10.914290919955828,7.676181098316948,0.9862790351152332,10.361462857758918
159.0,-10.88955781429013,7.69964777019762,0.9864277407097994,10.391645511132586
160.0,-10.864879108034879,7.723108044144158,0.9865739615757234,10.421947654913469
161.0,-10.840216438767738,7.746553330209916,0.9867176996647486,10.4523635602422
162.0,-10.815532685866287,7.769977055984131,0.9868589572654894,10.482887470335179
163.0,-10.790809615526248,7.793386137591199,0.9869977404002589,10.513513055075792
164.0,-10.766037081688909,7.816792173154763,0.9871340566017972,10.544233729377837
165.0,-10.74120493829556,7.840206760798466,0.9872679134028443,10.57504290815511
166.0,-10.716303362281687,7.863642147111925,0.9873993181830862,10.605934071625335
167.0,-10.691336875133548,7.887116205156253,0.9875282805160808,10.636900235386967
168.0,-10.666323907146143,7.910649589870328,0.9876548131400216,10.667933576294715
169.0,-10.641283307015174,7.934262968059165,0.9877789289161663,10.69902623554401
170.0,-10.616233923436338,7.95797700652778,0.9879006407057721,10.730170354330285
171.0,-10.591194782569618,7.981812420010946,0.988019961372327,10.761358075411335
172.0,-10.566195891600454,8.005790434543716,0.988136904802031,10.792581243435047
173.0,-10.541273727179393,8.02992699057084,0.9882514874973348,10.823830628814939
174.0,-10.516462437877736,8.054236178132616,0.9883637263717543,10.855096784976883
175.0,-10.491796172266788,8.078732087269348,0.9884736383388052,10.886370265346752
176.0,-10.467310104230494,8.103428872553426,0.9885812403194949,10.917641634940269
177.0,-10.443046441838051,8.128336209534169,0.9886865501695546,10.948900960505238
178.0,-10.419040308391173,8.153454542734774,0.9887895872696604,10.9801371973907
179.0,-10.395324931774308,8.178783404150971,0.9888903711290044,11.01133918640027
180.0,-10.371933539871902,8.204322325778488,0.988988921256779,11.042495768337558
181.0,-10.348901141324536,8.230070240158101,0.9890852572269079,11.073595773445705
182.0,-10.32626123263433,8.25601753198237,0.9891793994956767,11.104627125127893
183.0,-10.304036519219979,8.282148380870726,0.9892713691452459,11.13557681602304
184.0,-10.28224912983917,8.308446835592957,0.9893611872704466,11.166431809329675
185.0,-10.260921193249587,8.33489694491885,0.9894488749661099,11.197179068246328
186.0,-10.240075907383611,8.361481325795511,0.9895344534615674,11.227805506882502
187.0,-10.219727544599067,8.388175304429259,0.9896179444620545,11.258296758254287
188.0,-10.19988348192892,8.414951896864935,0.989699369764458,11.288637757599503
189.0,-10.180551081273565,8.441784118308007,0.9897787511655147,11.31881343899634
190.0,-10.1617377045334,8.468644983963946,0.989856110461961,11.348808736522992
191.0,-10.143449353177967,8.495506701768532,0.9899314695503159,11.378608521270268
192.0,-10.125684538423018,8.522338875298612,0.990004850341636,11.40819650746622
193.0,-10.108439392628112,8.549111222870849,0.9900762744778634,11.437555627334186
194.0,-10.091710056786598,8.575793489334423,0.9901457635940846,11.46666880407328
195.0,-10.075492671891826,8.60235541953851,0.990213339325386,11.495518960882611
196.0,-10.059781298376642,8.628766680850129,0.9902790233803654,11.524088982643434
197.0,-10.044563855523052,8.654998562877745,0.9903428371861809,11.55236087590731
198.0,-10.02983254439655,8.681024553775368,0.9904048014696221,11.580315883072835
199.0,-10.015579987747675,8.706818227249707,0.9904649369237707,11.60793522542756
200.0,-10.001798808326969,8.73235315700747,0.9905232642417086,11.635200124259041
201.0,-9.988479838754031,8.75760317179784,0.9905798041764339,11.662091774697759
202.0,-9.975607988015504,8.782545995801156,0.9906345770852384,11.688590810519015
203.0,-9.963177862455057,8.807162333466184,0.9906876021517984,11.714677328503239
204.0,-9.951185441809255,8.831432959626321,0.9907388984620344,11.740331404101573
205.0,-9.939626705814666,8.85533864911497,0.990788485101867,11.765533112765164
206.0,-9.92849647844755,8.878860446826327,0.9908363812030759,11.790262509348462
207.0,-9.917782853165967,8.901983686969587,0.9908826055277202,11.814499376734647
208.0,-9.907485580323659,8.924695954045543,0.990927175209392,11.838223427183761
209.0,-9.897607106912837,8.946984670230803,0.9909701071650342,11.86141439483424
210.0,-9.888149879925715,8.968837257701978,0.9910114183115896,11.884052013824519
211.0,-9.879115731157272,8.990241305920586,0.9910511256050017,11.906115998720287
212.0,-9.87049783486034,9.011188148333083,0.9910892458879631,11.92758594225083
213.0,-9.862299802847582,9.031669523066446,0.9911257937966005,11.948442127631951
214.0,-9.854529681286051,9.051676396774065,0.9911607834790181,11.96866502716248
215.0,-9.847195516342802,9.071199736109328,0.9911942290833201,11.988235113141242
216.0,-9.840305354184887,9.090230507725625,0.9912261447576104,12.007132857867065
217.0,-9.833862989086455,9.108761121684735,0.991256544766003,12.025338639669597
218.0,-9.827865861679514,9.126786174586703,0.9912854419074321,12.042833740838349
219.0,-9.822322261763825,9.14429660889579,0.991312847088418,12.05960070096049
220.0,-9.81724105360889,9.161283172762715,0.9913387711608792,12.075622097131575
221.0,-9.812631101484218,9.177736614338208,0.9913632249767339,12.090880506447164
222.0,-9.808500991917807,9.193647770546507,0.9913862194062132,12.105358490822232
223.0,-9.804847763056605,9.209010251105548,0.99140776516448,12.119038855821287
224.0,-9.801670753217499,9.223814349300405,0.9914278702390473,12.131906991642795
225.0,-9.798974342289288,9.23804830886158,0.9914465418477689,12.143948981415452
226.0,-9.796762910160778,9.251700373519583,0.9914637872084989,12.155150908267952
227.0,-9.79504083672077,9.264758787004917,0.9914796135390913,12.165498855328991
228.0,-9.793808297804382,9.277212797212691,0.9914940282596537,12.174978739325999
229.0,-9.79305086464897,9.289053298071085,0.9915070375112813,12.183578276800782
230.0,-9.792763936382753,9.300266626075254,0.9915186445852278,12.191288425641098
231.0,-9.792944151803098,9.310838728548081,0.9915288526130027,12.198100312923945
232.0,-9.793588149707372,9.320755552812445,0.9915376647261162,12.204005065726315
233.0,-9.794692568892945,9.330003046191232,0.9915450840560777,12.208993811125207
234.0,-9.796250054171505,9.338567872341738,0.9915511138594433,12.213057609563428
235.0,-9.79823347506377,9.346439908379816,0.9915557561706876,12.216189740160512
236.0,-9.800628577291784,9.353606241945451,0.9915590099690851,12.218387367822858
237.0,-9.80342370984606,9.360053464055587,0.9915608739882374,12.21964792812877
238.0,-9.806607221717107,9.365768165727161,0.9915613469617466,12.219968856656552
239.0,-9.810167461895432,9.37073693797711,0.9915604276232142,12.219347588984506
240.0,-9.814089742510909,9.374946871016165,0.9915581148008911,12.217781522726613
241.0,-9.818338003060369,9.37838983878435,0.9915544063975493,12.215270158085866
242.0,-9.82289127166672,9.381057418633143,0.991549297110241,12.211817256793909
243.0,-9.827732963296361,9.382940652135666,0.9915427812671405,12.207426981084007
244.0,-9.832846492915694,9.384030580865046,0.9915348531964222,12.202103493189428
245.0,-9.83821527549112,9.384318246394406,0.9915255072262605,12.195850955343436
246.0,-9.843820762777812,9.38379505287401,0.991514737747825,12.188673514940124
247.0,-9.849623412745432,9.382458417752206,0.9915025385163355,12.180577109699016
248.0,-9.855599595320498,9.380307184967085,0.9914889001001658,12.171571780589701
