Time,J,A,S,tau
0.0,1.0,1.0,0.7889614055847577,27.77777777777778
1.0,1.7459706146602267,0.9810624803823255,0.7889614055847577,27.77777777777778
2.0,2.4746016767036503,0.9624835843491683,0.7889614055847577,27.77777777777778
3.0,3.186139304059346,0.9442565231340776,0.7889614055847577,27.77777777777778
4.0,3.8808290654915427,0.926374638376832,0.7889614055847577,27.77777777777778
5.0,4.558916804769669,0.9088313771813697,0.7889614055847577,27.77777777777778
6.0,5.220645486731795,0.8916203468105584,0.7889614055847577,27.77777777777778
7.0,5.866259412968889,0.8747352442728968,0.7889614055847577,27.77777777777778
8.0,6.49600037125504,0.8581698962780048,0.7889614055847577,27.77777777777778
9.0,7.110109501329711,0.841918260211075,0.7889614055847577,27.77777777777778
10.0,7.708827185959145,0.8259743746007718,0.7889614055847577,27.77777777777778
11.0,8.292391741545243,0.8103324330447956,0.7889614055847577,27.777777777777775
12.0,8.861039990770944,0.7949867106588193,0.7889614055847577,27.777777777777775
13.0,9.415008792331877,0.7799315960335201,0.7889614055847577,27.77777777777777
14.0,9.954531626892702,0.7651615860359461,0.7889614055847577,27.77777777777777
15.0,10.479843364306886,0.7506712613006602,0.7889614055847577,27.777777777777768
16.0,10.99117093135318,0.7364553838304766,0.7889614055847577,27.777777777777768
17.0,11.488748695636291,0.7225086791483327,0.7889614055847577,27.777777777777764
18.0,11.972799349237,0.7088261324652709,0.7889614055847577,27.777777777777764
19.0,12.44355406874377,0.6954026447803778,0.7889614055847577,27.77777777777776
20.0,12.901233130562288,0.6822333854586433,0.7889614055847577,27.77777777777776
21.0,13.346057501086435,0.6693135369884716,0.7889614055847577,27.77777777777776
22.0,13.778251591581286,0.6566383198474597,0.7889614055847577,27.777777777777757
23.0,14.198027466941786,0.6442031915368278,0.7889614055847577,27.777777777777757
24.0,14.60560776803271,0.6320034911147401,0.7889614055847577,27.777777777777757
25.0,15.001202628280568,0.6200348355789655,0.7889614055847577,27.777777777777754
26.0,15.385020674756237,0.608292879979305,0.7889614055847577,27.777777777777754
27.0,15.75727857174608,0.5967732272887871,0.7889614055847577,27.77777777777775
28.0,16.118177395475932,0.585471772194345,0.7889614055847577,27.77777777777775
29.0,16.467924130616954,0.5743843369831467,0.7889614055847577,27.77777777777775
30.0,16.80672482210337,0.5635068359342258,0.7889614055847577,27.777777777777747
31.0,17.134773831379285,0.5528353847550506,0.7889614055847577,27.777777777777747
32.0,17.45227683989596,0.542365960903083,0.7889614055847577,27.777777777777747
33.0,17.759427418874957,0.5320947931016521,0.7889614055847577,27.777777777777743
34.0,18.056413403489426,0.5220182060307491,0.7889614055847577,27.777777777777743
35.0,18.34343457532872,0.5121323839678631,0.7889614055847577,27.777777777777743
36.0,18.620677103737727,0.5024337736473634,0.7889614055847577,27.77777777777774
37.0,18.88832264929091,0.4929188953105338,0.7889614055847577,27.77777777777774
38.0,19.146563947797013,0.4835841435837594,0.7889614055847577,27.77777777777774
39.0,19.395579416790973,0.47442617431420303,0.7889614055847577,27.777777777777736
40.0,19.635544665737722,0.46544168948181946,0.7889614055847577,27.777777777777736
41.0,19.866646276220536,0.4566272674887683,0.7889614055847577,27.777777777777736
42.0,20.08905455464688,0.44797976940124096,0.7889614055847577,27.777777777777732
43.0,20.302936385584445,0.439496109340118,0.7889614055847577,27.777777777777732
44.0,20.50847078840752,0.4311730523372901,0.7889614055847577,27.777777777777732
45.0,20.705824224150437,0.42300759260241594,0.7889614055847577,27.77777777777773
46.0,20.89515591854727,0.4149968338097751,0.7889614055847577,27.77777777777773
47.0,21.07663481463897,0.40713775543197367,0.7889614055847577,27.77777777777773
48.0,21.250424018758398,0.39942746691497194,0.7889614055847577,27.777777777777725
49.0,21.416675658616256,0.391863243589404,0.7889614055847577,27.777777777777725
50.0,21.575548679849405,0.3844422709046965,0.7889614055847577,27.777777777777725
51.0,21.727203371832985,0.3771617569700386,0.7889614055847577,27.77777777777772
52.0,21.87178437488813,0.3700191475363021,0.7889614055847577,27.77777777777772
53.0,22.009437565327456,0.3630118719302033,0.7889614055847577,27.77777777777772
54.0,22.14032040288925,0.356137223401965,0.7889614055847577,27.77777777777772
55.0,22.264574292730344,0.34939275059789354,0.7889614055847577,27.777777777777718
56.0,22.382336168828314,0.3427760664453066,0.7889614055847577,27.777777777777718
57.0,22.493751005432085,0.3362846805949945,0.7889614055847577,27.777777777777718
58.0,22.598961645724582,0.3299161671145016,0.7889614055847577,27.777777777777715
59.0,22.6980978399529,0.32366829067452574,0.7889614055847577,27.777777777777715
60.0,22.791291430669975,0.3175387882922563,0.7889614055847577,27.777777777777715
61.0,22.878683359432188,0.3115252947446617,0.7889614055847577,27.777777777777715
62.0,22.960399078173342,0.305625678927884,0.7889614055847577,27.77777777777771
63.0,23.03656125977129,0.2998378487178678,0.7889614055847577,27.77777777777771
64.0,23.107301094984052,0.29415960410754727,0.7889614055847577,27.77777777777771
65.0,23.172744102549707,0.2885888492778092,0.7889614055847577,27.777777777777708
66.0,23.2330061198261,0.28312362578810096,0.7889614055847577,27.777777777777708
67.0,23.288205695444415,0.2777619398630856,0.7889614055847577,27.777777777777708
68.0,23.33846787261243,0.27250172934127914,0.7889614055847577,27.777777777777708
69.0,23.383903496056146,0.26734113873647947,0.7889614055847577,27.777777777777704
70.0,23.424621939988878,0.26227833283248897,0.7889614055847577,27.777777777777704
71.0,23.4607409346798,0.2573113720691926,0.7889614055847577,27.777777777777704
72.0,23.49237023446867,0.252438444466065,0.7889614055847577,27.7777777777777
73.0,23.519612717000648,0.24765783366899885,0.7889614055847577,27.7777777777777
74.0,23.542572762431767,0.24296780594088757,0.7889614055847577,27.7777777777777
75.0,23.561359308817124,0.2383651906528858,0.7889614055847577,27.7777777777777
76.0,23.574747970198487,0.2357020074504091,0.7889614055847577,27.7777777777777
77.0,23.583690427979537,0.23670466049705566,0.7889614055847577,27.7777777777777
78.0,23.591405988472108,0.24119396000320462,0.7889614055847577,27.7777777777777
79.0,23.60092230987798,0.24899491493031076,0.7889614055847577,27.7777777777777
80.0,23.61506643086676,0.25993693463923745,0.7889614055847577,27.7777777777777
81.0,23.636461370226662,0.2738537679077246,0.7889614055847577,27.7777777777777
82.0,23.667520520484015,0.2905835097435191,0.7889614055847577,27.7777777777777
83.0,23.710448345406427,0.3099685354013935,0.7889614055847577,27.7777777777777
84.0,23.767242299973166,0.3318554540590675,0.7889614055847577,27.7777777777777
85.0,23.839693565877656,0.35609509933197553,0.7889614055847577,27.7777777777777
86.0,23.92939260573312,0.3825424536371698,0.7889614055847577,27.7777777777777
87.0,24.03773424891758,0.4110566257514859,0.7889614055847577,27.7777777777777
88.0,24.165924648218134,0.44150079644488477,0.7889614055847577,27.7777777777777
89.0,24.31498919344673,0.47374214711554286,0.7889614055847577,27.7777777777777
90.0,24.48577941941139,0.507651849969076,0.7889614055847577,27.7777777777777
91.0,24.67898353079457,0.5431049884709104,0.7889614055847577,27.7777777777777
92.0,24.895134051129652,0.579980529569524,0.7889614055847577,27.7777777777777
93.0,25.13461900177563,0.6181612258690103,0.7889614055847577,27.7777777777777
94.0,25.397690104905507,0.6575336208458861,0.7889614055847577,27.7777777777777
95.0,25.684473995264796,0.6979879479781248,0.7889614055847577,27.7777777777777
96.0,25.99498122638609,0.7394180784235644,0.7889614055847577,27.7777777777777
97.0,26.329116235875215,0.7817214627848839,0.7889614055847577,27.7777777777777
98.0,26.686686158928893,0.8247991106833157,0.7889614055847577,27.7777777777777
99.0,27.067409625489717,0.8685555352599558,0.7889614055847577,27.7777777777777
100.0,27.470927803976714,0.9128986047820845,0.7889614055847577,27.7777777777777
101.0,27.896812106764088,0.957739512810581,0.7889614055847577,27.7777777777777
102.0,28.344570137008393,1.0029928406836865,0.7889614055847577,27.7777777777777
103.0,28.81365385546653,1.0485774043810017,0.7889614055847577,27.7777777777777
104.0,29.30322536377085,1.0947107391045725,0.7889614055847577,27.7777777777777
105.0,29.81211257257857,1.1422434417035425,0.7889614055847577,27.7777777777777
106.0,30.339491200318406,1.1921343705965186,0.7889614055847577,27.7777777777777
107.0,30.884935625204943,1.2453625724902126,0.7889614055847577,27.7777777777777
108.0,31.448370662046774,1.3029158516337849,0.7889614055847577,27.7777777777777
109.0,32.03001584712807,1.3657800907110402,0.7889614055847577,27.7777777777777
110.0,32.6303134123001,1.4349292141235253,0.7889614055847577,27.7777777777777
111.0,33.2498445353769,1.5113160590375818,0.7889614055847577,27.7777777777777
112.0,33.88923772267219,1.5958639204792773,0.7889614055847577,27.7777777777777
113.0,34.549063538416014,1.6894589229089416,0.7889614055847577,27.7777777777777
114.0,35.22972691506945,1.792943605969816,0.7889614055847577,27.7777777777777
115.0,35.931358899779006,1.9071111162241643,0.7889614055847577,27.7777777777777
116.0,36.65370638225909,2.0327002398416103,0.7889614055847577,27.7777777777777
117.0,37.39603233144046,2.170391366973123,0.7889614055847577,27.7777777777777
118.0,38.15702845850377,2.3208035130397255,0.7889614055847577,27.7777777777777
119.0,38.934743763230955,2.4844916438748075,0.7889614055847577,27.7777777777777
120.0,39.72653590709626,2.661945232720075,0.7889614055847577,27.7777777777777
121.0,40.52904830476081,2.8535873499386666,0.7889614055847577,27.7777777777777
122.0,41.338212870506155,3.059774475315647,0.7889614055847577,27.7777777777777
123.0,42.14927158203155,3.280795565755426,0.7889614055847577,27.7777777777777
124.0,42.95684832654891,3.5168740972154677,0.7889614055847577,27.7777777777777
125.0,43.75503176914116,3.768169648311467,0.7889614055847577,27.7777777777777
126.0,44.53747776969013,4.03477896115015,0.7889614055847577,27.7777777777777
127.0,45.29753150572402,4.316736811715972,0.7889614055847577,27.7777777777777
128.0,46.02837195731318,4.614019762136964,0.7889614055847577,27.7777777777777
129.0,46.72315325809955,4.926548988341178,0.7889614055847577,27.7777777777777
130.0,47.37515096414654,5.254192671837059,0.7889614055847577,27.7777777777777
131.0,47.977915882653,5.596764227483798,0.7889614055847577,27.7777777777777
132.0,48.52532473258872,5.9540961509733075,0.7889614055847577,27.7777777777777
133.0,49.01151041544181,6.326208721203319,0.7889614055847577,27.7777777777777
134.0,49.43085757724519,6.713381342374473,0.7889614055847577,27.7777777777777
135.0,49.778060844101105,7.1161415608766045,0.7889614055847577,27.7777777777777
136.0,50.0481542223222,7.535231310717549,0.7889614055847577,27.7777777777777
137.0,50.23655423931366,7.97157051922491,0.7889614055847577,27.7777777777777
138.0,50.33911170957296,8.426214516124558,0.7889614055847577,27.7777777777777
139.0,50.352190520199606,8.900298504385114,0.7889614055847577,27.7777777777777
140.0,50.272732760700706,9.394966811911488,0.7889614055847577,27.7777777777777
141.0,50.09834773429173,9.91130185947662,0.7889614055847577,27.7777777777777
142.0,49.82740648406773,10.45025028108297,0.7889614055847577,27.7777777777777
143.0,49.45918109902968,11.012533904640001,0.7889614055847577,27.7777777777777
144.0,48.99395335008426,11.598550299658742,0.7889614055847577,27.7777777777777
145.0,48.432954608881076,12.20836157223106,0.7889614055847577,27.7777777777777
146.0,47.778709481779394,12.841502305890867,0.7889614055847577,27.7777777777777
147.0,47.03471936899252,13.497062936342816,0.7889614055847577,27.7777777777777
148.0,46.2056718423903,14.173555087955371,0.7889614055847577,27.7777777777777
149.0,45.29735174820384,14.868888228431775,0.7889614055847577,27.7777777777777
150.0,44.31646225628341,15.580419842450874,0.7889614055847577,27.7777777777777
151.0,43.270570663615736,16.304927374807807,0.7889614055847577,27.7777777777777
152.0,42.167926463074906,17.038662117445565,0.7889614055847577,27.7777777777777
153.0,41.017291084100556,17.777405737872034,0.7889614055847577,27.7777777777777
154.0,39.827751795266266,18.51655294812678,0.7889614055847577,27.7777777777777
155.0,38.608540436202276,19.251206013577068,0.7889614055847577,27.7777777777777
156.0,37.36886126187249,19.976279729862853,0.7889614055847577,27.7777777777777
157.0,36.117731589535694,20.68661335861852,0.7889614055847577,27.7777777777777
158.0,34.86383725339313,21.37708589230057,0.7889614055847577,27.7777777777777
159.0,33.61540431182584,22.042732151597683,0.7889614055847577,27.7777777777777
160.0,32.38010033345142,22.67884704676233,0.7889614055847577,27.7777777777777
161.0,31.164969092936552,23.281064461150603,0.7889614055847577,27.7777777777777
162.0,29.976399845808224,23.845408773634663,0.7889614055847577,27.7777777777777
163.0,28.82012012062045,24.36832717121021,0.7889614055847577,27.7777777777777
164.0,27.701201433845,24.84671029502084,0.7889614055847577,27.7777777777777
165.0,26.624070906280885,25.27790748878503,0.7889614055847577,27.7777777777777
166.0,25.592531199479843,25.65973452724836,0.7889614055847577,27.7777777777777
167.0,24.60976432395216,25.990490700252142,0.7889614055847577,27.7777777777777
168.0,23.678347601980036,26.268965373076018,0.7889614055847577,27.7777777777777
169.0,22.800251208543603,26.494456847196542,0.7889614055847577,27.7777777777777
170.0,21.976803506513903,26.666814110000157,0.7889614055847577,27.7777777777777
171.0,21.208715672663626,26.786436603714364,0.7889614055847577,27.7777777777777
172.0,20.49610137263254,26.85424789730622,0.7889614055847577,27.7777777777777
173.0,19.838403531090655,26.871786495136433,0.7889614055847577,27.7777777777777
174.0,19.23455837944103,26.841048749515494,0.7889614055847577,27.7777777777777
175.0,18.682869468833786,26.76459943695151,0.7889614055847577,27.7777777777777
176.0,18.181225267611758,26.645382088138156,0.7889614055847577,27.7777777777777
177.0,17.727087651557184,26.48671641607255,0.7889614055847577,27.7777777777777
178.0,17.317604192167988,26.29218891768443,0.7889614055847577,27.7777777777777
179.0,16.94972155687651,26.06554499041561,0.7889614055847577,27.7777777777777
180.0,16.6202838997994,25.810591137252036,0.7889614055847577,27.7777777777777
181.0,16.326126093060452,25.53110265084127,0.7889614055847577,27.7777777777777
182.0,16.064170609887885,25.2307294294145,0.7889614055847577,27.7777777777777
183.0,15.831498889894055,24.912929062711097,0.7889614055847577,27.7777777777777
184.0,15.625401295583877,24.580918989205657,0.7889614055847577,27.7777777777777
185.0,15.443420219785567,24.237635777429713,0.7889614055847577,27.7777777777777
186.0,15.283378162180636,23.8857108203562,0.7889614055847577,27.7777777777777
187.0,15.14337405769245,23.527477519717138,0.7889614055847577,27.7777777777777
188.0,15.021777392809708,23.16497961826962,0.7889614055847577,27.7777777777777
189.0,14.917220143653346,22.799981776974533,0.7889614055847577,27.7777777777777
190.0,14.828581070786324,22.433987526143,0.7889614055847577,27.7777777777777
191.0,14.754943943022187,22.06828282244272,0.7889614055847577,27.7777777777777
192.0,14.695582481386996,21.70395368992299,0.7889614055847577,27.7777777777777
193.0,14.649946183734091,21.341899111692907,0.7889614055847577,27.7777777777777
194.0,14.617598812112544,20.982895328522872,0.7889614055847577,27.7777777777777
195.0,14.598249362959912,20.627564092108233,0.7889614055847577,27.7777777777777
196.0,14.59166866837321,20.2764549422584,0.7889614055847577,27.7777777777777
197.0,14.597734567736977,19.930000489302056,0.7889614055847577,27.777777777777697
198.0,14.616357306942447,19.58859236115273,0.7889614055847577,27.777777777777697
199.0,14.647506921225219,19.252540953121414,0.7889614055847577,27.777777777777693
200.0,14.691186196742494,18.922126845308338,0.7889614055847577,27.777777777777693
201.0,14.747397976591085,18.597589969003792,0.7889614055847577,27.77777777777769
202.0,14.81618179680863,18.279135231982487,0.7889614055847577,27.77777777777769
203.0,14.897566701422203,17.966959102453096,0.7889614055847577,27.77777777777769
204.0,14.991558240242144,17.661227166651006,0.7889614055847577,27.777777777777686
205.0,15.098180125585372,17.36209901672642,0.7889614055847577,27.777777777777686
206.0,15.217428425297294,17.06972698819749,0.7889614055847577,27.777777777777686
207.0,15.349241986371378,16.784245977691434,0.7889614055847577,27.777777777777683
208.0,15.493573110812015,16.505792689211383,0.7889614055847577,27.777777777777683
209.0,15.650350004238021,16.23449969216193,0.7889614055847577,27.777777777777683
210.0,15.81940524166304,15.970484378392802,0.7889614055847577,27.77777777777768
211.0,16.000579628544134,15.71386686140635,0.7889614055847577,27.77777777777768
212.0,16.193700888814455,15.464765467096024,0.7889614055847577,27.77777777777768
213.0,16.39848814004959,15.223282554393656,0.7889614055847577,27.777777777777676
214.0,16.6146568112452,14.989519511627412,0.7889614055847577,27.777777777777676
215.0,16.841896098333237,14.763574058387663,0.7889614055847577,27.777777777777676
216.0,17.07980166798252,14.5455272712998,0.7889614055847577,27.777777777777672
217.0,17.32798160230568,14.335459029079813,0.7889614055847577,27.777777777777672
218.0,17.585984698398832,14.1334394535017,0.7889614055847577,27.777777777777672
219.0,17.853301606139706,13.939521866473669,0.7889614055847577,27.77777777777767
220.0,18.129420209766106,13.753756317383314,0.7889614055847577,27.77777777777767
221.0,18.413756869523944,13.576172808536175,0.7889614055847577,27.777777777777665
222.0,18.70573731796255,13.406793922671053,0.7889614055847577,27.777777777777665
223.0,19.004723920000533,13.245625257179269,0.7889614055847577,27.77777777777766
224.0,19.310084065977527,13.092655121437515,0.7889614055847577,27.77777777777766
225.0,19.62115204029683,12.947861453338998,0.7889614055847577,27.77777777777766
226.0,19.937248562131174,12.811194851914546,0.7889614055847577,27.777777777777658
227.0,20.257702712798583,12.682597921338138,0.7889614055847577,27.777777777777658
228.0,20.58181147681222,12.561983850158617,0.7889614055847577,27.777777777777654
229.0,20.908913529914788,12.449250607843277,0.7889614055847577,27.777777777777654
230.0,21.238315638162682,12.344273975092417,0.7889614055847577,27.77777777777765
231.0,21.56938046217547,12.246901224953943,0.7889614055847577,27.77777777777765
232.0,21.901459981354392,12.15696670578369,0.7889614055847577,27.77777777777765
233.0,22.233954199482127,12.074266722299704,0.7889614055847577,27.777777777777647
234.0,22.566294134192397,11.99858594968984,0.7889614055847577,27.777777777777647
235.0,22.89793546125099,11.929673850830119,0.7889614055847577,27.777777777777644
236.0,23.228408975855125,11.867258877825808,0.7889614055847577,27.777777777777644
237.0,23.557254580954893,11.811046143504536,0.7889614055847577,27.77777777777764
238.0,23.88411375211612,11.760707802799852,0.7889614055847577,27.77777777777764
239.0,24.2086420225757,11.715903606036155,0.7889614055847577,27.77777777777764
240.0,24.530592956916767,11.676256396085627,0.7889614055847577,27.777777777777636
241.0,24.84976609272091,11.64137783618866,0.7889614055847577,27.777777777777636
242.0,25.166028940044825,11.610851705559986,0.7889614055847577,27.777777777777633
243.0,25.47933541968817,11.584244368449392,0.7889614055847577,27.777777777777633
244.0,25.789678320138496,11.561107726900053,0.7889614055847577,27.77777777777763
245.0,26.097160618645027,11.540972975206687,0.7889614055847577,27.77777777777763
246.0,26.401917338162498,11.52336499076735,0.7889614055847577,27.777777777777626
247.0,26.704179772840824,11.507794155193055,0.7889614055847577,27.777777777777626
248.0,27.004225159201376,11.49376647673679,0.7889614055847577,27.777777777777626
249.0,27.30241491886436,11.480782667730258,0.7889614055847577,27.777777777777622
250.0,27.599153612026807,11.468342679086453,0.7889614055847577,27.777777777777622
