Time,J,A,S,tau
0.0,0.0,1.0,0.9951188855358037,23.64066193853428
1.0,-0.6228979298366971,2.805917218526305,0.9951188855358037,23.640455421790257
2.0,-2.199654863887585,4.4966632580642525,0.9951188855358037,23.640248445098013
3.0,-4.058219434092124,6.0759441775197525,0.9951188855358037,23.640041468405766
4.0,-5.979538386297802,7.551108799928422,0.9951188855358037,23.639834491713522
5.0,-7.914301695489554,8.929022596672867,0.9951188855358037,23.639627515021278
6.0,-9.851830178677353,10.21609933669609,0.9951188855358037,23.639420538329034
7.0,-11.789728141079772,11.418324207401081,0.9951188855358037,23.63921356163679
8.0,-13.727425863244754,12.541291625833182,0.9951188855358037,23.639006584944546
9.0,-15.66477904756791,13.590227340188793,0.9951188855358037,23.638799608252302
10.0,-17.60174825387525,14.57001097818038,0.9951188855358037,23.63859263156006
11.0,-19.538322059554076,15.485201030602607,0.9951188855358037,23.638385654867815
12.0,-21.474496958003805,16.340056719535976,0.9951188855358037,23.638178678175567
13.0,-23.410271843817515,17.138554546284297,0.9951188855358037,23.637971701483323
14.0,-25.34564637824844,17.884410625366858,0.9951188855358037,23.63776472479108
15.0,-27.28062048685746,18.581095284428436,0.9951188855358037,23.637557748098835
16.0,-29.21519419005223,19.2318497402226,0.9951188855358037,23.637350771406588
17.0,-31.14936754474309,19.839706851115068,0.9951188855358037,23.637143794714344
18.0,-33.08314062244073,20.407488560422568,0.9951188855358037,23.6369368180221
19.0,-35.016513500787504,20.937838120523594,0.9951188855358037,23.636729841329856
20.0,-36.9494862601158,21.43322112647862,0.9951188855358037,23.636522864637612
21.0,-38.88205898198353,21.895947214129713,0.9951188855358037,23.63631588794537
22.0,-40.814231748542596,22.328173971503645,0.9951188855358037,23.636108911253125
23.0,-42.74600464222743,22.731887082382435,0.9951188855358037,23.63590193456088
24.0,-44.60789673044728,23.040014508046042,0.9951188855358037,23.635694957868637
25.0,-45.46673959564457,22.354267362661812,0.9951188855358037,23.6354879811764
26.0,-45.66822163964936,21.082736924813396,0.9951188855358037,23.63528100448416
27.0,-45.7053191391404,19.737454545354296,0.9951188855358037,23.635074027791916
28.0,-45.7063674918849,18.446305651723886,0.9951188855358037,23.634867051099672
29.0,-45.699422753908955,17.232607690848162,0.9951188855358037,23.634660074407428
30.0,-45.690614761825245,16.097120991519322,0.9951188855358037,23.63445309771518
31.0,-45.68133582142223,15.03604250936632,0.9951188855358037,23.634246121022937
32.0,-45.671929452129426,14.044798615807284,0.9951188855358037,23.63403914433069
33.0,-45.66247973000773,13.1188713730809,0.9951188855358037,23.633832167638445
34.0,-45.65299768680811,12.253978308698153,0.9951188855358037,23.6336251909462
35.0,-45.64345990686484,11.44610245488041,0.9951188855358037,23.633418214253954
36.0,-45.6338049072357,10.69148682733893,0.9951188855358037,23.63321123756171
37.0,-45.62390947301007,9.986620647675057,0.9951188855358037,23.633004260869463
38.0,-45.61354700081875,9.32822412004273,0.9951188855358037,23.63279728417722
39.0,-45.60232514079252,8.713233525630415,0.9951188855358037,23.63259030748497
40.0,-45.58959953618504,8.138787548251274,0.9951188855358037,23.632383330792727
41.0,-45.57436216339661,7.602214070632227,0.9951188855358037,23.632176354100483
42.0,-45.555109482272755,7.101016164843088,0.9951188855358037,23.631969377408236
43.0,-45.52969608294726,6.632861473511326,0.9951188855358037,23.631762400715992
44.0,-45.49518688411992,6.1955714040443315,0.9951188855358037,23.631555424023745
45.0,-45.44772394213741,5.787110995819899,0.9951188855358037,23.6313484473315
46.0,-45.382426027266995,5.405579454008298,0.9951188855358037,23.631141470639257
47.0,-45.29333880485871,5.0492013065307555,0.9951188855358037,23.63093449394701
48.0,-45.17345054581341,4.716318143369681,0.9951188855358037,23.630727517254766
49.0,-45.014783039487654,4.405380900350266,0.9951188855358037,23.630520540562518
50.0,-44.80855865085851,4.114943006593762,0.9951188855358037,23.630313563870274
51.0,-44.545443759367465,3.843653347399644,0.9951188855358037,23.630106587178027
52.0,-44.21585597437309,3.5902494938654708,0.9951188855358037,23.629899610485783
53.0,-43.810307267003274,3.353552331457667,0.9951188855358037,23.62969263379354
54.0,-43.31976768091272,3.1324607559074518,0.9951188855358037,23.62948565710129
55.0,-42.73602476646319,2.9259470310347817,0.9951188855358037,23.629278680409048
56.0,-42.0520169301477,2.7330531749823423,0.9951188855358037,23.6290717037168
57.0,-41.262122864350026,2.552889097564679,0.9951188855358037,23.628864727024556
58.0,-40.36239532722816,2.3846337526874875,0.9951188855358037,23.628657750332312
59.0,-39.350735274314275,2.227541290126652,0.9951188855358037,23.628450773640065
60.0,-38.227009818915334,2.0809553624256854,0.9951188855358037,23.62824379694782
61.0,-36.99313434315306,1.9443342919294626,0.9951188855358037,23.628036820255574
62.0,-35.65312431143638,1.8172902909651485,0.9951188855358037,23.62782984356333
63.0,-34.213139710679194,1.6996524295334046,0.9951188855358037,23.627622866871086
64.0,-32.68152949137509,1.5915429968942871,0.9951188855358037,23.627415890178842
65.0,-31.06883403700144,1.4934668411679044,0.9951188855358037,23.627208913486598
66.0,-29.387834534878632,1.4064283081382274,0.9951188855358037,23.627001936794354
67.0,-27.65337002405006,1.3320343218158253,0.9951188855358037,23.62679496010211
68.0,-25.882105681682628,1.272600808033492,0.9951188855358037,23.626587983409866
69.0,-24.092226218193986,1.2312207032080251,0.9951188855358037,23.626381006717622
70.0,-22.30334011734109,1.2117938927946856,0.9951188855358037,23.626174030025375
71.0,-20.537048983071404,1.219000470460808,0.9951188855358037,23.625967053333127
72.0,-18.81866737490568,1.2582069482207983,0.9951188855358037,23.62576007664088
73.0,-17.180147834152514,1.3353044279125326,0.9951188855358037,23.625553099948636
74.0,-15.66321479937055,1.456483246810015,0.9951188855358037,23.62534612325639
75.0,-14.320425531722215,1.6279560507084998,0.9951188855358037,23.62513914656414
76.0,-13.211426028854039,1.8556472021744155,0.9951188855358037,23.624932169871894
77.0,-12.393277281521163,2.1448703345658298,0.9951188855358037,23.62472519317965
78.0,-11.907310679326244,2.5000170904483823,0.9951188855358037,23.624518216487406
79.0,-11.768235538985637,2.9242783407666244,0.9951188855358037,23.624311239795166
80.0,-11.961273684334524,3.4194213104057853,0.9951188855358037,23.62410426310292
81.0,-12.448846257053539,3.9856224884412916,0.9951188855358037,23.62389728641068
82.0,-13.183069189080545,4.621378227896716,0.9951188855358037,23.623690309718437
83.0,-14.117816931808202,5.323482876069544,0.9951188855358037,23.623483333026197
84.0,-15.215854651639273,6.087066158149458,0.9951188855358037,23.623276356333953
85.0,-16.450325951128008,6.905675728972783,0.9951188855358037,23.62306937964171
86.0,-17.80256725475966,7.771391540375903,0.9951188855358037,23.62286240294947
87.0,-19.25879162148304,8.674953957860657,0.9951188855358037,23.62265542625723
88.0,-20.807249386275345,9.60590762713907,0.9951188855358037,23.622448449564985
89.0,-22.436413021124828,10.552790262330861,0.9951188855358037,23.622241472872744
90.0,-24.13410520942601,11.503389250805416,0.9951188855358037,23.6220344961805
91.0,-25.887289982872353,12.445098111193113,0.9951188855358037,23.62182751948826
92.0,-27.68226994876794,13.365355418465295,0.9951188855358037,23.621620542796016
93.0,-29.504966364386686,14.2520021696241,0.9951188855358037,23.621413566103772
94.0,-31.340854129730925,15.093226071373362,0.9951188855358037,23.62120658941153
95.0,-33.173995046466366,15.876605662328151,0.9951188855358037,23.620999612719288
96.0,-34.98476240688074,16.586954085484773,0.9951188855358037,23.620792636027044
97.0,-36.74648009089259,17.20324194261734,0.9951188855358037,23.6205856593348
98.0,-38.422585119598736,17.696256891698212,0.9951188855358037,23.620378682642556
99.0,-39.96677393022619,18.0292998651512,0.9951188855358037,23.62017170595031
100.0,-41.3286784193953,18.164200552339427,0.9951188855358037,23.619964729258065
101.0,-42.464981519949006,18.072185431360023,0.9951188855358037,23.61975775256582
102.0,-43.35200355853249,17.745420691826844,0.9951188855358037,23.619550775873577
103.0,-43.993849563406656,17.20343500473302,0.9951188855358037,23.61934379918133
104.0,-44.42100789007397,16.48998078246374,0.9951188855358037,23.619136822489086
105.0,-44.6807247901139,15.662052140299982,0.9951188855358037,23.618929845796846
106.0,-44.823783460401614,14.776244162428782,0.9951188855358037,23.6187228691046
107.0,-44.893915288833085,13.87857182100352,0.9951188855358037,23.618515892412358
108.0,-44.922894088405975,13.000457974405904,0.9951188855358037,23.61830891572011
109.0,-44.93072889222315,12.159904928620463,0.9951188855358037,23.618101939027866
110.0,-44.92856798609221,11.365200929409195,0.9951188855358037,23.61789496233562
111.0,-44.92193298761916,10.618700312089778,0.9951188855358037,23.617687985643375
112.0,-44.913256492669525,9.9196925865853,0.9951188855358037,23.61748100895113
113.0,-44.90339061485659,9.266099506367699,0.9951188855358037,23.617274032258887
114.0,-44.892352413097065,8.655351744094075,0.9951188855358037,23.617067055566643
115.0,-44.87963392361455,8.084777389850073,0.9951188855358037,23.6168600788744
116.0,-44.864245773639375,7.551786398548975,0.9951188855358037,23.616653102182156
117.0,-44.84465058280899,7.053922165195212,0.9951188855358037,23.616446125489908
118.0,-44.81864066501687,6.588876497620583,0.9951188855358037,23.616239148797664
119.0,-44.783199732912124,6.154488521004686,0.9951188855358037,23.61603217210542
120.0,-44.73437499831841,5.7487380750088155,0.9951188855358037,23.615825195413176
121.0,-44.66718180195697,5.369737545459377,0.9951188855358037,23.615618218720932
122.0,-44.57555996947796,5.01572352532785,0.9951188855358037,23.61541124202869
123.0,-44.452396990139654,4.685048773514094,0.9951188855358037,23.61520426533644
124.0,-44.28962721087593,4.376174613363149,0.9951188855358037,23.614997288644197
125.0,-44.07840892356483,4.087663800519613,0.9951188855358037,23.614790311951953
126.0,-43.809373398504526,3.8181738536209,0.9951188855358037,23.61458333525971
127.0,-43.4729326407571,3.5664508356972293,0.9951188855358037,23.614376358567466
128.0,-43.05962688049213,3.3313235901688865,0.9951188855358037,23.61416938187522
129.0,-42.56048925930054,3.111698485779589,0.9951188855358037,23.613962405182974
130.0,-41.967404226165485,2.906554842355037,0.9951188855358037,23.61375542849073
131.0,-41.273437890254364,2.714941440421251,0.9951188855358037,23.613548451798486
132.0,-40.47312283173861,2.535974906090562,0.9951188855358037,23.613341475106242
133.0,-39.56268596824331,2.3688413802468835,0.9951188855358037,23.613134498414
134.0,-38.54021779198866,2.2128034272162465,0.9951188855358037,23.612927521721755
135.0,-37.40578719681311,2.0672151928150555,0.9951188855358037,23.61272054502951
136.0,-36.16151547963443,1.9315494107394962,0.9951188855358037,23.612513568337263
137.0,-34.81163061541305,1.8054376972707056,0.9951188855358037,23.61230659164502
138.0,-33.362510372514166,1.6887380611396234,0.9951188855358037,23.612099614952776
139.0,-31.82273362567123,1.5816115372166932,0.9951188855358037,23.611892638260528
140.0,-30.203077561487493,1.4846124465366983,0.9951188855358037,23.611685661568284
141.0,-28.51655527917302,1.3988074497104308,0.9951188855358037,23.61147868487604
142.0,-26.778228926707428,1.3258786443848105,0.9951188855358037,23.6112717081838
143.0,-25.004956390998597,1.26822602904392,0.9951188855358037,23.611064731491556
144.0,-23.215098832363033,1.2290332124106307,0.9951188855358037,23.610857754799312
145.0,-21.42847205323993,1.2122902305034926,0.9951188855358037,23.61065077810707
146.0,-19.667020028331493,1.2227603382898529,0.9951188855358037,23.610443801414824
147.0,-17.956676929677183,1.265878322473763,0.9951188855358037,23.61023682472258
148.0,-16.330382045426713,1.3475811181999817,0.9951188855358037,23.61002984803034
149.0,-14.831107309601837,1.4740759185486905,0.9951188855358037,23.609822871338096
150.0,-13.512496945208264,1.6515584475380705,0.9951188855358037,23.609615894645852
151.0,-12.434458013572627,1.8858998690830766,0.9951188855358037,23.60940891795361
152.0,-11.652907185584933,2.1823244584254016,0.9951188855358037,23.609201941261365
153.0,-11.206575670038358,2.5451011609837444,0.9951188855358037,23.60899496456912
154.0,-11.106775138611523,2.9772696755375847,0.9951188855358037,23.608787987876873
155.0,-11.335668092343605,3.480423501726169,0.9951188855358037,23.60858101118463
156.0,-11.8538583676584,4.0545524390721015,0.9951188855358037,23.60837403449239
157.0,-12.613147473351326,4.697959851817849,0.9951188855358037,23.608167057800145
158.0,-13.568192472848242,5.407248563595388,0.9951188855358037,23.607960081107905
159.0,-14.682963272429912,6.177363116574525,0.9951188855358037,23.607753104415657
160.0,-15.931687030122216,7.0016776554617515,0.9951188855358037,23.607546127723413
161.0,-17.29642777349127,7.87210983828586,0.9951188855358037,23.607339151031173
162.0,-18.763746154420843,8.77925111097585,0.9951188855358037,23.607132174338933
163.0,-20.32198131481234,9.712514723219565,0.9951188855358037,23.60692519764669
164.0,-21.95954858421052,10.660326857947434,0.9951188855358037,23.60671822095445
165.0,-23.664159095312442,11.61039802401222,0.9951188855358037,23.606511244262204
166.0,-25.422669976544793,12.550089853927833,0.9951188855358037,23.606304267569964
167.0,-27.22130790705696,13.466856769051228,0.9951188855358037,23.60609729087772
168.0,-29.04593122864765,14.348571655613902,0.9951188855358037,23.605890314185476
169.0,-30.881880846204467,15.183385722421374,0.9951188855358037,23.605683337493236
170.0,-32.71286921903667,15.95863434287625,0.9951188855358037,23.605476360800992
171.0,-34.5185239738649,16.658521292551477,0.9951188855358037,23.605269384108748
172.0,-36.27101534282195,17.261051049953206,0.9951188855358037,23.6050624074165
173.0,-37.93241063229728,17.735905030754314,0.9951188855358037,23.604855430724257
174.0,-39.455464412254145,18.045768312424027,0.9951188855358037,23.60464845403201
175.0,-40.79003758478823,18.153028140464244,0.9951188855358037,23.604441477339762
176.0,-41.89469649910562,18.03103430411966,0.9951188855358037,23.604234500647514
177.0,-42.74910486838885,17.67534243931683,0.9951188855358037,23.60402752395527
178.0,-43.36101322707951,17.10893776884672,0.9951188855358037,23.603820547263023
179.0,-43.76374988045382,16.3780116386928,0.9951188855358037,23.603613570570776
180.0,-44.00572182457975,15.540214387763713,0.9951188855358037,23.60340659387853
181.0,-44.13726804070174,14.651204734181967,0.9951188855358037,23.603199617186277
182.0,-44.2007116479473,13.755195272346516,0.9951188855358037,23.602992640494033
183.0,-44.22620412715912,12.881721487048464,0.9951188855358037,23.60278566380179
184.0,-44.23241977217338,12.047304218488343,0.9951188855358037,23.602578687109546
185.0,-44.22960167002274,11.259262956950982,0.9951188855358037,23.6023717104173
186.0,-44.22275487556776,10.51942733632803,0.9951188855358037,23.602164733725058
187.0,-44.2140396629637,9.826838429896098,0.9951188855358037,23.60195775703281
188.0,-44.20417109561644,9.179320169313142,0.9951188855358037,23.601750780340566
189.0,-44.193090003508814,8.574269747901171,0.9951188855358037,23.60154380364832
190.0,-44.180217776648355,8.009034727198994,0.9951188855358037,23.601336826956075
191.0,-44.16449839412338,7.481035284706081,0.9951188855358037,23.60112985026383
192.0,-44.14431000780199,6.98783493620374,0.9951188855358037,23.600922873571584
193.0,-44.1173416676179,6.5271461622087115,0.9951188855358037,23.60071589687934
194.0,-44.08045499721634,6.096827999893591,0.9951188855358037,23.600508920187092
195.0,-44.02955953922129,5.694879101654795,0.9951188855358037,23.60030194349485
196.0,-43.959523444838666,5.3194295015851685,0.9951188855358037,23.600094966802605
197.0,-43.86413825573584,4.96873230459513,0.9951188855358037,23.599887990110357
198.0,-43.73615217750233,4.641155702813329,0.9951188855358037,23.599681013418113
199.0,-43.56738010016592,4.335175439077778,0.9951188855358037,23.599474036725866
200.0,-43.34889116921132,4.0493677397811885,0.9951188855358037,23.599267060033622
201.0,-43.07126689303319,3.782402708708217,0.9951188855358037,23.599060083341378
202.0,-42.724915649489475,3.5330381708230463,0.9951188855358037,23.59885310664913
203.0,-42.30042396048193,3.3001139748036525,0.9951188855358037,23.598646129956887
204.0,-41.78892170248744,3.082546821326498,0.9951188855358037,23.59843915326464
205.0,-41.182437852679804,2.8793258162203967,0.9951188855358037,23.598232176572395
206.0,-40.47422547817855,2.689509201082052,0.9951188855358037,23.59802519988015
207.0,-39.65903927059989,2.5122231300337186,0.9951188855358037,23.597818223187904
208.0,-38.73335563448391,2.346663956989922,0.9951188855358037,23.59761124649566
209.0,-37.695533563456,2.1921062478650626,0.9951188855358037,23.597404269803413
210.0,-36.54592329592989,2.047919528368422,0.9951188855358037,23.59719729311117
211.0,-35.28693733186429,1.9135973683518777,0.9951188855358037,23.596990316418925
212.0,-33.92310989038363,1.7888001309660186,0.9951188855358037,23.59678333972668
213.0,-32.46111462825877,1.6734254924622547,0.9951188855358037,23.596576363034437
214.0,-30.909854291795156,1.5676905452296814,0.9951188855358037,23.59636938634219
215.0,-29.280448302482775,1.4722179117006802,0.9951188855358037,23.596162409649946
216.0,-27.586218960040174,1.3881612112744528,0.9951188855358037,23.595955432957698
217.0,-25.842528974344322,1.3173082712933837,0.9951188855358037,23.595748456265454
218.0,-24.066493317841843,1.2621739349728878,0.9951188855358037,23.59554147957321
219.0,-22.276705098680537,1.2260654053471276,0.9951188855358037,23.595334502880966
220.0,-20.493267967304725,1.2130948429968635,0.9951188855358037,23.595127526188723
221.0,-18.738617864978377,1.2281365380481608,0.9951188855358037,23.59492054949648
222.0,-17.039581508284215,1.276714710906035,0.9951188855358037,23.59471357280424
223.0,-15.430492154234628,1.3648239741605213,0.9951188855358037,23.594506596111994
224.0,-13.956022156090789,1.4986887661013308,0.9951188855358037,23.59429961941975
225.0,-12.671198283038269,1.6844755130708828,0.9951188855358037,23.594092642727507
226.0,-11.636073719867754,1.9279766790918071,0.9951188855358037,23.593885666035266
227.0,-10.90474698648067,2.2342890523903485,0.9951188855358037,23.593678689343022
228.0,-10.512217410643855,2.607509111710526,0.9951188855358037,23.59347171265078
229.0,-10.465168652622044,3.050467734307621,0.9951188855358037,23.59326473595853
230.0,-10.741761333014216,3.5645193849245675,0.9951188855358037,23.593057759266287
231.0,-11.300408174544135,4.149398665517328,0.9951188855358037,23.59285078257404
232.0,-12.092713815978923,4.8031470503612805,0.9951188855358037,23.592643805881792
233.0,-13.0745195935786,5.522107493490029,0.9951188855358037,23.592436829189545
234.0,-14.211442161330584,6.300975493238532,0.9951188855358037,23.5922298524973
235.0,-15.47912487434109,7.132890299349958,0.9951188855358037,23.592022875805053
236.0,-16.860529232949467,8.00955423167149,0.9951188855358037,23.59181589911281
237.0,-18.342642556860326,8.921361104632622,0.9951188855358037,23.591608922420566
238.0,-19.9138883243984,9.857547587240886,0.9951188855358037,23.59140194572832
239.0,-21.562594976645027,10.806401481492824,0.9951188855358037,23.591194969036074
240.0,-23.276322280603306,11.755538052179979,0.9951188855358037,23.59098799234383
241.0,-25.04179359205192,12.692291212737143,0.9951188855358037,23.590781015651586
242.0,-26.84514474175599,13.604147119731882,0.9951188855358037,23.590574038959346
243.0,-28.67215137919494,14.479026226513469,0.9951188855358037,23.590367062267102
244.0,-30.507964710906307,15.305017598924628,0.9951188855358037,23.59016008557486
245.0,-32.335771406869114,16.069079683681316,0.9951188855358037,23.589953108882614
246.0,-34.13416592569091,16.754563275242443,0.9951188855358037,23.58974613219037
