Time,J,A,S,tau
0,100,100,0.999575309,5.555555556
1,91.41187707,216.8703328,0.996806414,4.830558861
2,161.2323744,331.5545008,0.993626669,4.072282383
3,305.1125602,443.8311971,0.989981688,3.280336457
4,523.1732236,542.71679,0.988248375,3.10306773
5,743.9470552,716.4061297,0.986773995,3.043454506
6,1012.405604,965.1016977,0.985127011,2.985455741
7,1378.987752,1273.20137,0.983289507,2.929038316
8,1852.101209,1660.711758,0.981242072,2.874174192
9,2432.017175,2176.795803,0.97896373,2.820841452
10,3153.401657,2854.49706,0.976431851,2.769025812
11,4061.85052,3723.69371,0.973622058,2.718722741
12,5190.166068,4840.374592,0.970508115,2.669940382
13,6578.139233,6275.571032,0.96706177,2.62270351
14,8281.306742,8106.260812,0.963252536,2.577058845
15,10359.74812,10426.31191,0.959047378,2.533082111
16,12876.74222,13351.36377,0.954410229,2.49088733
17,15903.71759,17015.32403,0.949301271,2.45063895
18,19518.29764,21571.16288,0.943675861,2.41256754
19,23800.93934,27192.21636,0.93748293,2.376989872
20,28834.14308,34068.82444,0.93066266,2.344334338
21,34700.45546,42402.55396,0.923143151,2.315172678
22,41479.42708,52397.59018,0.914835732,2.290258945
23,49244.92267,64246.94932,0.905628555,2.270576326
24,58062.91183,78112.77879,0.895378053,2.257392092
25,67989.22656,94100.4187,0.883898051,2.252319422
26,79064.94516,112225.8715,0.870946305,2.257385447
27,91315.86762,132378.245,0.856209721,2.275096356
28,104746.1979,154280.3239,0.839289221,2.308497518
29,119328.7256,177454.123,0.819688384,2.361212583
30,134984.0871,201200.9283,0.79681133,2.437448266
31,151551.9905,224607.2001,0.769978461,2.541946165
32,168749.1057,246588.3009,0.738470178,2.679864096
33,186123.0915,265975.5051,0.701607974,2.856575756
34,203014.4724,281642.1421,0.658876859,3.077388124
35,218548.3978,292649.7858,0.610079954,3.347195853
36,231676.5094,298383.9559,0.555499312,3.670110907
37,241281.2619,298645.2031,0.496018941,4.049121741
38,246333.8858,293669.7617,0.433158511,4.485842412
39,246075.3686,284075.4795,0.368981738,4.980393813
40,240174.3577,270748.3538,0.30587473,5.531439916
41,228817.0504,254702.1649,0.24623485,6.136362839
42,212701.838,236944.4769,0.192144271,6.791539567
43,192939.5865,218374.7079,0.145107359,7.492665852
44,170885.9805,199725.1477,0.105909193,8.235077876
45,147947.536,181542.3711,0.074613998,9.014033307
46,125404.487,164198.5392,0.050682776,9.824931113
47,104281.467,147920.069,0.033157276,10.66346424
48,85281.74716,132821.7838,0.02086945,11.52571164
49,68782.83494,118939.5785,0.012623937,12.40818041
50,54892.48019,106243.0579,0.007298013,13.33021224
51,43482.96934,94677.61345,0.003994384,14.33011607
52,34268.09712,84223.69272,0.002099426,15.3300199
53,26950.17773,74795.18327,0.001058193,16.32992373
54,21203.56622,66309.92255,0.000510847,17.32982756
55,16719.24602,58689.86847,0.000235923,18.32973139
56,13227.79352,51861.21516,0.000104125,19.32963522
57,10507.07623,45754.45678,4.39E-05,20.32953904
58,8380.72775,40304.40525,1.76E-05,21.32944286
59,6712.048256,35450.16497,0,22.32934668
60,5396.507121,31135.07016,0,23.3292505
61,4354.597442,27306.58914,0,24.32915432
62,3525.821893,23916.20115,0,25.32905814
63,2863.940367,20919.24877,0,26.32896196
64,2333.391493,18274.77192,0,27.32886577
65,1906.65337,15945.32757,0,28.32876958
66,1562.587183,13896.82196,0,29.3286734
67,1284.332175,12098.27949,0,30.32857721
68,1058.631727,10521.65287,0,31.32848102
69,875.0869103,9141.62956,0,32.32838482
70,725.4162208,7935.424101,0,33.32828863
71,603.0915645,6882.590406,0,34.32819243
72,502.8489628,5964.825999,0,35.32809624
73,420.5006644,5165.795444,0,36.32800004
74,352.6929266,4470.954634,0,37.32790384
75,296.7248141,3867.385461,0,38.32780764
76,250.4080756,3343.640417,0,39.32771144
77,211.9845041,2889.600828,0,40.32761523
78,180.032687,2496.341268,0,41.32751903
79,153.3975716,2156.0049,0,42.32742282
80,131.1362002,1861.688978,0,43.32732661
81,112.4838336,1607.342085,0,44.3272304
82,96.81671088,1387.66829,0,45.32713419
83,83.62383148,1198.040599,0,46.32703798
84,72.48545014,1034.422871,0,47.32694177
85,63.05776382,893.3006711,0,48.32684555
86,55.05780416,771.6180173,0,49.32674933
87,48.25195442,666.7210719,0,50.32665312
88,42.44729497,576.3080622,0,51.3265569
89,37.48412889,498.3854205,0,52.32646068
90,33.2295697,431.228387,0,53.32636445
91,29.57360594,373.3459053,0,54.32626823
92,26.4245248,323.4503211,0,55.32617201
93,23.70568279,280.4307042,0,56.32607578
94,21.35266603,243.329427,0,57.32597955
95,19.31194549,211.3213063,0,58.32588332
96,17.53814479,183.6959392,0,59.32578709
97,15.99331903,159.8419359,0,60.32569086
98,14.64545406,139.2333639,0,61.32559463
99,13.46729881,121.4180464,0,62.32549839
100,12.43606894,106.0072169,0,63.32540216
101,11.53215828,92.66680096,0,64.32530592
102,10.73909483,81.10969921,0,65.32520968
103,10.04280613,71.08921387,0,66.32511344
104,9.431265648,62.39337996,0,67.3250172
105,8.894214438,54.84004117,0,68.32492095
106,8.422856543,48.27266225,0,69.32482471
107,8.009711813,42.55666297,0,70.32472846
108,7.648367392,37.57633176,0,71.32463221
109,7.333257967,33.23215399,0,72.32453597
110,7.059693009,29.43848675,0,73.32443971
111,6.823556248,26.1216192,0,74.32434346
112,6.621376811,23.21806134,0,75.32424721
113,6.450197252,20.67309916,0,76.32415095
114,6.307361434,18.43957063,0,77.29592488
115,6.190807767,16.47676072,0,78.18410226
116,6.098612725,14.74953145,0,79.04816023
117,6.02916578,13.22752146,0,79.88160293
118,5.981102949,11.88447675,0,80.67576236
119,5.953267714,10.69767697,0,81.41884299
120,5.944683902,9.647442953,0,82.09437145
121,5.954533709,8.716713923,0,82.67852338
122,5.982133846,7.890685142,0,83.13513988
123,6.026908744,7.15649845,0,83.40540148
124,6.088360307,6.502975986,0,83.38339155
125,6.166075508,5.920389448,0,82.84541341
126,6.259715302,5.400262281,0,81.16427607
127,6.368990346,4.935201074,0,11.59398615
128,6.49363626,4.518751819,0,7.434592169
129,6.633409942,4.145273648,0,5.554765122
130,6.788080878,3.809830657,0,4.461518672
131,6.957421376,3.508098842,0,3.757342858
132,7.141197582,3.236285834,0,3.279738511
133,7.339161446,2.991061654,0,2.946883912
134,7.551044027,2.769498829,0,2.712065072
135,7.776549172,2.569020696,0,2.546289488
136,8.015349093,2.387356607,0,2.430478023
137,8.267080743,2.222503183,0,2.351534008
138,8.531343667,2.07269058,0,2.300184691
139,8.807697819,1.93635354,0,2.269716644
140,9.095663762,1.812105905,0,2.255188591
141,9.394723772,1.698718639,0,2.252922107
142,9.704324404,1.595100473,0,2.260156924
143,10.02387378,1.500281956,0,2.274813537
144,10.35275557,1.413399578,0,2.29531909
145,10.69032082,1.333684659,0,2.320486095
146,11.03589833,1.26045118,0,2.349417053
147,11.38880138,1.193086167,0,2.381435982
148,11.74833198,1.131041414,0,2.416036158
149,12.11378291,1.073826205,0,2.45283987
150,12.48444321,1.021000583,0,2.491567456
151,12.85960538,0.97216957,0,2.532014015
152,13.23856962,0.926978125,0,2.574031437
153,13.62064594,0.885106916,0,2.617514789
154,14.00516,0.846268211,0,2.662391711
155,14.39145607,0.810202494,0,2.708614495
156,14.7789006,0.776675388,0,2.756154045
157,15.16688219,0.745475096,0,2.804995359
158,15.55481623,0.71640987,0,2.855134072
159,15.94214552,0.68930596,0,2.906573941
160,16.32834195,0.664005706,0,2.959324948
161,16.71290502,0.640366005,0,3.013401969
162,17.09536461,0.618256702,0,3.068823756
163,17.47528001,0.597559329,0,3.125612262
164,17.8522398,0.578165904,0,3.183792168
165,18.22586083,0.559977996,0,3.243390637
166,18.5957879,0.542905664,0,3.304437124
167,18.96169282,0.526866686,0,3.366963362
168,19.32327374,0.511785795,0,3.431003396
169,19.68025265,0.497594119,0,3.496593787
170,20.03237665,0.48422848,0,3.563773752
171,20.37941545,0.471630854,0,3.63258543
172,20.72116052,0.459747902,0,3.703074187
173,21.05742268,0.448530587,0,3.775289059
174,21.38803351,0.437933827,0,3.849283253
175,21.71284309,0.427916009,0,3.925114508
176,22.03171878,0.418438701,0,4.002845592
177,22.34454384,0.409466522,0,4.082545318
178,22.6512188,0.400966764,0,4.164289051
179,22.9516583,0.392909075,0,4.248159096
180,23.24579105,0.385265425,0,4.334246127
181,23.53356055,0.378009905,0,4.422650389
182,23.81492202,0.371118323,0,4.513481214
183,24.08984357,0.36456838,0,4.606860253
184,24.35830574,0.358339298,0,4.702921236
185,24.62029917,0.352411689,0,4.801810594
186,24.8758268,0.346767686,0,4.903692233
187,25.12490066,0.341390453,0,5.008743592
188,25.36754339,0.336264451,0,5.117162554
189,25.60378719,0.331375107,0,5.229165089
190,25.83367258,0.32670884,0,5.344988627
191,26.05724976,0.322252987,0,5.464893914
192,26.2745758,0.317995648,0,5.589163786
193,26.48571699,0.313925789,0,5.718110219
194,26.69074533,0.310032962,0,5.852067206
195,26.88974134,0.306307512,0,5.991403204
196,27.08279038,0.302740253,0,6.136508531
197,27.26998527,0.299322704,0,6.287811413
198,27.45142308,0.296046779,0,6.445762243
199,27.62720709,0.292904995,0,6.610849484
200,27.79744434,0.28989023,0,6.783584322
201,27.96224676,0.286995857,0,6.96451286
202,28.12172961,0.284215596,0,7.15420351
203,28.27601158,0.281543544,0,7.35325106
204,28.42521442,0.278974164,0,7.562272623
205,28.56946206,0.276502205,0,7.781900711
206,28.70888071,0.274122738,0,8.012783232
207,28.8435981,0.27183111,0,8.255573431
208,28.9737432,0.269622912,0,8.510927187
209,29.09944589,0.267494006,0,8.779494244
210,29.22083648,0.26544046,0,9.061910847
211,29.33804548,0.263458564,0,9.358794762
212,29.45120316,0.261544817,0,9.670731458
213,29.56043934,0.259695888,0,9.998273936
214,29.66588303,0.257908639,0,10.3419284
215,29.76766212,0.256180092,0,10.70214765
216,29.86590335,0.254507417,0,11.07933331
217,29.96073161,0.252887949,0,11.47381012
218,30.05227047,0.251319134,0,11.88585206
219,30.14064102,0.249798576,0,12.3156373
220,30.22596278,0.248323976,0,12.76329429
221,30.30835284,0.246893151,0,13.22885874
222,30.38792488,0.245504076,0,13.71227551
223,30.46479204,0.244154743,0,14.2134693
224,30.53906342,0.242843295,0,14.73223918
225,30.61084517,0.241567972,0,15.26833124
226,30.68024255,0.240327045,0,15.82145788
227,30.7473558,0.239118926,0,16.39122721
228,30.81228337,0.237942076,0,16.97723021
229,30.87512158,0.236795008,0,17.57900774
230,30.93596233,0.235676342,0,18.19604797
231,30.9948963,0.234584724,0,18.82782484
232,31.05200995,0.23351889,0,19.47377101
233,31.10738795,0.232477612,0,20.1333132
234,31.16111181,0.231459724,0,20.80585375
235,31.21326008,0.230464114,0,21.49079429
236,31.26390952,0.229489702,0,22.18752626
237,31.31313301,0.228535477,0,22.89544641
238,31.36100205,0.227600449,0,23.61395409
239,31.40212217,0.201470095,0,24.34245232
240,31.40211306,0.074115837,0,25.0803556
241,31.40210446,0.027265332,0,26.03742173
242,31.40209636,0.010030222,0,27.03716572
243,31.40208872,0.003689864,0,28.03690971
244,31.40208149,0.001357407,0,29.0366537
245,31.40207463,0.000499356,0,30.03639768
246,31.40206811,0.0001837,0,31.03614167
247,31.4020619,6.76E-05,0,32.03588564
248,31.40205597,2.49E-05,0,33.03562962
249,31.40205028,0,0,34.03537359
250,31.40204482,0,0,35.03511755
251,31.40203956,0,0,36.03486152
252,31.40203449,0,0,37.03460548
253,31.40202957,0,0,38.03434944
254,31.4020248,0,0,39.03409339
255,31.40202016,0,0,40.03383734
256,31.40201563,0,0,41.03358129
257,31.40201121,0,0,42.03332523
258,31.40200686,0,0,43.03306917
259,31.40200259,0,0,44.03281311
260,31.40199837,0,0,45.03255705
261,31.40199421,0,0,46.03230098
262,31.40199007,0,0,47.03204491
263,31.40198597,0,0,48.03178883
264,31.40198187,0,0,49.03153275
265,31.40197778,0,0,50.03127667
266,31.40197368,0,0,51.03102059
267,31.40196956,0,0,52.0307645
268,31.4019654,0,0,53.03050841
269,31.4019612,0,0,54.03025231
270,31.40195695,0,0,55.02999621
271,31.40195263,0,0,56.02974011
272,31.40194823,0,0,57.02948401
273,31.40194374,0,0,58.0292279
274,31.40193913,0,0,59.02897179
275,31.40193441,0,0,60.02871567
276,31.40192954,0,0,61.02845956
277,31.40192452,0,0,62.02820344
278,31.40191932,0,0,63.02794731
279,31.40191393,0,0,64.02769118
280,31.40190832,0,0,65.02743505
281,31.40190247,0,0,66.02717892
282,31.40189635,0,0,67.02692278
283,31.40188993,0,0,68.02666664
284,31.40188319,0,0,69.0264105
285,31.40187609,0,0,70.02615435
286,31.40186858,0,0,71.0258982
287,31.40186064,0,0,72.02564205
288,31.4018522,0,0,73.02538589
289,31.40184323,0,0,73.79956151
290,31.40183365,0,0,74.52120879
291,31.40182342,0,0,75.22454637
292,31.40181245,0,0,75.90761698
293,31.40180067,0,0,76.56827685
294,31.40178798,0,0,77.20406373
295,31.4017743,0,0,77.81220507
296,31.4017595,0,0,78.38956379
297,31.40174345,0,0,78.9324731
298,31.40172603,0,0,79.43683086
299,31.40170706,0,0,79.89778674
300,31.40168637,0,0,80.30969342
301,31.40166375,0,0,80.66594342
302,31.40163897,0,0,80.95859709
303,31.40161178,0,0,81.17818706
304,31.40158187,0,0,81.31313814
305,31.40154892,0,0,81.34916333
306,31.40151254,0,0,81.26831331
307,31.4014723,0,0,81.04776346
308,31.40142771,0,0,80.65773418
309,31.40137822,0,0,80.05869995
310,31.40132318,0,0,79.19682525
311,31.40126187,0,0,77.99726491
312,31.40119347,0,0,76.353186
313,31.40111701,0,0,74.11020124
314,31.40103142,0,0,23.43826481
315,31.40093547,0,0,21.07049811
316,31.40082772,0,0,19.08809488
317,31.40070655,0,0,17.41788089
318,31.4005701,0,0,15.99977329
319,31.40041622,0,0,14.78600306
320,31.40024245,0,0,13.7389811
321,31.40004596,0,0,12.82912101
322,31.39982351,0,0,12.03301145
323,31.39957135,0,0,11.33197735
324,31.39928518,0,0,10.71098948
325,31.39896004,0,0,10.15784576
326,31.39859022,0,0,9.662555566
327,31.39816915,0,0,9.216866003
328,31.39768922,0,0,8.813916233
329,31.39714171,0,0,8.447956749
330,31.39651651,0,0,8.114143537
331,31.39580198,0,0,7.808373329
332,31.39498468,0,0,7.527150183
333,31.3940491,0,0,7.267485337
334,31.39297735,0,0,7.02681249
335,31.39174874,0,0,6.802922163
336,31.39033942,0,0,6.593905334
337,31.38872184,0,0,6.398109103
338,31.38686418,0,0,6.214098661
339,31.38472975,0,0,6.040626795
340,31.38227618,0,0,5.876606849
341,31.37945455,0,0,5.721091902
342,31.37620846,0,0,5.573254264
343,31.37247277,0,0,5.432370854
344,31.36817252,0,0,5.29780776
345,31.36322142,0,0,5.169009524
346,31.35751958,0,0,5.045490776
347,31.35095221,0,0,4.926823831
348,31.34338779,0,0,4.812631616
349,31.33467413,0,0,4.702584575
350,31.32463617,0,0,4.596391165
351,31.31307506,0,0,4.493792175
352,31.29975867,0,0,4.394561919
353,31.2844243,0,0,4.298497019
354,31.26677072,0,0,4.205418217
355,31.24644868,0,0,4.11516631
356,31.22306839,0,0,4.027597458
357,31.19617063,0,0,3.942584908
358,31.16524913,0,0,3.860012652
359,31.12970846,0,0,3.779777585
360,31.0888941,0,0,3.701784947
361,31.04203743,0,0,3.625949659
362,30.98828734,0,0,3.552193975
363,30.92667909,0,0,3.480445473
364,30.85610362,0,0,3.410639597
365,30.77535298,0,0,3.342714543
366,30.68302797,0,0,3.276614966
367,30.57760225,0,0,3.212288269
368,30.45733453,0,0,3.149687113
369,30.32032499,0,0,3.088766861
370,30.16445293,0,0,3.029487313
371,29.98737734,0,0,2.971812278
372,29.78655668,0,0,2.915709694
373,29.55918404,0,0,2.861153667
374,29.30225701,0,0,2.80812388
375,29.01253311,0,0,2.756608484
376,28.68655759,0,0,2.706606449
377,28.32070122,0,0,2.658129901
378,27.91117883,0,0,2.611208712
379,27.4541077,0,0,2.565897689
380,26.94558898,0,0,2.522282302
381,26.38177492,0,0,2.480488188
382,25.7590027,0,0,2.440698708
383,25.0739355,0,0,2.403168046
384,24.32368604,0,0,2.368241498
385,23.50605628,0,0,2.336387254
386,22.61972291,0,0,2.308230003
387,21.66446008,0,0,2.284588538
388,20.6413872,0,0,2.266530747
389,19.55319539,0,0,2.255427988
390,18.40437354,0,0,2.253023566
391,17.20137812,0,0,2.261500343
392,15.95275242,0,0,2.283546188
393,14.66917011,0,0,2.32241431
394,13.36334297,0,0,2.381950653
395,12.04982608,0,0,2.466588676
396,10.74465299,0,0,2.581278375
397,9.464826968,0,0,2.731340619
398,8.227674406,0,0,2.922235226
399,7.050069257,0,0,3.159247072
400,5.947595807,0,0,3.447118452
401,4.933721121,0,0,3.789672119
402,4.019011361,0,0,4.189483465
403,3.210515979,0,0,4.647666103
404,2.511388449,0,0,5.163804772
405,1.920739497,0,0,5.736039917
406,1.434269265,0,0,6.361303849
407,1.043976551,0,0,7.035614422
408,0.739509837,0,0,7.754421172
409,0.508952931,0,0,8.512923711
410,0.33975779,0,0,9.306337871
411,0.219631115,0,0,10.13009497
412,0.137253841,0,0,10.97997298
413,0.082782664,0,0,11.8521686
414,0.048109197,0,0,12.74332333
415,0.0268966,0,0,13.7136615
416,0.014443433,0,0,14.71356593
417,0.007438775,0,0,15.71347035
418,0.003669283,0,0,16.71337477
419,0.00173117,0,0,17.71327919
420,0.000780289,0,0,18.71318361
421,0.000335631,0,0,19.71308802
422,0.000137643,0,0,20.71299244
423,5.38E-05,0,0,21.71289685
424,2.00E-05,0,0,22.71280127