Time,J,A,S,tau
0.0,100.0,100.0,0.987967619679315,9.00900900900901
1.0,189.76014434866306,302.2847502413436,0.977407892258208,8.414204018607967
2.0,561.5967858121454,499.6552017702844,0.965925501196421,7.792874659703949
3.0,1192.054335793275,691.555066491607,0.9534722654665958,7.14479540446277
4.0,2055.7633192700087,877.4203622189359,0.9400011459478563,6.469750727786414
5.0,3125.6678133790756,1056.6786556900943,0.9254672863513226,5.767553382441309
6.0,4356.398285418761,1245.7739213306256,0.9156536318075211,5.394960926416884
7.0,5644.733482677605,1680.3085469944447,0.9100351846908173,5.3050794651749325
8.0,7278.336637848504,2381.6969909351005,0.9041035628586067,5.217749914982465
9.0,9532.359618611556,3309.844527518156,0.8978469117599777,5.13301892562378
10.0,12597.36155534906,4424.302825301443,0.8912529208300842,5.05095681522997
11.0,16583.012091682172,5685.48809640889,0.8843085870706797,4.971663014880682
12.0,21415.34664021867,7231.963405427882,0.8769998812968538,4.89527264080233
13.0,27088.588573431345,9379.934455580256,0.8693112900700433,4.82196441271093
14.0,33908.22969129409,12340.618021804967,0.8612252032466775,4.751970060507084
15.0,42332.58532406463,16216.02216661464,0.8527211124681315,4.685585398483517
16.0,52828.225020807,21017.20126493242,0.8437745838032817,4.623183212372571
17.0,65665.99297350421,26830.042066989234,0.8343559695238871,4.565228042431546
18.0,80906.73975336105,34003.299381717596,0.8244288276149545,4.512292875536441
19.0,98694.8397525389,42984.94230630458,0.8139480323437386,4.465077623062719
20.0,119367.54877689088,54151.69539393232,0.8028575839427423,4.424429060004893
21.0,143385.1377072635,67712.58424722418,0.791088168948545,4.391361640126258
22.0,171100.4531216601,83791.82878066032,0.7785545699132064,4.367078409424047
23.0,202596.60442493536,102585.79002877734,0.765153156563666,4.3529904049838235
24.0,237766.34903383805,124332.72787976827,0.7507597492338899,4.3507330297784375
25.0,276432.3009126017,149167.35298558263,0.7352283506384767,4.36217693367793
26.0,318370.65311498434,176979.1597225692,0.7183913146636792,4.389431367421965
27.0,363218.1511572294,207383.78108912252,0.7000619014272006,4.434835217965952
28.0,410358.5122646508,239772.0182099286,0.6800398832497198,4.5009352770373106
29.0,458896.8314057641,273339.2308294003,0.6581212366265922,4.590447148237267
30.0,507704.1074232952,307086.052898265,0.6341124860818494,4.706198102347878
31.0,555472.9849099087,339831.78337972687,0.6078498436311723,4.85105170097568
32.0,600758.4393602558,370277.7425894697,0.5792224531379826,5.027816341478644
33.0,642017.9521302652,397118.65888920194,0.5481979609012944,5.239142311631159
34.0,677676.8109103224,419171.0555935986,0.5148474512424698,5.48741429849656
35.0,706224.0522784378,435490.16913225316,0.4793658042647349,5.774648079571925
36.0,726327.7615776871,445457.1416368518,0.4420831843764332,6.102400612477187
37.0,736951.8762029922,448825.77283668343,0.40346370043172464,6.471702624082451
38.0,737459.4904677825,445725.2667528753,0.3640892994629267,6.883019204021311
39.0,727680.2500158637,436622.27632781945,0.32462861508080676,7.336242467014414
40.0,707939.7213559224,422249.94610380253,0.28579385000407126,7.830716632393292
41.0,679041.491805007,403520.0179216825,0.24829111873028806,8.365288377193654
42.0,642203.1623567048,381430.8226521206,0.21277018930934555,8.938379429015729
43.0,598957.5602712972,356983.65142312413,0.17978100751918188,9.548071830077637
44.0,551030.3969013529,331116.6275965401,0.14974159390789582,10.192197965623542
45.0,500211.3617399864,304659.03028870147,0.1229206227633002,10.86842854695018
46.0,448233.1635192778,278305.88234681106,0.0994351407149955,11.574353083810736
47.0,396670.2586266394,252609.82666570984,0.07926170163649042,12.307549304857435
48.0,346864.7149563267,227985.9993105964,0.0622576929613999,13.065639783200842
49.0,299882.11392185645,204725.4775496069,0.048188809508549584,13.846335431835675
50.0,256495.81693516136,183013.29977185474,0.03675828253443793,14.647466686583767
51.0,217195.5134899579,162947.9415159919,0.02763509089632479,15.46700381252579
52.0,182216.02926470392,144560.12762135584,0.020479416326282925,16.30306829464964
53.0,151576.70977007016,127829.83749196472,0.014961944387296696,17.153936863279807
54.0,125127.58518648331,112700.74672824661,0.010778174185297982,18.018040080794083
55.0,102595.70580657701,99091.98562768793,0.00765718809174895,18.89395701249029
56.0,83628.69855180841,86907.40052101864,0.005366005319928534,19.780407217205425
57.0,67831.95133423468,76042.58293998083,0.003710128202154082,20.6762411157128
58.0,54798.992540383886,66390.07272538492,0.002531587721752084,21.58042951201478
59.0,44133.951477072995,57843.06269614479,0.0017052289747446553,22.492052852917755
60.0,35467.20973310448,50297.96166540569,0.0011341950246587585,23.410290642406636
61.0,28464.889706134618,43656.08483251438,0.0007451608698719781,24.334411291094685
62.0,22833.369257205548,37824.69418720013,0.00048375489960767316,25.26376257048818
63.0,18320.045306556352,32717.56297708243,0.00031044092674878426,26.197762769107147
64.0,14711.663858078371,28255.2134281875,0.00019701061106586483,27.135892595123465
65.0,11830.961242406393,24364.912971894628,0.00012369429139171968,28.077687823855992
66.0,9532.484900360363,20980.50835134996,7.687120185384614e-05,29.022732660432165
67.0,7698.160626602007,18042.15341855381,4.730971094574221e-05,29.970653781028478
68.0,6232.9553089153505,15495.965811839058,2.884962880832372e-05,30.921114996064233
69.0,5060.897715712625,13293.643844320992,1.744120954703058e-05,31.873812478935573
70.0,4121.561339048387,11392.062327576945,1.045961620548644e-05,32.828470503549454
71.0,3367.050084403763,9752.861199030414,0.0,33.78483762990455
72.0,2759.484748561867,8342.039400814012,0.0,34.74268328475008
73.0,2268.937002522963,7129.559383157163,0.0,35.70179468402232
74.0,1871.7624984181277,6088.969078099344,0.0,36.66197404740485
75.0,1549.2678967102129,5197.044175931642,0.0,37.623036060091
76.0,1286.6515780500863,4433.451881179541,0.0,38.584805537903975
77.0,1072.1758016931203,3780.4413481811616,0.0,39.54711525697081
78.0,896.5076451527109,3222.5544208292135,0.0,40.50980390709597
79.0,752.207806710331,2746.3621411721733,0.0,41.472714135421135
80.0,633.3328953739714,2340.2263737404564,0.0,42.435690642819154
81.0,535.1217861831002,1994.0831486131503,0.0,43.39857829773083
82.0,453.7506124909345,1699.2481904108768,0.0,44.36122023105953
83.0,386.14025999335325,1448.2428947632718,0.0,45.32345587486859
84.0,329.8041685428049,1234.6383271260156,0.0,46.28511890229695
85.0,282.72924245190785,1052.9173123637624,0.0,47.246035027406236
86.0,243.28174807243826,898.3528547449644,0.0,48.206019614350424
87.0,210.13257040012368,766.9013547716584,0.0,49.16487503918199
88.0,182.19768050466152,655.1086095142952,0.0,50.1223877306751
89.0,158.59076089233315,560.0268301805919,0.0,51.07832484253787
90.0,138.58541492703478,479.144239648798,0.0,52.03243041905125
91.0,121.58507690869067,410.3218553587979,0.0,52.98442099378876
92.0,107.09833937887221,351.7406548097891,0.0,53.93398045670539
93.0,94.71981797963397,301.8543952143595,0.0,54.880754036076965
94.0,84.11398889385013,259.3500434083681,0.0,55.824341198750204
95.0,75.00283779786382,223.11278774543715,0.0,56.764287254955775
96.0,67.1552372622326,192.19699070698744,0.0,57.70007324070429
97.0,60.378619111289034,165.8006176987325,0.0,58.6311039027154
98.0,54.51237067684393,143.2436090045478,0.0,59.55669303200214
99.0,49.421906268831194,123.94959392465987,0.0,60.476045726933215
100.0,44.9945220829783,107.4299182210977,0.0,61.388236709665456
101.0,41.13538756406054,93.27047624357115,0.0,62.2921834312913
102.0,37.764621194110845,81.12019394574475,0.0,63.186613019203726
103.0,34.81487455307012,70.68139788548595,0.0,64.07002052311057
104.0,32.229053328530654,61.70167522094598,0.0,64.94061644890911
105.0,29.95875956525999,53.96687493126862,0.0,65.79625985870325
106.0,27.962937863687603,47.29522673171294,0.0,66.6343717441759
107.0,26.206586165856272,41.53239494206432,0.0,67.4518218742899
108.0,24.659844551741802,36.547243990194076,0.0,68.24477877388262
109.0,23.29720447195006,32.22827760749197,0.0,69.00850698127643
110.0,22.09686034294594,28.480629532922936,0.0,69.73708723132205
111.0,21.040055708804836,25.22353793993639,0.0,70.4230216409546
112.0,20.110684360516544,22.388177317207685,0.0,71.056662180702
113.0,19.294902374780758,19.91584123508114,0.0,71.6253546095432
114.0,18.580783214758476,17.75640934357032,0.0,72.11210915793153
115.0,17.958048313340534,15.867047209900653,0.0,72.49344413667309
116.0,17.417814817171813,14.211111897456407,0.0,72.73569280532584
117.0,16.95239926763171,12.757222785482789,0.0,72.78826439742828
118.0,16.555169513296672,11.478472138641902,0.0,72.57031593604502
119.0,16.220381146939612,10.35176332402974,0.0,71.94142281057758
120.0,15.943058720037813,9.357245797232194,0.0,70.6275029301508
121.0,15.71893329225055,8.477833788128423,0.0,67.99177180021678
122.0,15.544301958101777,7.698806822876239,0.0,62.089172476502036
123.0,15.41595529295528,7.0074716247891455,0.0,45.54635055969483
124.0,15.306914140647706,6.419096988380964,0.0005453938536823236,24.59145124534039
125.0,14.94835500127473,6.264115256438974,0.01722829808603911,16.244779971850683
126.0,14.431327907319709,6.648895187514924,0.06562299063779825,12.290148997707009
127.0,14.160891250586587,7.301164203368903,0.1316622098721422,9.962814977591371
128.0,14.35660277152933,8.030634959009424,0.2008650866496147,8.431287268656318
129.0,15.089383159916329,8.74678696370103,0.2658031541433155,7.357918617600676
130.0,16.362816472021112,9.412465241590313,0.32364746130287814,6.57641407970902
131.0,18.13364986117719,10.042028381721929,0.3738705070283283,5.993819414976566
132.0,20.245832740813032,10.828720642144708,0.4169630868833643,5.553364031813664
133.0,22.702585301066765,11.931605246969461,0.4537941127398229,5.218056769645844
134.0,25.699621711466325,13.380529246914909,0.48530807661170544,4.96258068208371
135.0,29.496456918249585,15.161216357396338,0.5123919030416995,4.768930974515386
136.0,34.364857449515355,17.258002392867137,0.535824171943274,4.623912515645538
137.0,40.54227526390698,19.7244969379164,0.5562636614851901,4.517620147017216
138.0,48.283657076557716,22.697932810597216,0.5742555365298988,4.442474445717374
139.0,57.968416776738174,26.34138315948381,0.5902445030986981,4.392586200371765
140.0,70.14734245665606,30.822562594673673,0.6045897743847047,4.363323567936453
141.0,85.56200054623103,36.31801528077645,0.6175794762460117,4.351008715624886
142.0,105.15230960560285,43.048231880719136,0.6294435169070112,4.3526997853908185
143.0,130.1015689676887,51.31488092988613,0.6403646344557419,4.36603061213621
144.0,161.93524662650606,61.518048725712205,0.6504876558530663,4.3890905325893295
145.0,202.65282401416013,74.16735403170858,0.6599271415979313,4.420332619569745
146.0,254.88368344427892,89.8980412296919,0.6687736277175869,4.458502577328264
147.0,322.0690771436669,109.50526456447811,0.6770986841607486,4.502582893789669
148.0,408.6937197160022,133.9980613302991,0.6849589914408966,4.551748444986411
149.0,520.599016370244,164.6668540215907,0.6923996063170981,4.605330889375638
150.0,665.4040746890673,203.16317457992892,0.6994565625074929,4.662789926244309
151.0,853.0578507501638,251.5945885996437,0.7061589343554472,4.723689914929152
152.0,1096.5502985839055,312.6437390694381,0.7125304643390536,4.787680779394717
153.0,1412.823487775926,389.72335013687945,0.7185908376999898,4.854482389076296
154.0,1823.9396154586293,487.17728301489166,0.7243566754956728,4.923871737630688
155.0,2358.5830817169085,610.5369419180796,0.729842302333951,4.995672406496643
156.0,3053.9922724545722,766.8441496852325,0.7350603341451883,5.06974592272899
157.0,3958.4282415028974,965.0547121573746,0.7400221243104107,5.145984666049254
158.0,5134.31075874748,1216.541715675626,0.7447380984047712,5.224306050716096
159.0,6662.185698861829,1535.7250495138221,0.7492180015510155,5.304647773314398
160.0,8645.712850717124,1940.85875585606,0.7534710783045531,5.386963937959612
161.0,11217.903905918618,2455.010804896504,0.7575062007197253,5.471221903820392
162.0,14548.900911868595,3107.2783254846718,0.7613319568098168,5.557399737636618
163.0,18855.61581429182,3934.28795206397,0.7649567093203985,5.645484166193678
164.0,24413.587678814252,4982.034628951471,0.7683886325302487,5.735468940903653
165.0,31571.500918628288,6308.12793098863,0.771635732966313,5.827353548776909
166.0,40768.83405836318,7984.527117998568,0.7747058586959691,5.921142212885454
167.0,52557.115328597436,10100.84867702735,0.7776067007881645,6.0168431347726505
168.0,67625.38647252352,12768.350262084557,0.7803457895658299,6.1144679440253284
169.0,86830.47686807271,16124.70991074078,0.7829304876650731,6.214031327146802
170.0,111232.6086010393,20339.71316358111,0.7853679814549094,6.315550812970057
171.0,142136.99683470064,25621.980998592044,0.7876652718454185,6.419046699193157
172.0,181142.03757476975,32226.89107840553,0.7898291652245121,6.524542110445285
173.0,230194.41034489352,40465.82275620704,0.7918662651222722,6.632063180964049
174.0,291651.5495628271,50716.867994882574,0.7937829649088639,6.741639359215012
175.0,368351.75896396884,63437.17339322744,0.7955854416817645,6.853303837349912
176.0,463691.6914523794,79177.02647647198,0.7972796515196339,6.967094109573226
177.0,581710.9800259384,98595.77898419424,0.7988713261214118,7.083052665676935
178.0,727183.5702267399,122479.7186998418,0.8003659707347216,7.201227832136204
179.0,905714.0466007981,151761.909576876,0.8017688633940205,7.321674773888409
180.0,1123838.1496619743,187543.92720651472,0.8030850553541866,7.444456668703882
181.0,1389124.833398145,231119.4191843308,0.8043193726123948,7.56964607476141
182.0,1710277.3790271883,283999.2677357701,0.8054764184105988,7.697326509782486
183.0,2097230.2841501096,347937.9736224606,0.806560576636821,7.827594259953967
184.0,2561238.381915379,424960.80779661814,0.8075760159755273,7.960560441437357
185.0,3114953.593570089,517391.01809148997,0.8085266947419466,8.096353332983583
186.0,3772483.926999168,627876.3501747347,0.809416366246761,8.235121008187065
187.0,4549431.4201336745,759413.4798676975,0.8102485846986228,8.377034265077494
188.0,5462901.053754585,915369.2133011259,0.8110267115034772,8.522289877704747
189.0,6531476.418188933,1099497.1129682004,0.8117539217584053,8.671114201971607
190.0,7775158.3068699995,1315946.59950091,0.8124332112501306,8.823767048389515
191.0,9215257.700518392,1569263.9552414964,0.813067403350211,8.980545939103889
192.0,10874241.80526741,1864380.9749146008,0.8136591563985192,9.14179055070913
193.0,12775530.577878665,2206590.2300328016,0.8142109709248339,9.30788744048392
194.0,14943237.5647984,2601503.291442587,0.8147251970984172,9.479274882071763
195.0,17401858.68123888,3054989.4308135686,0.8152040422303216,9.656447710433387
196.0,20175910.967954945,3573092.4158341144,0.8156495783097846,9.839962017319257
197.0,23289520.016908515,4161923.4198326664,0.8160637495266634,10.030439548620617
198.0,26765971.808829807,4827528.633477948,0.8164483798676605,10.228571448084187
199.0,30627221.399596628,5575731.983655335,0.8168051807345723,10.43512116402216
200.0,34893387.81168329,6411951.919649313,0.8171357582546901,10.650926259284756
201.0,39582251.55883112,7341002.449283136,0.8174416212730052,10.876898112449053
202.0,44708727.728004985,8366869.897895395,0.817724188177012,11.114020473618547
203.0,50284394.69263575,9492491.898000108,0.8179847947733636,11.363344712596811
204.0,56317094.64614746,10719540.015558906,0.8182247013807047,11.625982616303926
205.0,62810340.38590355,12048168.66428115,0.8184450990431038,11.903097024340557
206.0,69763289.53813641,13476915.566705836,0.8186471186351609,12.195886417546609
207.0,77170440.40369424,15002503.749116018,0.8188318343237205,12.505569327627924
208.0,85021384.26951022,16619781.03722053,0.8190002714902251,12.833363776789414
209.0,93301104.67582491,18321725.261302024,0.8191534105616176,13.180463972832573
210.0,101989867.60978264,20099508.393575855,0.8192921929458964,13.548015423809503
211.0,111063547.20537019,21942656.86359706,0.8194175246398119,13.937088484176977
212.0,120493991.18166621,23839289.187226553,0.819530279436826,14.348651925278833
213.0,130249490.68370801,25776424.460703455,0.8196313013084996,14.783547735914658
214.0,140295339.6515249,27740345.980058454,0.8197214059585276,15.242468495078032
215.0,150594464.84372237,29716999.136118274,0.8198013815876577,15.725938590735744
216.0,161108104.38979548,31692399.840497345,0.8198719889471658,16.234300368772672
217.0,171796511.39575782,33653028.41331451,0.8199339607943591,16.767705998167443
218.0,182619657.23311964,35586186.86956831,0.8199880008917939,17.326115461721876
219.0,193537911.37879258,37480300.031915516,0.8200347827095065,17.90930066800379
220.0,204512691.59197426,39325147.02618171,0.8200749479797541,18.51685543934802
221.0,215506995.4685662,41112020.03017066,0.8201091053503828,19.148209909752385
222.0,226485909.80004007,42833804.707870305,0.8201378291128455,19.802649467381237
223.0,237417020.9698869,44484998.32115882,0.8201616580290954,20.47933580068036
224.0,248270719.0561332,46061641.87454829,0.8201810951067627,21.177331170058025
225.0,259020437.10920477,47561232.22533135,0.8201966070976671,21.895620783832207
226.0,269642622.2859893,48982564.259608485,0.820208625509444,22.633136175380958
227.0,280117022.2466701,50325632.882930584,0.8202175451353081,23.38877558923642
228.0,290426563.1705788,51591398.17262735,0.8202237270152415,24.161424917060145
229.0,300556936.42264545,52781603.7830625,0.8202275009382598,24.949972476888195
230.0,310497167.2843033,53898717.31332464,0.8202291610460872,25.753328329691648
231.0,320238550.4935415,54945624.91882657,0.8202289770567028,26.57042618917159
232.0,329775222.2790565,55925629.027657196,0.8202271861981403,27.400245891863396
233.0,339103464.3180554,56842248.60283193,0.8202240031702969,28.24180638211892
234.0,348221582.8302222,57699144.601303436,0.8202196174330157,29.094180798452786
235.0,357129878.4183255,58500038.55079737,0.8202141964378632,29.95649526653751
236.0,365830012.74940395,59248635.79798292,0.8202078894690608,30.827926383088414
237.0,374325305.54141134,59948568.61915569,0.8202008252979074,31.707712722241
238.0,382620042.4904096,60603381.88284508,0.8201931193833153,32.595137026088715
239.0,390719681.74629974,61216458.52195413,0.8201848700300348,33.489543653845075
240.0,398630444.26764315,61791053.23925106,0.8201761645501507,34.39031879187135
241.0,406359263.1642321,62330234.18146044,0.8201670775695261,35.29690071831994
242.0,413913674.20672613,62836904.13911077,0.8201576737331235,36.20877049980609
243.0,421301602.07664305,63313799.69445429,0.8201480091071066,37.12544840880808
244.0,428531399.2197964,63763462.0694483,0.8201381305930762,38.046498417605505
245.0,435611611.3588605,64188299.11096302,0.8201280794769338,38.971512677027796
246.0,442551042.62750465,64590523.02095859,0.8201178893685083,39.90012328842641
247.0,449358598.582028,64972236.49863436,0.8201075898942688,40.831983928035804
248.0,456043295.4796032,65335355.20673691,0.8200972043854651,41.76678391755392
249.0,462614188.12517583,65681712.09938497,0.820086753510309,42.70422805659848
250.0,469080368.8988242,66012976.915517144,0.8200762529808359,43.64405103361991
251.0,475450928.1628797,66330750.64285559,0.8200657165262496,44.58599987997381
252.0,481734950.15189505,66636496.88709283,0.8200551540433976,45.52984608711655
253.0,487941488.1777335,66931620.58107901,0.8200445738944019,46.475371351193516
254.0,494079600.12955993,67217433.50755244,0.8200339819356748,47.42237384717628
255.0,500158299.2041583,67495179.3964299,0.8200233823252099,48.37066348533067
256.0,506186616.2978834,67766054.1750307,0.82001277794104,49.320058697907335
257.0,512173564.27333987,68031181.59026816,0.8200021698163972,50.270390638901276
258.0,518128166.073116,68291669.71167591,0.8199915585625867,51.22149328920009
259.0,524059509.1174287,68548576.16095182,0.8199809432997544,52.17321021823953
260.0,529976698.4545125,68802941.61899628,0.8199703226361161,53.12538828591106
