Time,J,A,S,tau
0.0,100.0,100.0,0.893215943878429,10.309278350515463
1.0,195.97053065676255,595.3549225103352,0.8686844183273814,9.593422151866642
2.0,1046.267786107729,1059.5098641514385,0.8430527025168429,8.847243223511331
3.0,2484.198179894887,1493.4786634034647,0.81636587660325,8.07116886217613
4.0,4358.377166964925,1898.0908120966808,0.7886786080295491,7.265850546546125
5.0,6532.597943943369,2274.006728930284,0.7600555091122151,6.432222382075926
6.0,8929.048531631694,2569.3579344751492,0.7355713319276579,5.748962505889877
7.0,11133.108562541778,3115.0851876619026,0.7273920128598091,5.655580845053346
8.0,13350.277955852334,4230.7715373834535,0.7188986289813148,5.5695009755062
9.0,16117.531707825578,5750.512880129372,0.7100410123963324,5.491514264367751
10.0,19669.466984383424,7535.036337515809,0.700757161335893,5.42256866340596
11.0,24027.178533625243,9468.58134725252,0.6909714571866589,5.363787433630627
12.0,29085.660434226887,11426.014396148945,0.6805930146850138,5.316486887731365
13.0,34392.05881983031,13656.459727142272,0.6695143923145179,5.282191674633176
14.0,39722.060955635636,16478.232125220733,0.6576109734619022,5.262645828789676
15.0,45181.164725372255,19953.960840080108,0.6447414202948741,5.259817387213279
16.0,50925.36362410133,23988.444132550292,0.6307497080793973,5.27589374295922
17.0,57032.63598055773,28398.46997656138,0.6154692467669446,5.313265508993007
18.0,63447.5230782899,32974.93964358307,0.5987296203306608,5.374496141000552
19.0,69909.99956947101,37644.25995685711,0.5803663032695047,5.462275584344847
20.0,76132.25195818538,42391.77910421054,0.5602334104918258,5.579357220138353
21.0,81904.65432982451,47161.57353028198,0.5382191198696066,5.728479094761353
22.0,87088.27527573908,51840.36591168892,0.5142627129862609,5.91227202464857
23.0,91582.00508703294,56278.68545002257,0.48837154436606356,6.133160327969793
24.0,95298.65033352315,60320.43104503744,0.46063571264856984,6.393261565436278
25.0,98151.68996362855,63833.788998682,0.4312378383617755,6.694293833383221
26.0,100057.67590141862,66731.67448921282,0.40045555870519167,7.037499141535792
27.0,100953.30867117258,68972.1145945984,0.3686554195298221,7.423587774075035
28.0,100808.78337799279,70551.36790638554,0.3362768401009644,7.85271614298551
29.0,99633.8498312556,71496.57819526817,0.3038088521253791,8.324486849797562
30.0,97477.14507956989,71858.00391743646,0.2717604228681631,8.837985567194766
31.0,94422.16040519036,71701.74507957722,0.2406290896902541,9.391834634444907
32.0,90580.47682979189,71102.66870821592,0.2108709706686011,9.984269288858101
33.0,86083.89571129577,70138.25623659011,0.18287596739430934,10.613221992801552
34.0,81076.11788581427,68883.62528315726,0.15695012495402066,11.27640960696448
35.0,75704.60044478362,67407.98275835058,0.13330608894246893,11.971417679663968
36.0,70113.23399837065,65772.43207602167,0.11206220023725076,12.69577635032339
37.0,64436.26216344906,64028.95110345956,0.09324862736873103,13.447025135002976
38.0,58793.58804962423,62220.33949260213,0.07681800169042861,14.222765196303644
39.0,53287.684844779025,60380.788083758474,0.06265998922466685,15.020698934590218
40.0,48002.11516493853,58536.79514875231,0.05061771683209725,15.838658200668922
41.0,43000.995747057146,56708.3195889281,0.040501884850184584,16.674621829512237
42.0,38329.9445185872,54909.89820417993,0.03210596239082673,17.526725086010167
43.0,34017.642373610724,53151.72253171767,0.02521804527091261,18.393262209270198
44.0,30077.928689410226,51440.58955692148,0.01963039330669914,19.27268379687638
45.0,26512.185795517053,49780.703178810116,0.015146534680922379,20.163590756203586
46.0,23311.853268529383,48174.33182853246,0.011586170098912612,21.064725705612503
47.0,20460.76697985022,46622.33316564708,0.008787838850003012,21.974962913940825
48.0,17937.393953493407,45124.55960441539,0.00661018323920489,22.893297612072566
49.0,15716.749017872897,43680.16812261331,0.004931835242622252,23.818835089894083
50.0,13772.01170732864,42287.85133813786,0.0036504222521512126,24.750780021599848
51.0,12075.815327196633,40946.00693018056,0.0026809720778022145,25.688426276738994
52.0,10601.276016570893,39652.859482401116,0.001954043905263951,26.63114739132953
53.0,9322.713381088477,38406.54687086016,0.001413676906234359,27.578387766302857
54.0,8216.14334168039,37205.18010473099,0.0010153689062641072,28.529654627456864
55.0,7259.571131505805,36046.883835974746,0.000724170654623383,29.48451075769906
56.0,6433.141843272033,34929.8229841866,0.000512968774475425,30.44256796979583
57.0,5719.159177118119,33852.21952966363,0.00036096700085258673,31.40348127158134
58.0,5102.0201438964705,32812.36241577816,0.00025238783695471476,32.36694367266395
59.0,4568.091208791618,31808.61271879074,0.0001753862271342452,33.33268157962925
60.0,4105.549154162356,30839.405623376955,0.00012115864703820903,34.3004507222125
61.0,3704.206130582457,29903.25029001313,8.32256643839591e-05,35.270032553324704
62.0,3355.322720606952,28998.728339373967,5.6861360608337106e-05,36.24123107016094
63.0,3051.4350466867536,28124.491533434673,3.865034692108614e-05,37.21387001162383
64.0,2786.185443264184,27279.258951007112,2.6145024814439215e-05,38.18779038278437
65.0,2554.169163185144,26461.813921911897,1.7605637864404645e-05,39.16284826799672
66.0,2350.796931705883,25671.000871034063,1.1805194461703492e-05,40.1389128955876
67.0,2172.173662426968,24905.72217226311,0.0,41.11586492122319
68.0,2014.9930392135457,24164.935076412843,0.0,42.093594900661536
69.0,1876.4466838314145,23447.648749268737,0.0,43.07200192549223
70.0,1754.1471220336941,22752.92144659833,0.0,44.0509923988609
71.0,1646.061498668521,22079.857820417557,0.0,45.030478929408275
72.0,1550.4567512932656,21427.606380794965,0.0,46.010379325665006
73.0,1465.8530617548595,20795.357094186842,0.0,46.99061567299446
74.0,1390.9845897721877,20182.339124994465,0.0,47.97111347850594
75.0,1324.7662343334207,19587.818679996093,0.0,48.9518008676224
76.0,1266.268721648769,19011.097053557933,0.0,49.93260782311028
77.0,1214.6912884522492,18451.508650342934,0.0,50.91346544874469
78.0,1169.3527562883462,17908.41941596658,0.0,51.89430524928435
79.0,1129.6592930195973,17381.224804353806,0.0,52.8750584161507
80.0,1095.105224306231,16869.3485825644,0.0,53.85565509630621
81.0,1065.259123358862,16372.241192196881,0.0,54.836023647440015
82.0,1039.7508733663767,15889.37838609202,0.0,55.81608984396803
83.0,1018.2414884110818,15420.259341373203,0.0,56.79577607612534
84.0,1000.5435032742959,14964.40797054983,0.0,57.77500041195848
85.0,986.3867711655298,14521.367767074484,0.0,58.75367564354686
86.0,975.583155548544,14090.703250570159,0.0,59.73170819728524
87.0,967.9809280351303,13671.99837965437,0.0,60.708996945214075
88.0,963.4605501040134,13264.855574500563,0.0,61.68543186186636
89.0,961.9317983394783,12868.89479908815,0.0,62.6608925074658
90.0,963.336683507739,12483.752856787116,0.0,63.63524625343749
91.0,967.6395647583771,12109.08239596782,0.0,64.6083462421059
92.0,974.825011427634,11744.551031813964,0.0,65.58002913272821
93.0,984.9005366697583,11389.84070090021,0.0,66.55011244455308
94.0,997.8956528535108,11044.646966997261,0.0,67.51839147516861
95.0,1013.8612216100829,10708.678363237477,0.0,68.48463571256391
96.0,1032.870519694108,10381.655809439158,0.0,69.44858461657759
97.0,1055.022151548589,10063.31212864337,0.0,70.4099424601172
98.0,1080.4305815417467,9753.391210965265,0.0,71.36837251732875
99.0,1109.234533793418,9451.647690797046,0.0,72.32348996371202
100.0,1141.5886059909785,9157.846166639181,0.0,73.27485442027256
101.0,1177.670443537492,8871.760949936053,0.0,74.22195906695616
102.0,1217.683838746926,8593.17562550022,0.0,75.16421928925695
103.0,1261.8560846738912,8321.88255764029,0.0,76.10095837357028
104.0,1310.438899378558,8057.6824764850635,0.0,77.03139029265536
105.0,1363.70940646028,7800.384084270485,0.0,77.95459878031467
106.0,1421.9711625125024,7549.803680419166,0.0,78.86951174978252
107.0,1485.555218106301,7305.764804315747,0.0,79.77486981985258
108.0,1554.8211953104305,7068.097894750497,0.0,80.66918731266583
109.0,1630.1583613242542,6836.63996506815,0.0,81.55070352661743
110.0,1711.986674366744,6611.2342931196645,0.0,82.41732128818492
111.0,1800.757774434462,6391.730125171572,0.0,83.26652862235872
112.0,1896.9558878710689,6177.982392981091,0.0,84.09529764912541
113.0,2001.0986108771228,5969.851443295603,0.0,84.89995217376492
114.0,2113.737533160399,5767.202779082496,0.0,85.67599131075805
115.0,2235.4586589405576,5569.906811840158,0.0,86.41784984109962
116.0,2366.882578559703,5377.838624383118,0.0,87.11856498629304
117.0,2508.6643401198467,5190.877743534236,0.0,87.7693003661906
118.0,2661.492967000631,5008.907922194637,0.0,88.35864414862563
119.0,2826.0905639613015,4831.81693029781,0.0,88.87153542784279
120.0,3003.210951977868,4659.496354188267,0.0,89.28754920211762
121.0,3193.638246055469,4491.841414991796,0.0,89.57799710548571
122.0,3398.1885859845897,4328.750872987768,0.0,89.7007926221065
123.0,3617.692321692088,4170.126563876739,0.0,89.59026174658217
124.0,3853.004637902891,4015.873479847878,0.0,89.1360688372678
125.0,4104.995472923276,3865.899526719676,0.0,88.12994037344674
126.0,4374.545547977004,3720.1153814173235,0.0,86.10726347534775
127.0,4662.539913005205,3578.434346216714,0.0,81.67790547983329
128.0,4969.860385360664,3440.772195300892,0.0,67.09708626324914
129.0,5296.391343589404,3308.080742287483,0.0008812020598165588,28.479301261530427
130.0,5598.774320296482,3232.7913150575773,0.027578627624896112,17.497576028322428
131.0,5847.853944812422,3288.4574959995707,0.08480340016795739,13.182108443369202
132.0,6115.6991831109235,3460.704817694986,0.15039184933800412,10.76756537202877
133.0,6482.127773561778,3718.0798487036263,0.21334072000305418,9.21105494365471
134.0,7011.49741137818,4035.4521399768955,0.26978493783971036,8.132105873983816
135.0,7755.690154179555,4394.9116582547285,0.3188826846097208,7.352450213376314
136.0,8759.083112956674,4783.9739876081485,0.36099614592630414,6.77514860698928
137.0,10052.703483197343,5205.877433708134,0.3969166826981072,6.341985001643795
138.0,11652.014217512628,5701.458310357062,0.4275332532376074,6.015441121057739
139.0,13610.481476262445,6313.035354471336,0.4536937943779553,5.770026770174862
140.0,16031.921528137982,7072.073597509223,0.47615293046027285,5.587709369813866
141.0,19065.9539791975,8003.209814427666,0.49555863001832334,5.455320360225261
142.0,22906.89891089991,9127.618704163602,0.5124559278934722,5.362997225131405
143.0,27791.93865828246,10471.350223725476,0.5272974560760233,5.303202424430864
144.0,34005.98502526288,12079.966137331676,0.5404559646171441,5.270080737438529
145.0,41911.50461786329,14020.515612896155,0.5522366338727234,5.259023845059378
146.0,51987.4118310927,16379.45356268457,0.56288825029876,5.266366631836497
147.0,64871.98285629063,19262.056505068103,0.5726129534991697,5.289169711934617
148.0,81411.69107064458,22793.405130150277,0.5815745067336364,5.325060569434898
149.0,102717.2448788074,27124.04146629145,0.5899052523621722,5.372114673020933
150.0,130235.24545074218,32441.738399988226,0.5977118846989352,5.428765220802162
151.0,165849.3608642966,38985.21029879188,0.6050802152090419,5.493733505245127
152.0,212019.35040836738,47058.77673361389,0.6120790952439876,5.56597437864316
153.0,271966.2040210422,57048.49679373596,0.6187636334657024,5.644633059316752
154.0,349913.31232485024,69440.43094023774,0.6251778263575938,5.729010605359208
155.0,451394.5968054863,84843.05665637138,0.6313567074081494,5.818536047442267
156.0,583646.2475212327,104017.0467190288,0.6373281009116925,5.912743718107686
157.0,756108.2364426884,127914.49984710298,0.6431140484294593,6.01125473507355
158.0,981068.6316846928,157729.10145717306,0.6487319679305565,6.113761796942275
159.0,1274490.1385815889,194958.674610662,0.6541955951329187,6.220016633686748
160.0,1657068.2519890557,241481.81127831596,0.6595157451455994,6.329819639254761
161.0,2155577.326707727,299650.69594002824,0.6647009275077034,6.443011290438492
162.0,2804565.077156792,372403.22894638637,0.6697578422898932,6.55946502423747
163.0,3648473.022311823,463398.9601252968,0.6746917787622793,6.67908132561743
164.0,4744274.018045604,577184.6607647839,0.6795069346254548,6.801782823873157
165.0,6164725.817940903,719395.8800205414,0.6842066710708378,6.927510221653011
166.0,8002365.045162088,897000.8759421192,0.6887937157366514,7.056218914695188
167.0,10374386.614182206,1118594.5108421536,0.6932703233031628,7.18787619260136
168.0,13428555.96060817,1394749.8046448345,0.6976384020468038,7.3224589223680665
169.0,17350311.408410437,1738433.9279773973,0.7018996129974264,7.459951631818323
170.0,22371242.05526494,2165496.7869382584,0.7060554469477696,7.600344930084701
171.0,28779110.210230853,2695241.772843568,0.7101072837793239,7.743634209782195
172.0,36929546.28138843,3351087.27686822,0.7140564376915509,7.889818583807001
173.0,47259599.43301805,4161327.968357867,0.7179041911122009,8.03890001930301
174.0,60303276.60499163,5160006.912623155,0.7216518196564892,8.190882638487864
175.0,76709086.5945753,6387908.127577916,0.7253006100388555,8.345772160523483
176.0,97259674.35899039,7893674.121673372,0.7288518723665086,8.503575462574982
177.0,122893548.26258545,9735055.741920156,0.7323069480570392,8.664300243978257
178.0,154728693.0412147,11980298.721612537,0.7356672143773264,8.827954780217576
179.0,194087886.08437175,14709657.946711943,0.7389340863175377,8.994547754908076
180.0,242525348.9076158,18017039.446324773,0.742109016465762,9.164088162255691
181.0,301854313.55609226,22011752.508865234,0.7451934933468156,9.336585272911593
182.0,374174919.10147685,26820351.368063558,0.748189038614462,9.51204865832731
183.0,461901205.8757546,32588555.06183881,0.7510972034639184,9.690488271673573
184.0,567787043.1842328,39483190.43676114,0.7539195644196445,9.871914580586921
185.0,694949376.2748233,47694136.22015024,0.7566577187618669,10.056338752223972
186.0,846887596.2770185,57436213.05270869,0.7593132797368053,10.243772889703303
187.0,1027498256.0381376,68950952.4418337,0.7618878716432815,10.434230318680319
188.0,1241082842.0118861,82508238.17942952,0.7643831249501833,10.627725928020876
189.0,1492349294.5175636,98407596.27978171,0.7668006714185904,10.824276557096375
190.0,1786403474.4311345,116979277.02951437,0.7691421394182795,11.023901442572754
191.0,2128730074.5174704,138584855.06664854,0.7714091494162076,11.226622713508625
192.0,2525167153.3600626,163617216.58958623,0.773603309603449,11.432465938023768
193.0,2981861321.390225,192500192.64728215,0.7757262119106786,11.641460732225411
194.0,3505218990.8270364,225687178.0729931,0.7777794281684414,11.853641410231074
195.0,4101838994.202954,263659203.35038593,0.7797645066551165,12.069047693017952
196.0,4778439045.81506,306921889.8573179,0.7816829689097081,12.287725458061589
197.0,5541765476.583837,356001647.55646044,0.7835363069155903,12.509727539880611
198.0,6398499942.131452,411440556.89460105,0.7853259806091663,12.73511455760599
199.0,7355148815.259494,473790549.50341594,0.787053415806059,12.963955779573697
200.0,8417931707.6574545,543606217.217999,0.7887200024420739,13.196330011150442
201.0,9592669132.93251,621436347.3587373,0.7903270932216278,13.43232648152376
202.0,10884664032.191694,707814744.5400851,0.791876002824766,13.672045692710014
203.0,12298579204.277407,803249867.2572199,0.7933680072091892,13.915600340204827
204.0,13838312770.2172,908214702.9769353,0.7948043438832466,14.163116044427976
205.0,15506950619.893467,1023131397.9693958,0.7961862118795255,14.414732100921666
206.0,17306588498.670433,1148363081.9747884,0.7975147729280835,14.670602169413408
207.0,19238298948.049774,1284198738.4607632,0.7987911526787431,14.930894706795762
208.0,21302058803.5105,1430840599.002075,0.8000164424156055,15.195793331577297
209.0,23496677142.597466,1588392498.5906565,0.8011917012258273,15.465497037374778
210.0,25819807342.502056,1756845823.030204,0.8023179586665822,15.74022001816042
211.0,28267890666.255974,1936073759.6307685,0.8033962181113163,16.020191260006854
212.0,30836134000.916084,2125822561.8027651,0.8044274598705621,16.30565414413293
213.0,33518675700.827232,2325694427.042898,0.8054126445784704,16.596865338878825
214.0,36308589753.08839,2535147660.4637733,0.806352717564398,16.89409339582141
215.0,39197938195.1797,2753496832.906342,0.8072486130520524,17.197617100610664
216.0,42177789854.30405,2979921408.4496965,0.8081012588176228,17.507723517780203
217.0,45238536264.55528,3213448976.710734,0.8089115794974419,17.82470543931472
218.0,48369836333.73253,3452982869.7674494,0.8096805018475921,18.14885864597341
219.0,51560818698.270134,3697307630.688692,0.8104089585650078,18.480478738413368
220.0,54800231958.34832,3945104210.1589656,0.8110978921169134,18.8198576917138
221.0,58076593631.36687,4194969108.2778983,0.811748258239491,19.167280168122335
222.0,61378343165.22093,4445436843.26995,0.8123610289409522,19.523019647051598
223.0,64693993555.73884,4695004184.065853,0.8129371949398077,19.887334449851743
224.0,68012276441.34447,4942157045.114057,0.8134777674617143,20.26046374385779
225.0,71322279229.42119,5185397957.63641,0.813983779335568,20.642623615617833
226.0,74613570104.32574,5423274093.377484,0.8144562853500856,21.034003304984346
227.0,77876309427.59056,5654404926.391534,0.8148963618550649,21.4347616895624
228.0,81101345138.34233,5877508700.568421,0.815305105615741,21.845024102777334
229.0,84280292073.21066,6091425173.048304,0.8156836319437362,22.264879569123785
230.0,87405586411.76572,6295139162.072331,0.8160330720218285,22.69437846768958
231.0,90470536196.78598,6487794999.382414,0.8163545701867534,23.133530950140464
232.0,93469367985.52203,6668706022.653729,0.8166492803061731,23.582305209037028
233.0,96397210751.8817,6837375456.455621,0.8169183613312843,24.040626638213784
234.0,99250024987.24248,6993503182.017526,0.8171629727440463,24.508378850109338
235.0,102024737645.23404,7136946404.60194,0.8173842726410463,24.98540418985433
236.0,104719134175.13493,7267791439.818117,0.8175834083881047,25.471498446469564
237.0,107331766063.91582,7386228282.344802,0.817761520433961,25.96642595002599
238.0,109861983966.3129,7492707745.4196615,0.8179197256011224,26.469900918655117
239.0,112310026439.90312,7587674264.581188,0.8180591297546564,26.981611170159034
240.0,114676424000.9191,7671888075.051084,0.8181808070607771,27.50120234073166
241.0,116962417049.87845,7746156784.677147,0.8182858098838537,28.02829138152431
242.0,119169927874.78221,7811366583.994663,0.8183751582114814,28.56246079250351
243.0,121301193126.16382,7868528659.563064,0.818449841701951,29.103266307211797
244.0,123358930759.29146,7918702417.137485,0.8185108169591142,29.650236591167715
245.0,125346248992.97684,7962995817.013834,0.8185590045249105,30.202874332616002
246.0,127266541656.35289,8002566631.048578,0.8185952893321586,30.76065895989196
247.0,129123493941.94313,8038586764.287442,0.8186205213512961,31.32304839831479
248.0,130921037616.73096,8072240799.70734,0.8186355135830496,31.889479075652886
249.0,132663302400.13866,8104721387.356826,0.8186410424930134,32.459366852828026
250.0,134354612140.3201,8137208761.396203,0.8186378505118127,33.03210846803226
251.0,135999444742.01474,8170877669.138963,0.8186266458742639,33.60708117064512
252.0,137602428510.99274,8206889337.460599,0.8186081025312936,34.18364169080096
253.0,139168356005.7813,8246378676.555481,0.8185828636549584,34.761126878988414
254.0,140702159118.79263,8290463466.761877,0.8185515429540674,35.33885293967776
255.0,142208894155.87637,8340257186.139265,0.8185147246736385,35.91611277498249
256.0,143693824520.4686,8396839323.671565,0.8184729668429643,36.49217519406354
257.0,145162404607.80267,8461269464.5573,0.8184268036329476,37.06628378088861
258.0,146620242217.23428,8534624505.318099,0.818376746003662,37.63765320145719
259.0,148073240454.56326,8617955467.459444,0.818323283971706,38.20546607825544
260.0,149527612340.0924,8712296829.751951,0.8182668895522351,38.768871565272974
261.0,150989842991.64368,8818712670.827175,0.8182080180198253,39.32698122723529
