Time,J,A,S,tau
0.0,100.0,100.0,0.6173813301874066,30.3030303030303
1.0,1261.749218886381,729.8627905647086,0.5940101691775644,30.043236988181825
2.0,4915.699086556163,1301.0246821993885,0.5713140715429522,29.784605598990176
3.0,10651.267206330012,1817.2444532630323,0.5492833508836751,29.527248621560652
4.0,18098.690852502947,2282.08955644924,0.5279078947679439,29.27127786852357
5.0,26926.034134644564,2698.9414277491032,0.5071773798788463,29.016805975834743
6.0,36836.35529355937,3071.003921357194,0.4870812846906291,28.763946143706892
7.0,47565.04328732471,3401.3113120288936,0.4676089029002967,28.512811862531326
8.0,58877.300416149745,3692.736014707266,0.44874935646450387,28.263516624476733
9.0,70565.75799575051,3947.996065633047,0.4304916087857123,28.01617362184387
10.0,82448.28886786093,4169.6618922083235,0.4128244793749697,27.770895432284863
11.0,94365.89094475923,4360.163217272025,0.3957366572039485,27.52779369316549
12.0,106180.70340160152,4521.795720736441,0.3792167129776857,27.286978765831215
13.0,117774.21438204385,4656.726783492506,0.36325311661322773,27.048559392607352
14.0,129045.54247883502,4767.001437079958,0.34783424804052887,26.812642336827388
15.0,139909.78072709343,4854.548266190286,0.33294841493767435,26.579332039613067
16.0,150296.4490649223,4921.1855975059125,0.3185838550386541,26.348730247979162
17.0,160148.30386088492,4968.624303203084,0.3047287700644101,26.12093564548174
18.0,169419.85451925258,4998.474570952276,0.29137132837993235,25.89604350384349
19.0,178076.16296382505,5012.250701018424,0.27849967432591916,25.674145305402522
20.0,186091.772333561,5011.3749398324435,0.26610195120049557,25.455328397948957
21.0,193449.60935063794,4997.182658742492,0.25416630494781345,25.23967563500077
22.0,200140.0302023226,4970.92655291199,0.24268089736001586,25.027265039562792
23.0,206159.99708440283,4933.7796272363075,0.23163392725426993,24.818169443911415
24.0,211512.27898264438,4886.838300994058,0.2210136559102709,24.61245617674917
25.0,216182.9940247558,4835.273859219164,0.2146415550573925,24.53194159693826
26.0,220454.37017930296,5168.037010768543,0.2123525786129449,24.580002193530138
27.0,225983.1237838959,5936.6044065526885,0.2100716724287394,24.63001255904547
28.0,234208.79263242875,7058.030970885154,0.20779996385901775,24.681936170637233
29.0,246162.92398715176,8459.362553523686,0.20553862298932513,24.73573116115831
30.0,262535.3966690192,10076.681204511731,0.2032888608299254,24.791350244625114
31.0,283732.7321923357,11854.224252409304,0.20105192723850254,24.848740659378088
32.0,309928.9202103805,13743.579079123423,0.19882910862817876,24.907844124961375
33.0,341109.8677691319,15702.939801337385,0.19662172541961154,24.968596819077526
34.0,377111.6918903973,17696.43252701795,0.19443112934286894,25.030929366496114
35.0,417653.9359988171,19693.492106258993,0.1922587005190749,25.09476685052746
36.0,462367.989416339,21668.29361748149,0.19010584440396994,25.160028842581152
37.0,510821.4588304888,23599.24193299444,0.18797398867895626,25.22662943484593
38.0,562538.2800030406,25468.490689958944,0.18586457986033814,25.294477321150403
39.0,617016.7532298922,27261.519125449347,0.18377908010462227,25.363475860669304
40.0,673742.7661106293,28966.741076765913,0.18171896369030519,25.433523190798553
41.0,732202.7035036768,30575.15256306154,0.17968571375584247,25.50451232878767
42.0,791892.1564480175,32080.00668072837,0.17768081883788114,25.5763313298516
43.0,852323.9174562481,33476.53565832062,0.1757057695909883,25.64886340982713
44.0,913034.3968314925,34761.67647189572,0.1737620555531987,25.72198713751691
45.0,973587.0886364388,35933.8432536805,0.17185116194696998,25.79557663013459
46.0,1033576.6647794677,36992.71701721797,0.16997456667293478,25.869501740753897
47.0,1092630.6477468433,37939.05835606891,0.1681337373632543,25.943628290455834
48.0,1150411.505645517,38774.52998632033,0.16633012873868463,26.017818318587274
49.0,1206616.0678309011,39501.55868387333,0.16456517990750438,26.09193033530011
50.0,1260976.5760215858,40123.190171141294,0.16284031207526514,26.16581960396322
51.0,1313262.5255737521,40640.9724801073,0.16115692650442337,26.23933844078411
52.0,1363253.312468058,41102.09880521205,0.15951640215976173,26.312336530429434
53.0,1411067.8763067597,41718.42305706669,0.15792009419371245,26.38466125196539
54.0,1457569.3364051164,42678.33947746823,0.156369332364615,26.45615803073766
55.0,1504165.573891329,44117.528902044854,0.15486541964241152,26.526670706182493
56.0,1552594.9339114714,46128.18687979192,0.15340963106662273,26.596041917998384
57.0,1604757.464141147,48766.86786538482,0.1520032127308271,26.664113508173507
58.0,1662587.825323872,52061.30832494876,0.15064738106900216,26.730726942441677
59.0,1727958.0448501601,56016.130017937314,0.1493433221856685,26.795723746537465
60.0,1802608.4611170357,60617.71815806252,0.14809219134863766,26.858945963195026
61.0,1888099.223490604,65838.40720936265,0.14689511278988285,26.92023661794547
62.0,1985779.0083578601,71639.87738347959,0.14575317929202025,26.97944021431353
63.0,2096766.1768381062,77976.11608240896,0.14466745213574697,27.036403233676683
64.0,2221946.0594621934,84795.8031353465,0.14363896112263064,27.090974643271355
65.0,2361969.991168249,92044.28288633878,0.14266870432208198,27.14300644684986
66.0,2517263.799949323,99665.21162401694,0.14175764814686598,27.192354218446656
67.0,2688041.98169592,107601.851393751,0.14090672738754903,27.238877646212156
68.0,2874322.3449906055,115798.11611723456,0.14011684502263988,27.282441112914753
69.0,3075943.7772155334,124199.40325454358,0.13938887193618618,27.32291427901549
70.0,3292586.6463480294,132753.20947216995,0.13872364678127116,27.36017263708354
71.0,3523791.304995408,141409.60328004943,0.13812197563323245,27.394098092462997
72.0,3768978.8087404114,150121.56004297224,0.13758463116360442,27.42457956958731
73.0,4027467.463315176,158845.19416280778,0.13711235217887735,27.45151356353913
74.0,4298494.885934997,167539.87188033137,0.13670584229899013,27.474804738067572
75.0,4581229.418286018,176168.29696759715,0.13636576920065777,27.494366451521998
76.0,4874793.9434460625,184696.46299973846,0.1360927626031121,27.51012134509796
77.0,5178270.478085881,193093.65582078765,0.13588741324575315,27.522001809219656
78.0,5490724.284282858,201332.45282767573,0.13575026995125777,27.529950602521815
79.0,5811205.560781133,209386.50021291434,0.1356818382119077,27.533921210567975
80.0,6138761.621074697,217258.61102769815,0.1356825772042916,27.533878337501143
81.0,6472594.0028923545,225044.38749183994,0.1357528972108763,27.5297982056892
82.0,6812379.723880805,232930.06239051826,0.13589315651693404,27.521669077292763
83.0,7158543.170076288,241163.94072914057,0.13610365780013514,27.50949143271093
84.0,7512409.123772215,250034.5049177218,0.13638464446370938,27.49327830305264
85.0,7876266.99636046,259852.39216798326,0.13673629717314753,27.47305536651261
86.0,8253386.615862266,270936.3732473876,0.13715872939646137,27.448861168709133
87.0,8647978.03409949,283602.2494961682,0.1376519838726602,27.420747068887895
88.0,9065127.36789085,298154.3114922747,0.13821602780089648,27.388777320873864
89.0,9510706.546069881,314879.0120773492,0.13885074930016697,27.353028867129062
90.0,9991271.649180347,334040.1724684455,0.13955595256250214,27.313591258236013
91.0,10513948.230015414,355875.9137598879,0.14033135445380188,27.270566293852013
92.0,11086327.303200882,380596.32396298763,0.1411765799598472,27.224067769916676
93.0,11716340.267036423,408382.55347313615,0.14209115911062417,27.174220973524555
94.0,12412177.569927666,439386.14491354005,0.14307452354879496,27.121162203068923
95.0,13182158.972329108,473729.3074227926,0.1441260031669673,27.065038215280307
96.0,14034650.403188838,511505.66576953913,0.14524482445339862,27.00600549219424
97.0,14977995.244488245,552780.9701416178,0.14643010815702454,26.944229557101032
98.0,16020415.468025006,597594.4885296308,0.14768086791923773,26.879884177492343
99.0,17169945.987402476,645960.5014379871,0.14899601002398036,26.813150485117053
100.0,18434383.10338976,697869.8225996314,0.15037433366496455,26.74421606817644
101.0,19821243.711193413,753291.2930559329,0.1518145316240903,26.673274037651396
102.0,21337689.615384202,812173.7657886504,0.15331519205676783,26.6005220402952
103.0,22990520.985235237,874447.5974420236,0.15487480120320943,26.526161242360473
104.0,24786128.59800122,940026.5785437535,0.15649174704506696,26.450395306614904
105.0,26730487.829065252,1008809.283402152,0.15816432323844146,26.37342936840595
106.0,28829120.799002945,1080680.9917478627,0.15989073471499773,26.295469012729814
107.0,31087124.9601506,1155544.6894995286,0.16166910320768565,26.216719269491115
108.0,33509300.582517575,1233396.6934776567,0.16349747443088772,26.13738364735447
109.0,36100602.37496337,1314403.363862878,0.1653738242104193,26.057663101694146
110.0,38866911.90024462,1398937.1807347904,0.1672960683692735,25.97775527214104
111.0,41815754.20029505,1487615.5426578547,0.16926206962021065,25.897853500744773
112.0,44957225.21793414,1581309.0286065864,0.1712696472627572,25.818146114057388
113.0,48304884.917245194,1681146.453767904,0.17331658606908612,25.738815633208596
114.0,51876603.87282735,1788507.20510169,0.17540064599427188,25.660038106650067
115.0,55695341.24464783,1905006.6990076464,0.17751957183563175,25.581982514470198
116.0,59789908.65754397,2032475.278748067,0.17967110271452597,25.504810275835993
117.0,64195650.72834232,2172936.6437567975,0.18185298164608046,25.42867472642031
118.0,68954828.9696831,2328582.1248558774,0.18406296503249286,25.35372077527651
119.0,74117210.30186534,2501741.911313319,0.1862988315016555,25.280084605887264
120.0,79740261.8982561,2694859.3970547505,0.18855839090422316,25.207893391710215
121.0,85889426.85272752,2910461.7588765905,0.19083949215028095,25.137265205188633
122.0,92638313.7913565,3151133.6810558503,0.19314003127870816,25.06830884050367
123.0,100068548.53924584,3419492.2270512977,0.1954579582854203,25.001123842592946
124.0,108270012.71314882,3718160.2990754345,0.19779128359982115,24.935800506386222
125.0,117340403.9855061,4049746.6548848706,0.20013808409310038,24.87241994437702
126.0,127385327.05952437,4416822.39742084,0.20249650759317456,24.811054272247723
127.0,138517903.64905953,4821903.363250028,0.20486477788024438,24.75176671356728
128.0,150858430.89313814,5267433.468758148,0.20724119757497686,24.6946118967334
129.0,164534312.8887539,5755767.451195197,0.209624151425823,24.63963605720384
130.0,179679267.09194794,6289161.301503933,0.21201210829354245,24.586877347893118
131.0,196433402.38553417,6869757.676404046,0.2144036222743749,24.536366170132947
132.0,214942406.89420617,7499608.812546623,0.21679733402661647,24.488125465207535
133.0,235357596.2256495,8180771.505253606,0.21919197005347238,24.44217113189608
134.0,257836154.40790194,8915485.545207247,0.221586342936294,24.39851233518756
135.0,282542101.10272163,9706399.295011912,0.22397934993016488,24.35715191215697
136.0,309648634.02522266,10556821.291982865,0.2263699711155977,24.31808677064556
137.0,339341492.17707723,11470990.60642084,0.22875726780632463,24.281308242930965
138.0,371822795.9002624,12454348.115311118,0.23114037999731588,24.246802481142176
139.0,407316644.9041932,13513781.713680519,0.23351852321111016,24.214550858628076
140.0,446075875.37354535,14657866.865222983,0.23589098572970527,24.18453032344232
141.0,488388656.4541673,15897086.612983972,0.238257125258735,24.156713767178537
142.0,534586657.5056548,17244002.964730687,0.24061636498226688,24.131070403248945
143.0,585054494.7398989,18713415.112774212,0.2429681900547085,24.107566100444874
144.0,640238065.9446404,20322501.00223183,0.2453121438724197,24.086163713055125
145.0,700654153.1550975,22090897.306343317,0.24764782379001973,24.06682341978647
146.0,766901575.0018744,24040765.039988488,0.24997487727317122,24.049503024097145
147.0,839670192.7562649,26196853.64279029,0.25229299809242983,24.034158240164963
148.0,919750734.3641969,28586499.989032604,0.2546019220741545,24.020742983620167
149.0,1008046718.31455,31239611.903699428,0.25690142324810245,24.009209631019885
150.0,1105583385.0988486,34188667.58822256,0.25919131019708924,23.999509260767653
151.0,1213516598.9053476,37468656.219623245,0.2614714221167275,23.99159189286048
152.0,1333144753.931407,41116998.07040903,0.2637416252101337,23.985406704485406
153.0,1465917396.585399,45173493.55474226,0.26600180935371337,23.98090222770306
154.0,1613442113.409803,49680231.4832832,0.2682518846398977,23.978026539901666
155.0,1777495811.48153,54681465.251870304,0.27049177818779785,23.976727436001703
156.0,1960033266.0324442,60223535.071377285,0.27272143122715653,23.976952586055376
157.0,2163191095.310854,66354859.816665165,0.2749407962078138,23.978649681170324
158.0,2389298947.9087367,73126049.92243643,0.2771498341198625,23.981766565186707
159.0,2640890529.171055,80590303.99999717,0.2793485120547676,23.986251355941356
160.0,2920709248.9903646,88804124.05843171,0.2815368008906032,23.992052553135316
161.0,3231726934.9512725,97828257.06539601,0.2837146731584897,23.999119133699544
162.0,3577168280.1071086,107729009.80900998,0.28588210109928813,24.00740064094662
163.0,3960530450.543357,118579942.32121965,0.2880390548888055,24.016847261164298
164.0,4385621893.480671,130463715.3651158,0.2901855010413038,24.027409887707424
165.0,4856614122.467504,143474285.90849686,0.2923214009484507,24.039040182467367
166.0,5378088379.552736,157719468.80066508,0.29444670958497465,24.05169062750963
167.0,5955105668.305405,173323486.18058798,0.2965613744068096,24.065314563272423
168.0,6593297727.552542,190429794.21337244,0.2986653343360015,24.079866226781615
169.0,7298951143.0882635,209204276.82537568,0.30075851887856797,24.09530078379569
170.0,8079115494.861205,229838216.8835092,0.3028408474536011,24.111574346460856
171.0,8941741452.303291,252551447.96473882,0.304912228772713,24.128643992536766
172.0,9895809543.567966,277595919.76593965,0.30697256030278597,24.14646778252217
173.0,10951478130.05183,305258837.46911395,0.3090217279513619,24.165004761814192
174.0,12120272118.892952,335865852.95514053,0.3110596057808233,24.184214964927747
175.0,13415261601.580267,369784749.3090483,0.3130860557549099,24.204059421111946
176.0,14851245848.145937,407428571.35811853,0.3151009277029419,24.224500145576613
177.0,16444991672.34236,449258625.6406073,0.3171040593060801,24.245500132316415
178.0,18215467124.79164,495788034.19162166,0.3190952760745895,24.267023350890657
179.0,20184051473.312946,547584778.1817553,0.32107439151666134,24.289034730699907
180.0,22374820294.274498,605274317.6503316,0.3230412073368794,24.311500145489244
181.0,24814836533.676525,669542836.6913606,0.32499551359632173,24.33438640351184
182.0,27534375332.117176,741140379.8886395,0.3269370890221519,24.35766122797708
183.0,30567251479.06751,820883591.9136854,0.3288657013629131,24.381293235862127
184.0,33951174357.93572,909659838.8284128,0.33078110768751817,24.4052519233592
185.0,37727992379.125656,1008432664.2758538,0.33268305478524474,24.429507644742543
186.0,41944080624.275444,1118247555.2662866,0.3345712796277394,24.4540315877381
187.0,46650804568.92877,1240240406.2252052,0.33644550976759685,24.478795755836614
188.0,51904841975.71818,1375649293.9756746,0.33830546379092874,24.50377294711709
189.0,57768701970.22262,1525827279.9285204,0.34015085184258387,24.528936728035475
190.0,64311404741.86151,1692259211.198889,0.34198137608977386,24.554261413911462
191.0,71609008845.69827,1876583931.7210724,0.3437967312002131,24.57972204867407
192.0,79745389191.81506,2080617818.0983996,0.3455966048943464,24.605294378563723
193.0,88813299713.24536,2306383277.37762,0.34738067844434123,24.630954831855636
194.0,98915300538.392,2556144806.8918157,0.3491486271593672,24.656680500056634
195.0,110164962778.15977,2832446091.4492316,0.35090012093614154,24.682449112678874
196.0,122688523740.05664,3138152434.6605434,0.3526348247684993,24.7082390170434
197.0,136626464837.45393,3476502978.774329,0.3543523992276011,24.734029161140445
198.0,152135326282.81662,3851163260.7192554,0.3560525009894911,24.759799070334473
199.0,169390181884.04593,4266282584.699226,0.35773478333529146,24.785528827896712
200.0,188587167279.76932,4726563294.373465,0.3593988966181681,24.811199059522412
201.0,209946068549.008,5237330048.095537,0.3610444887534876,24.836790912578156
202.0,233713832835.17126,5804602207.400504,0.3626712056941692,24.862286037918985
203.0,260168239257.06628,6435180410.538083,0.36427869187560596,24.887666576009934
204.0,289621756112.49,7136727810.087087,0.36586659067095245,24.91291513768781
205.0,322426387287.1221,7917863840.479882,0.3674345448236233,24.93801479065334
206.0,358977851154.7243,8788260508.644257,0.36898219686021877,24.962949043290546
207.0,399721946745.7033,9758742344.947512,0.37050918951072037,24.9877018317328
208.0,445159367488.5166,10841392424.845215,0.37201516608968654,25.012257504843106
209.0,495853231265.85187,12049664956.958246,0.3734997708917755,25.03660081304312
210.0,552434768133.4374,13398501972.563322,0.3749626495428981,25.060716894230715
211.0,615612082075.1265,14904465599.569954,0.37640344937148673,25.0845912642498
212.0,686176902591.4281,16585873414.599785,0.3778218197287683,25.108209803799575
213.0,765014694320.9503,18462963401.02115,0.3792174123362176,25.131558750410925
214.0,853112841802.8024,20558061592.997173,0.3805898815751281,25.154624686384267
215.0,951572320627.2297,22895799765.87358,0.3819388848105742,25.17739453213058
216.0,1061617952883.0989,25503335330.797626,0.38326408265140766,25.199855535160818
217.0,1184612008353.938,28410649610.08792,0.3845651392508591,25.22199526464404
218.0,1322067504003.7722,31650844829.992306,0.3858417225388678,25.243801601464796
219.0,1475664355813.1191,35260554686.30655,0.38709350449937974,25.2652627338406
220.0,1647267023397.3767,39280348810.2107,0.38832016137739706,25.286367148462823
221.0,1838944163961.6204,43755294733.4194,0.3895213739330744,25.307103627014587
222.0,2052992298820.2483,48735502979.61444,0.3906968276261973,25.32746123839841
223.0,2291960251410.2686,54276878714.58879,0.39184621284718196,25.34742933600925
224.0,2558680932563.5967,60441844068.645515,0.39296922508195825,25.366997551033744
225.0,2856302130797.134,67300322289.29453,0.39406556511999496,25.386155790349232
226.0,3188328967556.119,74930674659.40071,0.39513493920267956,25.404894230865512
227.0,3558662867452.0566,83420957249.95175,0.3961770592085717,25.423203317934146
228.0,3971657675762.412,92870109649.41678,0.3971916427883576,25.441073760693968
229.0,4432168816771.863,103389520322.22504,0.39817841352766625,25.458496530886613
230.0,4945626457621.18,115104500931.41035,0.39913710107155354,25.475462859160483
231.0,5518096924980.107,128156195612.2905,0.4000674412653802,25.491964234198793
232.0,6156376678794.434,142703378268.28888,0.40096917627157813,25.507992399932377
233.0,6868068094346.854,158924727547.5374,0.4018420546892777,25.523539354896023
234.0,7661698223326.311,177020977574.24896,0.40268583166583993,25.53859735029775
235.0,8546810958734.512,197217583149.92923,0.40350026899612523,25.553158889528273
236.0,9534114728927.799,219767265423.3465,0.40428513523095577,25.56721672703239
237.0,10635593092469.408,244953102106.25653,0.4050402057571291,25.5807638679054
238.0,11864685710826.66,273091542200.2749,0.40576526290462306,25.593793567510758
239.0,13236419844754.424,304535992970.0115,0.40646009600866945,25.60629933110638
240.0,14767629422296.334,339680435279.93304,0.40712450151713325,25.618274914150998
241.0,16477111081033.646,378963639604.105,0.4077582830361714,25.629714321912964
242.0,18385887093783.863,422873602704.94763,0.4083612514388215,25.6406118104058
243.0,20517391907842.03,471952614116.6793,0.4089332248959761,25.650961885942174
244.0,22897786340504.18,526802851137.20544,0.40947402898680413,25.66075930663666
245.0,25556184341131.13,588092620941.1324,0.40998349671696804,25.669999081878277
246.0,28525028275839.734,656563591127.9718,0.41046146863108285,25.678676474335383
247.0,31840371140298.492,733038654949.5295,0.4109077928202996,25.68678699933166
