Time,J,A,S,tau
0.0,100.0,100.0,0.7106610159482583,37.03703703703704
1.0,99.72031171484346,36.82743481747717,0.7091109166219589,38.03620162500036
2.0,99.44553726952002,13.584550419863467,0.7075755223322361,39.03542479336169
3.0,99.17561656482209,5.032329838594982,0.7060538053043861,40.034683368440696
4.0,98.91005060246624,1.8846597053644933,0.7045447500876021,41.03397289869842
5.0,98.64837800739251,0.7253844744345105,0.7030473609841065,42.033289349483425
6.0,98.39016978089225,0.2977709327878923,0.7015606607968945,43.032629041245066
7.0,98.1350246865545,0.13947918104475565,0.7000836895767962,44.031988595172365
8.0,97.88256516606143,0.0804137503889114,0.6986155033743534,45.031364885022604
9.0,97.63243369632494,0.05799012410461395,0.6971551730008104,46.03075499407124
10.0,97.38428951158548,0.049176351267155,0.6957017828017181,47.030156176253996
11.0,97.13780562375653,0.04549253811198744,0.6942544294458616,48.0295658206831
12.0,96.89266212394263,0.04381738036879359,0.692812221076745,49.02898136479631
13.0,96.64841239642041,0.04308929941533997,0.6913742875802902,50.02839846850561
14.0,96.40481690940294,0.04276547324817341,0.6899397501196429,51.02781557221491
15.0,96.16175199441322,0.04259047099335682,0.6885077277551923,52.027232676018706
16.0,95.9189636671924,0.042571251365317815,0.6870773576046998,53.02664797128452
17.0,95.67602186627637,0.04279488728551239,0.6856477975504781,54.026057193290235
18.0,95.43262487340742,0.04322529376604606,0.6842181984468394,55.0254578040615
19.0,95.1884673339659,0.043849946839291463,0.6827877143922613,56.024847185402216
20.0,94.94323605861562,0.04466928914483164,0.6813555018818863,57.02422258202518
21.0,94.6966073999782,0.04569151024976062,0.6799207188436273,58.02358106567561
22.0,94.44824443134245,0.04692852690418627,0.6784825237042842,59.022919495964246
23.0,94.19779387827528,0.04839532054380778,0.6770400744945151,60.02223447714607
24.0,93.94488272584029,0.05011013743443231,0.6755925279970121,61.02152230965726
25.0,93.68911443054381,0.052095021560150584,0.674139038940534,62.02077893533296
26.0,93.43006463726437,0.05437645170658802,0.6726787592433927,63.019999874770726
27.0,93.16727635954409,0.05698500493219884,0.6712108373203474,64.01918015615553
28.0,92.90025450865751,0.0599564117816821,0.6697344174596235,65.01831423376001
29.0,92.62845956091054,0.0633316509621981,0.6682486392730705,66.01739589284267
30.0,92.35130030730073,0.06715942822338074,0.6667526372394418,67.01641814001397
31.0,92.06812547084736,0.07149621423005702,0.6652455403546219,68.01537307565317
32.0,91.77821398332135,0.07640761496348618,0.6637264719052676,69.01425174506453
33.0,91.48076367481619,0.08196992029083845,0.6621945493879202,70.01304396441232
34.0,91.1748780810049,0.08827191246787111,0.6606488845993348,71.01173811668285
35.0,90.85955101693557,0.09541700152822555,0.6590885839288272,72.01032091199883
36.0,90.53364846046692,0.10352741522982398,0.6575127488880799,73.00877710492033
37.0,90.19588746441656,0.1127415767447763,0.6559204769300557,74.00708916390273
38.0,89.84481098141634,0.12322384954371186,0.654310862592812,75.00523687528823
39.0,89.47875855286067,0.13516797484059345,0.6526829990507433,76.00319688025856
40.0,89.09583163519713,0.14879883292001853,0.6510359801353273,77.00094212498203
41.0,88.69385234871866,0.16438042384570944,0.6493689029223166,77.99844120406831
42.0,88.27031505402563,0.18222524653964592,0.6476808709864788,78.9956575867804
43.0,87.82232889185951,0.2026976610809474,0.6459709984524813,79.99254869534504
44.0,87.34654922255962,0.22622756511566075,0.6442384150108105,80.98906480113548
45.0,86.8390969198329,0.2533253857404087,0.6424822720463539,81.98514771994685
46.0,86.29546227593076,0.2845906703665016,0.6407017501188449,82.9807292523529
47.0,85.71039043482918,0.32073119109018483,0.6388960680674093,83.97572931679164
48.0,85.07774621045877,0.3625813980603949,0.6370644939748646,84.9700537369802
49.0,84.39035277291372,0.4111350801457536,0.635206358417439,85.96359159059782
50.0,83.63980015300186,0.46756854048271984,0.6333210703927775,86.95621204740793
51.0,82.81621881916696,0.5332708312931822,0.6314081363505145,87.94776061280169
52.0,81.90801122851974,0.6098898545550793,0.6294671829266041,88.93805465246464
53.0,80.90153377722766,0.6993838607087951,0.6274979840493908,89.92687806290645
54.0,79.78072304871404,0.8040625584170461,0.6255004929823931,90.91397497366268
55.0,78.52665677078683,0.9266575877497659,0.623474880121859,91.89904230679066
56.0,77.11703903121483,1.0704104649011854,0.6214215774615384,92.88172099930371
57.0,75.52560177135247,1.2391312276845894,0.619341330384058,93.86158574246606
58.0,74.14924604627448,2.6542233178808505,0.6172352574595883,94.8381330769603
59.0,72.96712581378634,4.390475743196354,0.6151049190731652,95.81076764638786
60.0,72.01660511321965,6.394229336164466,0.612952395177876,96.7787865065463
61.0,71.37242114331146,8.71224730348415,0.6107803717565008,97.74136152172137
62.0,71.12969206135408,11.399144358039457,0.6085922353172529,98.69751991203046
63.0,71.40924407019028,14.518438185339853,0.6063921733168713,99.64612329218872
64.0,72.36425567625226,18.14361443826009,0.604185277092192,100.58584578941354
65.0,74.18846054543084,22.359139783421572,0.601977641561137,101.51515228759635
66.0,77.12619733543688,27.261332664352057,0.599776453782898,102.43227827802178
67.0,81.48466391545655,32.95898157149677,0.5975900606800614,103.33521314943484
68.0,87.6484832842275,39.573525952792295,0.5954279993288326,104.2216902169265
69.0,96.09707576552177,47.2386621159622,0.5933009776640285,105.08918585110165
70.0,107.42454687494208,56.099129602948985,0.5912207831491095,105.93493236143863
71.0,122.362463374021,66.3085300570545,0.5892001061712053,106.75594737037135
72.0,141.80464384035682,78.02600676589014,0.5872522614183627,107.54908342815854
73.0,166.83381337444123,91.41174393055081,0.5853908032032726,108.3110990328488
74.0,198.74857698902926,106.62137178470067,0.5836290401482099,109.03875051037517
75.0,239.0895620471247,123.79953636966388,0.58197947118946,109.72890088998643
76.0,289.662905474259,143.07308853801896,0.5804531814531572,110.37863851210106
77.0,352.55926046185255,164.5445011435987,0.5790592507763498,110.98539509803754
78.0,430.16658635525266,188.28621103139724,0.5778042359417999,111.5470511117027
79.0,525.1753796134834,214.33654423650012,0.576691785038473,112.0620164843356
80.0,640.5756851373524,242.69771806878094,0.575722428732253,112.52927726396756
81.0,779.6459663666488,273.33615088481497,0.5748935707711631,112.94840310473673
82.0,945.9346041471905,306.18498906720475,0.5741996720299739,113.3195160782145
83.0,1143.2356409199463,341.1484934277067,0.573632599551264,113.64322600160449
84.0,1375.5601047832834,378.10770129013787,0.573182090946725,113.92054180638293
85.0,1647.105351024799,416.9266938032472,0.5728362775575823,114.15277011218522
86.0,1962.2233779205403,457.45886082041926,0.5725822134430032,114.34141158598946
87.0,2325.3896130325707,499.55265254970993,0.5724063661038017,114.4880640450963
88.0,2741.172856934113,543.056474744843,0.5722950383394735,114.59433859550408
89.0,3214.20655981454,587.8225621950485,0.5722347061030741,114.6617920472039
90.0,3749.161401817286,633.7098063751071,0.5722122692566166,114.69187640053921
91.0,4350.718888870457,680.5855981208144,0.5722152199127918,114.68590465472231
92.0,5023.5452384777955,728.3268741826281,0.5722317429445155,114.64503003571062
93.0,5772.265588010166,776.8204327087593,0.5722507556193761,114.57023753207551
94.0,6601.437279625902,825.9628045441211,0.5722619080555383,114.46234322313701
95.0,7515.522705889641,875.6597141557609,0.5722555497741048,114.3220006058088
96.0,8518.85980980368,925.8253808954369,0.5722226809704897,114.14970994957673
97.0,9615.632877900338,976.3815805291126,0.5721548846398574,113.94583192848778
98.0,10809.840096440572,1027.2567464239116,0.5720442607100665,113.71060076225575
99.0,12105.25966987354,1078.3850198591547,0.5718833564607871,113.4441383965701
100.0,13505.41506384363,1129.7053395628263,0.5716650990395645,113.14646849431591
101.0,15013.537661014974,1181.16057258325,0.5713827332463097,112.81752956115135
102.0,16632.529261161937,1232.6967254299184,0.5710297645273057,112.45718728400036
103.0,18364.92421488143,1284.2622117456606,0.5705999082268931,112.06524590454575
104.0,20212.850171576618,1335.8072252913346,0.5700870460399204,111.6414582545889
105.0,22177.98036590847,1387.2831563656125,0.5694851891012748,111.18553459937479
106.0,24261.492902634105,1438.6420041613712,0.5687884437116233,110.6971518427285
107.0,26464.088791578466,1489.836017802357,0.5679909835101494,110.17596190193976
108.0,28785.78276859427,1540.8172372132913,0.5670870354185121,109.6215944031617
109.0,31226.131249705264,1591.5373323408455,0.5660708499541318,109.03366888135447
110.0,33753.69348649333,1663.1529691485187,0.6846205365760957,37.561533831572135
111.0,36456.846621320685,1848.364195996134,0.6924858856837528,33.54698076954146
112.0,39553.88430634083,2116.3025445791745,0.6948426205305247,31.2557569272692
113.0,43224.34234491543,2469.882035102089,0.6949471591576254,29.62206457020008
114.0,47661.305753941764,2915.332485858546,0.6938450459139746,28.33007505501009
115.0,53077.15864580247,3459.5715519501678,0.6920098944363124,27.244584855300104
116.0,59704.48698103429,4109.325618140073,0.6896960506786693,26.29626067488381
117.0,67794.74176974357,4870.685596187725,0.6870543994231579,25.445540421938663
118.0,77615.73817277602,5748.822405438813,0.6841803528741133,24.668177285427294
119.0,89448.04578463452,6747.794704918673,0.6811367882948566,23.94854045943476
120.0,103580.61656859287,7870.416801240864,0.6779663003279709,23.276144588115212
121.0,120305.85744006443,9118.170028349094,0.6746982223969501,22.643722615561668
122.0,139914.04129867698,10491.155050221185,0.671352921457966,22.046087110082862
123.0,162687.54379279166,11988.072173359276,0.6679445324919423,21.479430495044028
124.0,188894.81967197932,13606.229411650394,0.664482762990417,20.94088081024445
125.0,218784.32681530004,15341.573811859698,0.6609741158125269,20.428212490313044
126.0,252578.54381098828,17188.73779524264,0.657422730469458,19.939655056687933
127.0,290468.5155664709,19141.11113335882,0.6538309857480803,19.473762090233958
128.0,332607.7276804306,21190.917133170686,0.6501999150193769,19.029325294465732
129.0,379083.95764772006,23344.656806249484,0.6465295247272491,18.605310266284462
130.0,430062.7928288918,25894.456437748766,0.6428190098698885,18.200815388054945
131.0,486527.69490193005,29134.457319403282,0.6390669302375779,17.815041255365944
132.0,550199.6479290383,33351.162767632,0.6352713378752034,17.447268754314695
133.0,623518.6574582278,38842.26096127164,0.6314298784864576,17.09684321054397
134.0,709647.1016169958,45911.35346039769,0.6275398731162465,16.763162690252866
135.0,812447.2038473078,54858.45878488649,0.6235983865654781,16.44566920634599
136.0,936423.5943543968,65969.25908497331,0.619602286764442,16.143841978522484
137.0,1086630.4913028446,79504.39586307766,0.6155482980923175,15.857192148441609
138.0,1268544.9164356564,95689.64850909516,0.6114330511587314,15.58525854580418
139.0,1487910.1423894712,114707.53538936377,0.6072531307020681,15.327604229391188
140.0,1750559.406879706,136690.58464874746,0.6030051223045815,15.083813582708503
141.0,2062224.8299414332,161716.60827699472,0.5986856590480881,14.853489808307
142.0,2428342.4096221123,189805.83102975137,0.5942914682793552,14.63625276280622
143.0,2853861.9532418093,220914.68944363258,0.5898194189484838,14.431737022426676
144.0,3342986.6537053357,255074.61215795504,0.5852665694872439,14.239590146021893
145.0,3899639.81244606,293074.2557232321,0.5806302152618044,14.059471082396506
146.0,4529640.967001314,336459.8680930054,0.5759079363561129,13.891048721048463
147.0,5242487.906400921,387396.9070567629,0.571097645496129,13.734000560331882
148.0,6052691.074313448,448570.98031592043,0.5661976348076884,13.588011472904054
149.0,6980683.222823796,523061.10497435,0.5612066210327731,13.452772555601829
150.0,8053284.275638169,614186.6304849593,0.5561237890554396,13.327980072473167
151.0,9303628.688673439,725337.6993804872,0.5509488331460978,13.213334473932338
152.0,10770617.999759536,859801.2172230189,0.5456819945667029,13.10853949418152
153.0,12497868.609540872,1020594.9915500511,0.540324096498067,13.013301322225383
154.0,14532302.617376365,1210319.6132822086,0.5348765734186482,12.927327844582786
155.0,16922419.876728643,1431035.1668947884,0.5293414972714905,12.850327958205328
156.0,19716397.375218555,1684165.0066842816,0.5237215970258983,12.782010949475866
157.0,22960070.083504263,1970551.233029609,0.5180202733787868,12.722085941980865
158.0,26695391.31098009,2291501.200926921,0.5122416072800616,12.670261406531582
159.0,30962077.090702463,2650080.547155696,0.5063903625642673,12.626244732020218
160.0,35802146.729358636,3051833.0774396737,0.5004719809581669,12.589741863335723
161.0,41265654.05292501,3505109.936800534,0.4944925716512314,12.560456994767492
162.0,47416527.29394709,4021057.2632322633,0.4884588944811532,12.538092318423184
163.0,54337605.3584165,4613299.919078798,0.48237833647907224,12.522347826803722
164.0,62134275.708221756,5297381.690762828,0.47625888247817666,12.512921170591767
165.0,70936220.62360771,6090033.878623048,0.47010908009354946,12.509507565926683
166.0,80897096.4462793,7008349.149311482,0.4639379995082911,12.511799750204775
167.0,92192182.2001468,8068933.913354147,0.45775518860904,12.519487984484831
168.0,105014256.95088075,9287103.171430662,0.45157062401971876,12.532260101491012
169.0,119567897.00360814,10676164.96963367,0.44539465907525194,12.549801593536113
170.0,136062928.70922193,12246984.146271596,0.4392379686507371,12.571795747543119
171.0,154707490.92609075,14008656.693130597,0.4331114925861837,12.59792381572875
172.0,175703860.86405507,15970301.993276658,0.42702637787510994,12.627865227333734
173.0,199249064.26120898,18143214.425159097,0.42099392057652424,12.661297837560594
174.0,225540267.72041437,20542863.293266263,0.4150255078678465,12.697898219678027
175.0,254784086.71231616,23190544.377357204,0.4091325618145124,12.737341984705342
176.0,287208865.96432066,26114364.789228927,0.4033264845518062,12.779304150773065
177.0,323077402.51598257,29349715.583456736,0.39761860586252085,12.823459539996051
178.0,362699503.67449415,32938989.78654337,0.3920201347698371,12.869483216701463
179.0,406442827.9739413,36930884.48408975,0.3865421127058472,12.917050969560487
180.0,454740607.4458033,41379163.23078092,0.3811953733754146,12.965839819183772
181.0,508096974.54903793,46341208.46598074,0.3759905032704723,13.015528588683079
182.0,567087553.0302664,51876359.50369909,0.3709378107767871,13.065798484095966
183.0,632358524.5101101,58044250.817249574,0.36604729508260514,13.116333757387649
184.0,704620423.4105322,64903561.721216634,0.3613286247052656,13.166822363852678
185.0,784643107.0252048,72511820.42939658,0.356791115095043,13.21695672143039
186.0,873248258.5748576,80926607.3815896,0.35244371600349356,13.266434448947786
187.0,971309597.9280944,90207953.88107145,0.3482949973426089,13.314959224245365
188.0,1079754310.1309502,100421683.0490731,0.3443531441466414,13.362241605679475
189.0,1199577143.1568727,111643334.98831664,0.3406259495675971,13.407999988618567
190.0,1331855891.7103696,123962263.54925531,0.33712081563232993,13.451961509766813
191.0,1477781766.7194872,137485716.4429901,0.3338447516801588,13.49386309685005
192.0,1638687863.7668235,152342485.64069903,0.3308043787103771,13.53345245083347
193.0,1816093325.980868,168686155.8351922,0.328005931129148,13.57048917692317
194.0,2011740053.6484778,186697654.611947,0.32545526223256027,13.604745833484492
195.0,2227646228.0397725,206587252.1167463,0.3231578468538201,13.636009123849682
196.0,2466145738.7939296,228595904.6585612,0.32111878544189015,13.664080992698196
197.0,2729947146.1220174,252996063.75378194,0.31934280510871454,13.688779847829595
198.0,3022171496.6849346,280092251.1760006,0.31783425985166835,13.70994167516164
199.0,3346414926.900888,310221822.95964134,0.3165971276159594,13.727421248162823
200.0,3706784650.4831448,343756987.9423323,0.31563500448286125,13.741093221980012
201.0,4107970961.2687836,381108362.7084329,0.314951095706873,13.750853276570881
202.0,4555291545.945851,422731227.2824546,0.3145482021679911,13.756619139680863
203.0,5054789551.30678,469134172.36180776,0.3144287039369582,13.758331599221878
204.0,5613305297.744634,520891317.649904,0.3145945379865801,13.755955395160603
205.0,6238623961.046493,578657113.3936576,0.3150471736921681,13.749480029062255
206.0,6939597630.600275,643185156.5016085,0.31578758172362226,13.738920458048872
207.0,7726368920.794925,715349208.1074823,0.31681620199045096,13.724317626574429
208.0,8610566667.935722,796168546.7791983,0.31813290477931466,13.705738893263597
209.0,9605632485.343548,886834695.6501554,0.31973695295369753,13.6832782137456
210.0,10727112433.795631,988742977.672676,0.3216269577060996,13.65705623509693
211.0,11993107472.803738,1103524498.863171,0.32380083781010915,13.627220081369869
212.0,13424698912.598465,1233082822.3600004,0.3262557753051794,13.593943015451904
213.0,15046544155.894205,1379632357.654626,0.3289881740783876,13.557423858496117
214.0,16887473309.230257,1545741355.8074155,0.33199362144772115,13.517886154221049
215.0,18981210230.28598,1734380882.3937616,0.33526685302574766,13.475577154381527
216.0,21367216632.04996,1948982391.341131,0.3388017226557005,13.430766592264916
217.0,24091668218.934864,2193505264.057021,0.34259118159681,13.383745193125097
218.0,27208562703.415047,2472519797.427105,0.3466272654241587,13.334823017069771
219.0,30781014120.352364,2791310187.845721,0.35090108983154583,13.2843276405281
220.0,34882856644.00829,3155999412.032049,0.3554028584817296,13.232602152520288
221.0,39600489359.33868,3573700656.677926,0.3601218841628611,13.180003000266726
222.0,45035069188.176056,4052701732.9753995,0.36504662160963486,13.126897749197965
223.0,51305156637.8775,4602688252.401366,0.3701647127684871,13.07366276411609
224.0,58549952531.72148,5235003766.021066,0.3754630469968792,13.020680818240805
225.0,66933137917.37364,5962951946.025765,0.38092783410244074,12.968338696222308
226.0,76647402759.57018,6802153800.517426,0.38654468787361346,12.917024819041611
227.0,87919857569.9712,7770951549.001415,0.3922987220926542,12.867126906018578
228.0,101018464631.31128,8890870385.149553,0.3981746555107745,12.819029716875788
229.0,116259588933.5045,10187143959.780289,0.40415692459821917,12.773112898466675
230.0,134016846181.24548,11689313508.772684,0.4102298019547396,12.729748961627388
231.0,154731434908.04025,13431914107.758015,0.4163775181496412,12.689301410069666
232.0,178924172747.71075,15455265367.048435,0.42258438465320913,12.652123039514136
233.0,207209499115.18857,17806387880.853584,0.4288349154940602,12.618554421290577
234.0,240311757004.40125,20540070491.823086,0.43511394532974845,12.588922580540986
235.0,279084124970.44965,23720116548.186783,0.4414067417467287,12.563539875084452
236.0,324530634466.3869,27420800084.594284,0.4476991098028362,12.542703077061653
237.0,377831774811.17163,31728563944.43576,0.45397748708008906,12.526692655776769
238.0,440374254494.92816,36743984981.23135,0.46022902781492125,12.515772256783533
239.0,513785528853.8352,42584040003.04947,0.4664416750026308,12.510188369287052
240.0,599973764958.2976,49384694528.90196,0.4726042197181558,12.510170171399496
241.0,701173930229.5736,57303835057.891174,0.47870634724195416,12.515929540721572
242.0,820000699010.0059,66524564267.2114,0.4847386699145996,12.527661216128822
243.0,959508862426.8776,77258878094.97421,0.49069274695530335,12.545543095511928
244.0,1123261904634.1843,89751745827.98967,0.49656109175868257,12.569736653528885
245.0,1315409377595.9146,104285618422.01414,0.5023371674238718,12.600387463138542
246.0,1540773670197.5496,121185395735.35094,0.5080153714661317,12.637625804756325
247.0,1804946727189.505,140823889275.9521,0.513591010811418,12.681567347255369
248.0,2114397227833.051,163627822054.5185,0.519060268279055,12.732313885679096
