Time,J,A,S,tau
0.0,100.0,100.0,0.7531738539114642,9.433962264150944
1.0,314.9050339027905,163.2871416694047,0.7533100642075151,8.395286805076697
2.0,657.17457598441,222.70799490837595,0.7533561448588441,7.324044320802038
3.0,1113.1428341744556,278.3639907054438,0.7533038137513564,6.220289784025502
4.0,1669.0208785627947,330.3616923543846,0.753144295010011,5.08409166184017
5.0,2280.825675371673,445.28146430144517,0.7527848552044042,4.466338004602005
6.0,3164.8395276284077,706.0606952888263,0.7522909097283088,4.396576057165121
7.0,4611.181663107331,1060.7081216083918,0.7517690145761967,4.329295252252353
8.0,6799.227961728588,1494.2401130185488,0.7512178179503192,4.264455464068795
9.0,9853.105911843453,2001.2086619148204,0.7506359380096506,4.202017593316525
10.0,13866.482308565457,2791.6112999042566,0.7500219722326018,4.141943437511946
11.0,19501.919230326424,4091.5321683141137,0.7493745072868144,4.084195566527916
12.0,27852.46880264368,6035.691208459601,0.7486921294703169,4.028737203044889
13.0,40218.554834060786,8711.301614217906,0.7479734357197029,3.975532105258464
14.0,57918.01269407667,12367.376913662101,0.7472170452171568,3.924544451935604
15.0,82815.40854451031,17756.060462431786,0.7464216115845004,3.875738728949137
16.0,118398.87742678655,25891.628508103633,0.7455858356499185,3.8290796170544836
17.0,170140.35644252633,37876.30597109099,0.744708478753107,3.784531880744874
18.0,245344.08635821883,55013.01174729998,0.7437883765410074,3.7420602582143654
19.0,353412.01366024837,79668.27436114807,0.7428244531918827,3.7016293526036534
20.0,508125.92486771016,115818.56084009515,0.7418157359905132,3.663203524829916
21.0,730636.7014744928,169030.8864535739,0.7407613701599909,3.626746788408959
22.0,1051739.6838288784,246519.61528087326,0.7396606338476915,3.592222706767632
23.0,1513862.8708108794,358653.7535840324,0.7385129531470608,3.559594293616566
24.0,2176239.33371588,521414.03611814935,0.7373179170277634,3.528823917006991
25.0,3124378.347083354,758392.6036059622,0.7360752920297542,3.4998732077703814
26.0,4481651.176689688,1102485.8353559421,0.7347850365755553,3.472702973050764
27.0,6421804.322644659,1599837.4978447724,0.7334473147460835,3.4472731156673637
28.0,9187196.15260958,2317249.2407628284,0.7320625093606528,3.423542560057829
29.0,13118430.555101603,3351389.2842395427,0.730631234196174,3.4014691855632084
30.0,18695767.79764904,4838974.168151106,0.7291543451790775,3.381009767825792
31.0,26590840.31432004,6971586.988760467,0.7276329503929503,3.362119929007415
32.0,37735204.79902144,10019389.894582516,0.7260684187433329,3.344754097542729
33.0,53418545.75965754,14363865.762949547,0.7244623871310466,3.3288654780845626
34.0,75425271.87766024,20539012.213454053,0.7228167659858872,3.3144060323087086
35.0,106214016.74377431,29286624.553359825,0.7211337430373702,3.3013264711271244
36.0,149153648.39340267,41635133.260192834,0.7194157852072578,3.289576258825526
37.0,208842679.3162767,59007897.46090873,0.7176656385263261,3.2791036295716616
38.0,291540541.51900953,83365174.1415083,0.7158863259909409,3.269855616685064
39.0,405737125.9588249,117391783.66390829,0.7140811432982235,3.2617780949796202
40.0,562898973.2607266,164750860.56540465,0.7122536524247484,3.2548158363667223
41.0,778454742.0842477,230424032.2680293,0.7104076730286263,3.2489125788668467
42.0,1073092608.1589705,321158894.28986895,0.7085472716870712,3.2440111089997012
43.0,1474463500.2999456,446055148.77036196,0.7066767489792544,3.2400533576381734
44.0,2019394592.0582583,617337432.104086,0.704800624485496,3.2369805090103543
45.0,2756771776.568157,851371414.1916472,0.702923619766247,3.234733122663888
46.0,3751291339.7629385,1169989370.191448,0.7010506394170256,3.2332512680138077
47.0,5088331728.1840105,1602212894.8615782,0.6991867503140385,3.232474671008242
48.0,6880231965.611448,2186494611.6458106,0.697337159185599,3.2323428723158836
49.0,9274452117.539402,2973627485.162678,0.6955071886561194,3.2327953964226346
50.0,12464070180.30463,4030513189.379999,0.6937022519259074,3.233771930766971
51.0,16701364433.934698,5445033465.282742,0.6919278262764772,3.2352125141359696
52.0,22315321876.998554,7332338932.137874,0.6901894255715805,3.237057733220933
53.0,29734215514.50527,9842975937.4355,0.6884925719657098,3.2392489264269932
54.0,39514696691.82827,13173367427.665216,0.6868427670136428,3.241728393567231
55.0,52379416776.088646,17579333992.68928,0.6852454623880605,3.2444396104219564
56.0,69265510148.69246,23393536553.72631,0.6837060304153885,3.2473274466258903
57.0,91387276007.32483,31047983844.52167,0.6822297346379083,3.2503383855687966
58.0,120317322841.92145,41103099080.7932,0.6808217006034208,3.253420744864298
59.0,158091536211.42917,54285292581.99676,0.6794868870791866,3.2565248958959083
60.0,207345188675.6113,71535555608.55032,0.6782300579026335,3.259603480689043
61.0,271489811920.5928,94072391890.2167,0.6770557546493475,3.2626116246310337
62.0,354943633570.3075,123473422953.04245,0.6759682702983405,3.265507143431382
63.0,463431274897.8715,161781455649.1243,0.6749716240672524,3.2682507426954928
64.0,604375074716.1697,211642457167.64236,0.6740695376082895,3.270806208239789
65.0,787408703807.5739,276485325646.80524,0.6732654127004999,3.273140585779291
66.0,1025049567312.8367,360756754283.8625,0.6725623105966518,3.2752243482961907
67.0,1333583270799.8215,470228609685.61316,0.6719629331672717,3.2770315495491604
68.0,1734229444765.607,612401036284.0105,0.671469605973281,3.27853996225868
69.0,2254682170397.05,797032294156.0297,0.6710842633901088,3.27973119958369
70.0,2931150632318.198,1036836845693.4281,0.6708084358964689,3.2805908186094963
71.0,3811069657950.178,1348407362547.8008,0.6706432396309094,3.2811084046893475
72.0,4956709993852.206,1753435450866.899,0.6705893683086386,3.281277635622089
73.0,6450000383507.143,2280332015551.0093,0.6706470875798174,3.281096324805169
74.0,8398986719358.905,2966383749315.885,0.6708162318984524,3.2805664426736674
75.0,10946509318958.57,3860630856045.425,0.6710962039577678,3.279694115922958
76.0,14281894676426.814,5027717702508.403,0.6714859767335261,3.2784896042115865
77.0,18656756669810.29,6553059638431.932,0.6719840981612086,3.2769672542481056
78.0,24406417031636.594,8549795445770.68,0.6725886984557843,3.27514543138224
79.0,31979033504893.848,11168169308596.184,0.6732975000642125,3.273046429041076
80.0,41975333296544.484,14608227909022.787,0.6741078302207896,3.270696356572959
81.0,55202984399653.22,19137054191771.31,0.6750166360539899,3.2681250062820695
82.0,72751233945238.45,25112227501607.516,0.6760205021707797,3.265365700651716
83.0,96093695294014.56,33013853954335.863,0.6771156706206769,3.2624551209609822
84.0,127230352670284.03,43488427349949.27,0.6782980631174212,3.2594331186938303
85.0,168884374141808.56,57409068220860.01,0.6795633053713758,3.256342511319047
86.0,224775757489355.47,75958501444482.64,0.6809067533611397,3.2532288641802505
87.0,300003011939821.4,100743692158230.2,0.6823235213488104,3.250140260374842
88.0,401577207148844.3,133954681636268.17,0.6838085114204348,3.247127060616786
89.0,539171546848246.56,178585302599118.78,0.685356444311977,3.2442416551684246
90.0,726176687168771.1,238740758159224.66,0.6869618912621736,3.2415382099896743
91.0,981191013976415.5,320067456795603.9,0.6886193066175007,3.2390724092878203
92.0,1330131406297109.2,430355356684155.1,0.6903230609016211,3.2369011966573455
93.0,1809231508136883.0,580384332986572.8,0.6920674740525924,3.235082516976867
94.0,2469312704711911.5,785116553007587.5,0.69384684852615,3.233675061179985
95.0,3381884675449426.5,1065380591824989.1,0.6956555019628148,3.232738015939913
96.0,4647882219850045.0,1450255928049352.8,0.6974877991205821,3.2323308202058523
97.0,6410197438597777.0,1980458265199378.0,0.6993381827863225,3.2325129303914153
98.0,8871760849400768.0,2713149714392515.0,0.7012012033748304,3.233343595946518
99.0,1.2321566236218196e+16,3728803640121229.0,0.7030715469910601,3.234881646686948
100.0,1.7172303837868436e+16,5141002019009795.0,0.7049440616682277,3.237185293385901
101.0,2.4014885760585064e+16,7110462623953366.0,0.7068137816273766,3.240311942564134
102.0,3.3697572474391184e+16,9865129329743408.0,0.7086759493114663,3.244318026689438
103.0,4.74408727951072e+16,1.3729035712074318e+16,0.7105260351080003,3.249258850213578
104.0,6.700496713390243e+16,1.916377114765621e+16,0.7123597545784304,3.2551884523281074
105.0,9.493331431215906e+16,2.6828183382385464e+16,0.7141730831537014,3.2621594865146926
106.0,1.3490849230922378e+17,3.766436880630756e+16,0.7159622682253608,3.270223117202993
107.0,1.9227093230749222e+17,5.302164420232203e+16,0.7177238386011408,3.2794289335324684
108.0,2.7477723847631853e+17,7.483544011528331e+16,0.7194546113888768,3.289824879797308
109.0,3.9370748681524397e+17,1.0588533021460104e+17,0.721151696279047,3.30145720262846
110.0,5.6548271059699584e+17,1.5016766037998656e+17,0.7228124974003185,3.314370413843837
111.0,8.140286945691215e+17,2.134329489803878e+17,0.7244347127509382,3.328607268952912
112.0,1.174223078829965e+18,3.0396152743072806e+17,0.7260163314259405,3.344208759961544
113.0,1.6969291881563261e+18,4.3368133582874854e+17,0.7275556287231285,3.3612141220924845
114.0,2.4563202142402514e+18,6.19778189893715e+17,0.7290511593281958,3.379660853203866
115.0,3.5605468595785743e+18,8.870126836347383e+17,0.7305017487634299,3.399584744946677
116.0,5.167215257332531e+18,1.2710476682754168e+18,0.7319064832521677,3.4210199247975135
117.0,7.505827494256753e+18,1.8232227957499167e+18,0.7332646982631463,3.443998907485671
118.0,1.0910224423767329e+19,2.617384194338286e+18,0.7345759658511626,3.4685526552474646
119.0,1.5865334500497533e+19,3.7596430722709135e+18,0.7358400810812595,3.494710645217108
120.0,2.3074420217065038e+19,5.402267855747768e+18,0.7370570476558121,3.522500943402094
121.0,3.355528120273236e+19,7.76342012589548e+18,0.7382270629927514,3.55195028375467
122.0,4.877768143874068e+19,1.1155089907081757e+19,0.7393505029046235,3.583084151556157
123.0,7.085837549276866e+19,1.6022498794737103e+19,0.7404279060568083,3.6159268700631864
124.0,1.0283718979684288e+20,2.299949113608943e+19,0.7414599583811077,3.650501689376214
125.0,1.4906535759791643e+20,3.298601472766611e+19,0.7424474775566499,3.6868308769046285
126.0,2.1574914667420933e+20,4.725614026773254e+19,0.7433913977341285,3.7249358083141146
127.0,3.117068785604413e+20,6.760775866163481e+19,0.7442927545731982,3.7648370585667754
128.0,4.494152833406532e+20,9.656922110788703e+19,0.745152670736281,3.8065544921361036
129.0,6.464493502901421e+20,1.3768280264349642e+20,0.7459723418913692,3.850107352043476
130.0,9.27445115462212e+20,1.95891521442925e+20,0.7467530233157709,3.8955143471702995
131.0,1.3267627225710382e+21,2.7806383706761003e+20,0.7474960171448977,3.9427937374841098
132.0,1.892063426677448e+21,3.937005326381528e+20,0.7482026603089899,3.9919634169923586
133.0,2.689082928486635e+21,5.55881586901027e+20,0.7488743131890297,4.043040994172338
134.0,3.807942313831344e+21,7.825241355345065e+20,0.7495123489976916,4.096043869920638
135.0,5.371412618282091e+21,1.0980438241094124e+21,0.7501181438970728,4.150989313052362
136.0,7.545651485659628e+21,1.535529538612295e+21,0.7506930678340168,4.207894533516698
137.0,1.0553977584690932e+22,2.1395703264306578e+21,0.7512384760831823,4.266776753727753
138.0,1.4694410214140409e+22,2.96989762012371e+21,0.7517557014592999,4.327653278333607
139.0,2.0361681088899514e+22,4.106037736684815e+21,0.7522460471719069,4.3905415631410705
140.0,2.8074618374281895e+22,5.653204853936872e+21,0.7527107802656458,4.4554592838409
141.0,3.850971469335066e+22,7.749687614881132e+21,0.753151125607781,4.522424405449144
142.0,5.254177017589217e+22,1.0576030942665206e+22,0.7535682603510031,4.591455253634716
143.0,7.1292443192196415e+22,1.4366315789257787e+22,0.7539633088210449,4.662570588989433
144.0,9.618726096809778e+22,1.942188989565509e+22,0.7543373377501058,4.735789686000936
145.0,1.2902158290066581e+23,2.6127878093206744e+22,0.7546913517904204,4.8111324181836785
146.0,1.7203550969249897e+23,3.497282198190469e+22,0.7550262892232994,4.88861935152191
147.0,2.2799731679132103e+23,4.657173357653677e+22,0.7553430177908838,4.968271848265103
148.0,3.0029417424058586e+23,6.169283289523919e+22,0.7556423305559056,5.050112183882478
149.0,3.9302838879842805e+23,8.128811686334231e+22,0.7559249417042346,5.134163679947041
150.0,5.111165762987701e+23,1.0652777845124505e+23,0.7561914821980162,5.220450856112993
151.0,6.603874406289109e+23,1.388383916034446e+23,0.7564424951746482,5.308999605301779
152.0,8.476739483457284e+23,1.7994445890924096e+23,0.7566784310014771,5.3998373958357515
153.0,1.0808939903002713e+24,2.3191277489839266e+23,0.7568996418697194,5.492993505428895
154.0,1.3691123202814703e+24,2.9719883351017113e+23,0.7571063758036056,5.588499292848454
155.0,1.7225771011467189e+24,3.786938355967376e+23,0.7572987700244543,5.686388511656182
156.0,2.1527238470303233e+24,4.79771166904063e+23,0.7574768434575916,5.786697674675759
157.0,2.672135494563202e+24,6.043302446537308e+23,0.7576404883487151,5.889466475080916
158.0,3.294457497289459e+24,7.568356268417027e+23,0.7577894608073931,5.9947382721645655
159.0,4.034254824893748e+24,9.42349092995905e+23,0.7579233701540777,6.1025606519552085
160.0,4.906812811143148e+24,1.1665518643738939e+24,0.7580416669409632,6.212986071070573
161.0,5.927872361095715e+24,1.4357543997428452e+24,0.7581436295115879,6.32607259560838
162.0,7.11331210269182e+24,1.7568904316116705e+24,0.7582283489851438,6.441884743968486
163.0,8.478752973921558e+24,2.1374937102509807e+24,0.7582947124469817,6.560494452744231
164.0,1.0039147698934484e+25,2.585652750602244e+24,0.7583413843481613,6.681982167386364
165.0,1.1808282801536862e+25,3.109944330735147e+24,0.7583667859286535,6.806438083848469
166.0,1.3798303398341285e+25,3.7193409590561724e+24,0.7583690726533802,6.933963540365936
167.0,1.6019194006213867e+25,4.423094018840067e+24,0.7583461093332803,7.064672594865705
168.0,1.847827912953853e+25,5.230590938415708e+24,0.7582954434100555,7.198693774758816
169.0,2.1179762877103016e+25,6.151187046523279e+24,0.7582142759510851,7.336172032740519
170.0,2.4124332631500273e+25,7.194014013311055e+24,0.758099430885776,7.477270898756549
171.0,2.7308780299794628e+25,8.367769777258442e+24,0.7579473222678079,7.622174863313017
172.0,3.072580170224828e+25,9.680486490420781e+24,0.7577539194491555,7.7710920046779925
173.0,3.43638542958197e+25,1.113929560372142e+25,0.7575147141205486,7.924256678071445
174.0,3.8207126795887546e+25,1.2750172640676875e+25,0.7572246812468901,8.081932730353428
175.0,4.223562030177166e+25,1.4517697814087572e+25,0.7568782462932064,8.244416580396923
176.0,4.6425497653767735e+25,1.6444815862047105e+25,0.7564692524350438,8.412040497724512
177.0,5.074946708534551e+25,1.853260758674808e+25,0.7559909284624511,8.585176123980597
178.0,5.517719593925552e+25,2.0780087390766927e+25,0.7554358609115318,8.764238089358598
179.0,5.967596460360574e+25,2.3184040298282998e+25,0.7547959766247488,8.949687274824516
180.0,6.421137736558706e+25,2.5738892878281097e+25,0.7540625319085719,9.14203402558814
181.0,6.874813291054126e+25,2.8436622410583934e+25,0.7532261108222802,9.34184121973803
182.0,7.3250758729329994e+25,3.1266727384225626e+25,0.7522766387784643,9.549726844522434
183.0,7.768444632808174e+25,3.421626557497701e+25,0.7512034170587869,9.7663655252549
184.0,8.201580334462002e+25,3.7269942529203063e+25,0.7499951736938267,9.992489538592526
185.0,8.621359566209027e+25,4.041027127405999e+25,0.7486401401011252,10.228888450704968
186.0,9.024937507679457e+25,4.361779450527627e+25,0.7471261534102386,10.476407551367569
187.0,9.409801070181282e+25,4.687137863427445e+25,0.7454407900666231,10.735944359866028
188.0,9.773811040148205e+25,5.014856342744755e+25,0.7435715293731847,11.00844323996562
189.0,1.0115230377581936e+26,5.3425963231064355e+25,0.7415059478225408,11.294887913895202
190.0,1.0432738749408222e+26,5.6679710077241255e+25,0.739231943192298,11.596291687627879
191.0,1.0725433930063405e+26,5.988592533671252e+25,0.736737985897082,11.913685317377919
192.0,1.0992819144453397e+26,6.30212071845551e+25,0.7340133928419339,12.248102552671968
193.0,1.1234779045711415e+26,6.606311509909013e+25,0.731048614538235,12.600563514874866
194.0,1.1451544666069045e+26,6.899062502427674e+25,0.7278355196684463,12.972056585637311
195.0,1.16436533993844e+26,7.178455814914234e+25,0.7243676832827499,13.363518700317421
196.0,1.1811900415940432e+26,7.442793365267031e+25,0.7206406346934914,13.775815762015636
197.0,1.1957290455346997e+26,7.6906279395518105e+25,0.7166520951676278,14.209722330669356
198.0,1.208098663596569e+26,7.920783516254206e+25,0.7124021442283182,14.665903298546823
199.0,1.2184262378795898e+26,8.132365989854466e+25,0.7078933167434888,15.144898224796794
200.0,1.2268458460855059e+26,8.324767630942213e+25,0.7031306638187681,15.647107499207515
201.0,1.2334942930897156e+26,8.497666376156898e+25,0.698121753731904,16.172779291526986
202.0,1.2385077368237727e+26,8.651005010432819e+25,0.6928765037522298,16.722007515541513
203.0,1.2420192054909788e+26,8.784971498438483e+25,0.6874070095264438,17.29473074713789
204.0,1.2441565599787436e+26,8.899976184707218e+25,0.6817273332038029,17.890733431634096
205.0,1.2450407841854574e+26,8.996626201768204e+25,0.6758532430497435,18.509648954353167
206.0,1.2447854446456789e+26,9.075684203369603e+25,0.6698018000273173,19.150977694556957
207.0,1.2434963430680261e+26,9.1380391062194e+25,0.6635910502334837,19.814099696072624
208.0,1.2412708507017876e+26,9.184678404102682e+25,0.6572396895934735,20.498284566715054
209.0,1.2038377006620307e+26,3.856501755482023e+25,0.6507666867469224,21.20271687177709
210.0,1.164985082279635e+26,1.537406190317961e+25,0.6441909763841422,21.926509236507407
211.0,1.1285395530889249e+26,6.748565966462112e+24,0.6375311587489562,22.668722620726623
212.0,1.094339958891382e+26,3.487448379302516e+24,0.6308052478009069,23.428383312432842
213.0,1.062230074703132e+26,2.2058569919883174e+24,0.6240304602203276,24.204499068222358
214.0,1.0320598479522023e+26,1.6584955286623917e+24,0.6172230485240612,24.99607362714744
215.0,1.0036863180648848e+26,1.3870771273160714e+24,0.6103981773302907,25.802119368132594
216.0,9.769742440228097e+25,1.2227785795143293e+24,0.6035698400251717,26.62166800588108
217.0,9.5179647631477e+25,1.1032158191317591e+24,0.5967508118643102,27.453779323284706
218.0,9.280341130512196e+25,1.0051313638040159e+24,0.5899526346697562,28.297548023333057
219.0,9.055764777005056e+25,9.196345873703671e+23,0.5831856282177623,29.15210883320596
220.0,8.843209625880374e+25,8.431747835222523e+23,0.5764589223660654,30.01664008909383
221.0,8.641727595088932e+25,7.74106878978826e+23,0.5697805062548293,30.89036592257714
222.0,8.450445117711465e+25,7.114926149458521e+23,0.5631572898922644,31.772557291295268
223.0,8.268559087723072e+25,6.546925248706385e+23,0.5565951747620286,32.66253201889556
224.0,8.09533262970256e+25,6.031555531127762e+23,0.5500991270321527,33.55965416728266
225.0,7.930090599605286e+25,5.5641906383937276e+23,0.5436732550086231,34.46333274288862
226.0,7.772215081964455e+25,5.1405698889618665e+23,0.5373208860826825,35.37301996581545
227.0,7.621140958467101e+25,4.756744616213976e+23,0.5310446421620632,36.2882092185737
228.0,7.476351623281742e+25,4.409069400083752e+23,0.5248465122501468,37.20843278275701
229.0,7.337374894136892e+25,4.094191740904912e+23,0.5187279213117751,38.13325945009833
230.0,7.203779147282758e+25,3.809018149107925e+23,0.5126897948963846,39.06229207410547
231.0,7.075169727402162e+25,3.550786856762271e+23,0.5067326188890219,39.99516514466186
232.0,6.951185562123529e+25,3.316929556450845e+23,0.5008564950292599,40.9315423600634
233.0,6.831496081618018e+25,3.105133040843633e+23,0.4950611911732944,41.87111431307947
234.0,6.715798383519063e+25,2.9133320453777733e+23,0.4893461870260971,42.813596267483945
235.0,6.603814619017085e+25,2.739630297245477e+23,0.48371071561459317,43.758726025930756
236.0,6.495289615138026e+25,2.5823194881561987e+23,0.47815380052846035,44.70626192108523
