Time,J,A,S,tau
0.0,100.0,100.0,0.726787200942058,10.1010101010101
1.0,1105.9390413576596,815.9077388950392,0.7328246714507811,9.213787540137398
2.0,4448.8296994953935,1496.1532099758087,0.739210424459834,8.285837128280008
3.0,9614.099606379907,2144.764913121838,0.7459461170940772,7.317144954367415
4.0,16146.781005507188,2765.3442031490154,0.7530288906801619,6.307902452529567
5.0,23647.779309946967,3361.0696155833016,0.7604496837153576,5.258571003335828
6.0,31501.384000917828,4447.482069530687,0.7620566333576018,5.029862083068702
7.0,41641.49470251658,7581.964287267739,0.7626880834734479,4.927291351562801
8.0,58029.198532731076,12260.873306910009,0.7631632502529688,4.831356092202823
9.0,82317.39257625373,17989.832207444975,0.7634443260086531,4.742678356746122
10.0,114517.1420348739,24341.806425729486,0.7634845865373133,4.662041089650267
11.0,152970.27033874593,31977.77498566114,0.7632267623725268,4.5904145739279345
12.0,197224.37261349996,44660.582410594994,0.7626013248206297,4.528984263389178
13.0,252438.9060548602,64250.78118196324,0.7615247860707931,4.4791787876792934
14.0,324329.6373959119,90599.62661359446,0.7598981800748434,4.442696059484084
15.0,416078.9040963562,122389.257279405,0.7576059540009757,4.421524782464754
16.0,526359.7729080082,159724.20098393675,0.7545155817903928,4.417957729017605
17.0,651665.2124888857,206471.9216713789,0.75047827867983,4.434592474136559
18.0,791777.9560281967,265964.6459410164,0.7453312443969429,4.4743147065644635
19.0,948792.3872152728,338602.32016218593,0.7389018492845764,4.5402593986853645
20.0,1124108.3046609622,421856.5820290518,0.7310140888136208,4.6357456706430895
21.0,1315734.6149576434,512240.8434069027,0.7214973915837278,4.764183906826367
22.0,1518021.2864600774,607424.4843942045,0.7101975542741834,4.928955856144696
23.0,1724249.3446852951,705491.0625227181,0.6969891161103164,5.133273306369433
24.0,1928280.9987941112,803797.6378354471,0.6817879772230317,5.380025334183485
25.0,2124784.007730797,898765.9937602528,0.664562839511785,5.671626948497851
26.0,2308947.087567659,986396.9302146066,0.6453436523400664,6.0098861948258655
27.0,2476266.6572893267,1063042.854386059,0.6242257511424687,6.395903675379481
28.0,2622620.7074634964,1126020.8983470576,0.6013687184356235,6.8300164224827284
29.0,2744592.178862181,1173823.2605596285,0.5769897956667025,7.311792980534623
30.0,2839776.8848889195,1206041.2103171232,0.5513526272290449,7.84007851763445
31.0,2906932.430545596,1223165.9033869104,0.524752866263978,8.413079879515434
32.0,2945963.435057013,1226347.6614858715,0.49750217581222805,9.028484736187876
33.0,2957780.9840199347,1217167.5880572556,0.4699128721473408,9.683592654481414
34.0,2944121.0303786146,1197434.5048542917,0.44228414827632745,10.375449833237557
35.0,2907319.7189038135,1169021.0721568218,0.41489144236977255,11.100975746778056
36.0,2850106.938845093,1133742.1370476573,0.38797867767545824,11.857071843930797
37.0,2775415.263632996,1093274.2989121273,0.3617541748031061,12.640709298964596
38.0,2686223.7876567193,1049107.291730019,0.3363888115463902,13.448996109739323
39.0,2585435.562154201,1002525.0780137401,0.3120169946773388,14.279221321678715
40.0,2475786.9274160233,954603.0640752587,0.28873864495584994,15.128884071801826
41.0,2359788.9730394287,906220.9670360105,0.2666227831856673,15.995704894952283
42.0,2239690.626259061,858080.2715778728,0.2457111049341627,16.877628953982775
43.0,2117464.964527135,810727.4592738658,0.22602224243680397,17.77281814296197
44.0,1994807.0390645347,764576.0053919052,0.20755541576681544,18.679640481228045
45.0,1873145.2181425062,719928.8315826191,0.19029436519060783,19.596654161751196
46.0,1753657.8799547164,676998.0040563915,0.1742103356645104,20.52259095480505
47.0,1637294.4940728075,635922.1503890038,0.15926517693769385,21.456339535329278
48.0,1524800.5401734284,596781.8878825308,0.14541372764538385,22.396927568088753
49.0,1416740.9975461094,559612.2193194499,0.1326059345466504,23.343506423143356
50.0,1313523.9779425939,524413.0273345159,0.1207884588413834,24.295336063008875
51.0,1215423.4517082225,491157.6739832812,0.10990619107009099,25.25177165458063
52.0,1122600.1667490106,459799.92796112126,0.0999033616698497,26.212251307849556
53.0,1035120.4986115843,430279.4730334704,0.09072443099979625,27.176285285121484
54.0,952973.3061444763,402526.27072712436,0.08231478819075612,28.143446486810817
55.0,876084.8004220858,376463.9812963247,0.07462128505908658,29.113362106097224
56.0,804331.4829096373,352012.61536552315,0.06759262938709439,30.085706342243363
57.0,737551.1861860419,329090.5552164619,0.06117965394709113,31.06019407821527
58.0,675552.9998847981,307616.1495051647,0.05533555992922555,32.036575387555224
59.0,618125.4185705365,287508.86801869597,0.050016034622321896,33.014630753082855
60.0,565042.9198377803,268690.10688912123,0.04517927552516899,33.99416688383998
61.0,516071.2768543156,251083.74795572407,0.040785972379618826,34.97501318706184
62.0,470972.4500073241,234616.61072972545,0.03679932735905012,35.957018738806305
63.0,429508.87700471684,219218.77768981727,0.03318505885301446,36.94004960355278
64.0,391445.97640573134,204823.66725303416,0.029911261638845284,37.923986457133026
65.0,356554.21458975284,191368.0733953986,0.026948297655771662,38.90872264711676
66.0,324611.64228854614,178792.25460278513,0.024268773627669278,39.89416246337798
67.0,295404.87976130546,167039.82627694664,0.021847387041463565,40.8802195663207
68.0,268729.7759408157,156057.6453982929,0.019660788354215995,41.866815692390716
69.0,244392.6353213021,145795.77880217962,0.017687527297427282,42.85387951058657
70.0,222210.3798525068,136207.33980130387,0.015907911183396344,43.841345555465566
71.0,202010.4246529737,127248.31813471261,0.014303865998670702,44.8291533281062
72.0,183631.08039360348,118877.49639742216,0.012858867208552446,45.81724649848526
73.0,166921.33005190603,111056.2884119702,0.011557821603464517,46.80557214359003
74.0,151740.32197205586,103748.56215116323,0.01038694109698683,47.79408007903618
75.0,137957.27156224806,96920.53510294641,0.009333667573363978,48.78272224869296
76.0,125451.110419677,90540.6384486958,0.008386581134207543,49.771452129179885
77.0,114109.82980943932,84579.35273515333,0.007535291533890672,50.76022417623844
78.0,103830.11593605966,79009.09830613442,0.006770364785109435,51.74899328903308
79.0,94516.99016673549,73804.13021818957,0.006083254592178268,52.73771427345199
80.0,86083.17607883079,68940.40056297483,0.0054662158831136065,53.72634131015973
81.0,78448.5260878774,64395.43652217293,0.00491222953068994,54.71482739920687
82.0,71539.75463079325,60148.2695138264,0.004414956730619203,55.703123793044476
83.0,65289.83379541928,56179.31769342022,0.003968668418912234,56.69117937275239
84.0,59637.59746190649,52470.30257735134,0.0035681951540491304,57.67894000481529
85.0,54527.26567341465,49004.157308941125,0.0032088733487967637,58.66634779451632
86.0,49908.0546733152,45764.94914575491,0.0028865005957108875,59.65334031215734
87.0,45733.772736582934,42737.80301449692,0.0025972920921893392,60.63984965575222
88.0,41962.449845031326,39908.829705841796,0.0023378412665915425,61.625801476779216
89.0,38555.999184904846,37265.06281198822,0.0021050847433261126,62.61111376139093
90.0,35479.87537649205,34794.39241462346,0.0018962680205744731,63.59569556018692
91.0,32702.79395777776,32485.513562199594,0.0017089174880955658,64.57944536256323
92.0,30196.423501883022,30327.865287645316,0.001540810841755734,65.56224939534432
93.0,27935.15405035638,28311.58870000132,0.0013899547899420858,66.54397941291967
94.0,25895.826133625545,26427.4713522327,0.0012545598827599213,67.52449036856953
95.0,24057.53931272605,24666.91311779753,0.0011330227313488758,68.50361736422809
96.0,22401.41853402703,23021.87586937018,0.0010239048595786573,69.4811724046655
97.0,20910.45524135514,21484.855607436988,0.0009259184947759951,70.45694012989222
98.0,19569.30946644946,20048.837284932575,0.0008379089940595429,71.43067321666003
99.0,18364.177308244165,18707.271950678038,0.0007588434669083474,72.40208632889146
100.0,17282.625942838058,17454.03647163326,0.0006877963153713965,73.37084950034645
101.0,16313.482400786903,16283.414702181182,0.0006239401088898706,74.33657944156317
102.0,15446.698069837375,15190.061812349904,0.000566533795458175,75.29882986474814
103.0,14673.254652187992,14168.988703461773,0.0005149153762675895,76.25707880432061
104.0,13985.054539160361,13215.530639074392,0.00046849238221903207,77.21071422631385
105.0,13374.840626038633,12325.334308421458,0.0004267359984537791,78.15901521462641
106.0,12836.10902080295,11494.330474137703,0.00038917345047695303,79.101130145126
107.0,12363.040066752152,10718.72325076336,0.00035538331454338176,80.03604818973713
108.0,11950.430111843649,9994.966533586105,0.00032498951770493277,80.96256543247699
109.0,11593.631680706256,9319.755225659743,0.000297657649159893,81.87924058345956
110.0,11288.50142166167,8690.005309606993,0.0002730903531876683,82.7843408114497
111.0,11031.347922456642,8102.846960892588,0.00025102454528298497,83.67577056868912
112.0,10818.893934498474,7555.608008381843,0.00023122805928838414,84.55098179796569
113.0,10648.229885270483,7045.8100712135965,0.00021349788929860095,85.40685323554172
114.0,10516.787421901834,6571.1555526191405,0.0001976581140688792,86.23953561294755
115.0,10422.305103714574,6129.52577929216,0.00018355940197206593,87.04423157265603
116.0,10362.800809116376,5718.976312429602,0.00017107894683670525,87.81490647206803
117.0,10336.562983915272,5337.735359349093,0.0001601220663980809,88.54386369691532
118.0,10342.121054106896,4984.212381871823,0.0001506262324087177,89.22112241947143
119.0,10378.23869315282,4657.00865265239,0.0001425686278010872,89.83346981492318
120.0,10443.904042547185,4354.941380450048,0.00013598073424551536,90.3629401017346
121.0,10538.344805093542,4077.0813361113505,0.00013097523072815877,90.78435078346624
122.0,10661.054979073677,3822.8277729033566,0.00012780247129091433,91.06069291161548
123.0,10811.777894877918,3592.050966558963,0.00012697169463888932,91.13429377685561
124.0,10990.507194293466,3385.3702319584213,0.00012954934907867963,90.90762579469522
125.0,11197.376307492728,3204.7837590325043,0.00013803309262215525,90.19503913576305
126.0,11432.061104671378,3055.3727824794864,0.0001597231092432109,88.5714346356799
127.0,11690.30206210613,2951.731735643522,0.000228675593984229,84.66972792133369
128.0,11918.371966550798,2977.2938878049686,0.0013082153935503615,67.12342500314823
129.0,11329.904490939314,4222.644483224158,0.17628093284068608,20.396641345446547
130.0,11535.777384950203,5620.3414048246095,0.34747959870958717,13.086180683067386
131.0,12949.444506116393,6722.695391655591,0.4564865382190916,10.012085527726361
132.0,15417.623384739045,7635.448006726694,0.5322764007293739,8.2452728179673
133.0,18864.856589062823,8431.998337213601,0.5875370033057653,7.097863397470146
134.0,23264.373336536773,9181.08846816654,0.628951999122485,6.305160592028122
135.0,28389.0805623916,10295.721905085486,0.660519100644913,5.738662213992859
136.0,34396.682145902596,12574.040594445178,0.6848351209964979,5.3267080945168646
137.0,42879.21890104137,15783.471950997595,0.7036838933915882,5.02547457318286
138.0,55362.10387559953,19761.57076654498,0.7183406104715837,4.806335473979662
139.0,73377.58545058614,24457.48987424178,0.7297436777212781,4.649656012174621
140.0,98461.85412751623,30158.484289472308,0.7385987359291109,4.541458043528182
141.0,132727.7392563882,37911.83622313904,0.7454451360777143,4.47149908004865
142.0,180568.80338600546,48727.608790247345,0.7507002628113789,4.432103195474659
143.0,249024.11125206074,63515.585947612206,0.7546901913605095,4.417415414085849
144.0,348110.4523732747,83223.37496529924,0.7576715016192799,4.422907832580297
145.0,491365.8097104735,109271.75490731394,0.7598471859901469,4.445041408121671
146.0,697743.5777236248,144291.09746346044,0.761378486815707,4.481027631600676
147.0,995777.5897552314,192224.64554740803,0.7623938540620717,4.528656353948721
148.0,1428879.8436335812,258367.70499387465,0.7629958187747641,4.58616867374219
149.0,2061882.0551999165,349551.9925965533,0.7632663278401397,4.652161307203465
150.0,2989381.0238941605,474787.47838773055,0.7632709231298396,4.725513464644178
151.0,4348066.091424824,646783.0751070374,0.7630620397118981,4.805330157900769
152.0,6336743.103922709,883862.7929762972,0.7626816239235097,4.890897734235368
153.0,9246807.09964421,1212108.559301969,0.7621632207797253,4.981648663743357
154.0,13505951.642214421,1667851.48554496,0.7615336436543281,5.077133437682099
155.0,19738549.45261367,2300799.4090463864,0.7608143127866909,5.176998003913446
156.0,28848091.57306232,3178712.77670521,0.7600223297627815,5.280965562841063
157.0,42132075.87181981,4394566.252043494,0.7591713406078678,5.3888218296850905
158.0,61444749.68665751,6076662.555435424,0.7582722291207731,5.5004030732521185
159.0,89426839.27950816,8402126.788190193,0.7573336736050131,5.615586391983996
160.0,129824798.87429897,11614264.688911438,0.756362593528286,5.734281801371273
161.0,187925153.16902068,16044501.328044875,0.7553645074638413,5.856425792412383
162.0,271133688.4851476,22140533.375255097,0.7543438195258416,5.981976087604403
163.0,389738127.4800768,30503367.073008794,0.7533040482028812,6.110907373225915
164.0,557905812.1357293,41936351.550452776,0.7522480088318011,6.243207828196721
165.0,794981342.688248,57509471.33438356,0.7511779588025814,6.378876303123066
166.0,1127160424.4003808,78642138.06394243,0.7500957128422056,6.517920030076093
167.0,1589622430.0248744,107207499.53152142,0.7490027343126292,6.660352765538481
168.0,2229202175.334179,145661142.64032224,0.7479002073046275,6.806193287036916
169.0,3107672166.133804,197197656.74738422,0.7467890933810479,6.955464178529256
170.0,4305694244.119406,265939737.90827015,0.7456701760662192,7.108190851679174
171.0,5927479005.762008,357165689.46541065,0.7445440955613702,7.264400760495233
172.0,8106183449.409616,477581718.83768064,0.7434113756723697,7.424122774235295
173.0,11010044416.874779,635644787.8011421,0.7422724445549391,7.587386680293797
174.0,14849181130.834892,841941753.9256164,0.7411276505012032,7.75422279621537
175.0,19883002310.150566,1109625708.631847,0.7399772738258673,7.924661670342837
176.0,26427978762.900566,1454909825.287886,0.7388215356052632,8.098733859240017
177.0,34865542826.97068,1897612497.260039,0.7376606039324287,8.276469768829095
178.0,45649662125.03206,2461746908.527573,0.7364945981710157,8.45789955156622
179.0,59313607797.09181,3176142925.8148284,0.7353235916164399,8.643053052194373
180.0,76475357124.75055,4075089623.3194966,0.7341476128653495,8.83195979648926
181.0,97840881819.99515,5198979462.329203,0.7329666461585771,9.024649020090926
182.0,124204875198.12102,6594937351.865849,0.7317806308726733,9.22114973249385
183.0,156447907429.24615,8317411609.371719,0.7305894603319135,9.421490816669174
184.0,195530079038.1397,10428691697.699253,0.7293929800780332,9.625701158532495
185.0,242479980475.45737,12999332138.99345,0.7281909856650008,9.833809809511687
186.0,298379412650.1472,16108429920.492447,0.7269832201127848,10.045846176998936
187.0,364343050516.889,19843729811.30371,0.7257693710502854,10.26184024507663
188.0,441494172370.7752,24301491339.23181,0.72454906766284,10.481822820662417
189.0,530935435886.0728,29586108206.429478,0.7233218774647505,10.705825808741643
190.0,633716879550.1271,35809413640.63276,0.7220873029518413,10.933882511067061
191.0,750800982415.4869,43089658694.79307,0.72084477828274,11.166027947973378
192.0,883026830333.9576,51550139760.98683,0.7195936658879749,11.402299202628132
193.0,1031073214985.5203,61317495012.412285,0.7183332532553279,11.642735784275136
194.0,1195424463093.422,72519634688.6581,0.7170627498227294,11.887380005613348
195.0,1376339306917.412,85283351121.63985,0.715781284133449,12.13627737147656
196.0,1573823584984.2493,99731673197.63074,0.7144879012681722,12.389476977572935
197.0,1787611481353.4187,115980918088.67662,0.7131815608208486,12.647031900526825
198.0,2017147005640.4795,134137822698.73822,0.7118611350926891,12.908999606513518
199.0,2261588254868.9355,154296020679.2181,0.710525408252146,13.175442308119552
200.0,2519796435974.361,176533468256.03394,0.7091730757079773,13.446427363419437
201.0,2790364127653.8667,200908804999.42755,0.7078027452097455,13.722027546641185
202.0,3071627080294.708,227458590547.57916,0.7064129375541328,14.002321395265717
203.0,3361691558045.7627,256194962042.6203,0.7050020895556314,14.28739342160849
204.0,3658477880747.088,287102884977.01953,0.703568557834336,14.577334260648822
205.0,3959754661346.561,320138438858.22766,0.7021106232004585,14.872240822402649
206.0,4263181762650.251,355227865724.2551,0.7006264973062778,15.172216280385923
207.0,4566363991888.782,392266397828.6749,0.6991143305373415,15.477369951831244
208.0,4866896485011.9,431118133725.8012,0.6975722209318084,15.787817134780875
209.0,5162407631584.945,471617126830.453,0.6959982251199683,16.103678781436148
210.0,5450606959861.509,513568472219.5971,0.6943903708393433,16.425081009494132
211.0,5729329280021.732,556749868401.7882,0.6927466708943767,16.75215448281694
212.0,5996564667711.827,600914938598.5323,0.6910651384440347,17.085033705377505
213.0,6250493212607.709,645796101651.9575,0.6893438040748024,17.42385606284367
214.0,6489508437213.426,691108501743.9478,0.6875807338987466,17.768760758489723
215.0,6712235271543.514,736554249020.9838,0.6857740487675498,18.11988758655879
216.0,6917541453608.805,781827078017.3452,0.6839219443324309,18.477375557560674
217.0,7104542682077.143,826617153683.3823,0.682022711675195,18.841361385858033
218.0,7272601717044.509,870616090412.2286,0.6800747581960837,19.211977853361688
219.0,7421322179184.067,913521833009.229,0.6780766284672342,19.589352063599293
220.0,7550537482408.551,955043703512.3839,0.6760270247910793,19.973603606311055
221.0,7660296325380.456,994906570563.7039,0.6739248263408356,20.364842717423922
222.0,7750843835292.169,1032855200910.5724,0.6717691074409795,20.763168345359027
223.0,7822601436836.396,1068658024929.247,0.6695591547381547,21.168666218575197
224.0,7876145299356.955,1102109748416.759,0.6672944807973843,21.581407077779946
225.0,7912181333545.61,1133034958348.8677,0.6649748372959647,22.001444775011933
226.0,7931525110090.197,1161288445277.4033,0.6626002231247654,22.42881477384374
227.0,7935081220258.915,1186756112678.653,0.6601708954333374,22.863532269961272
228.0,7923814504120.862,1209357912083.8252,0.6576873705162576,23.305590931623787
229.0,7898733531580.854,1229046109388.3662,0.655150423887242,23.754961826285143
230.0,7860872736925.353,1245804405513.0493,0.652561088474786,24.211592418790342
231.0,7811277496086.454,1259645518754.007,0.6499206520768557,24.675405564100547
232.0,7750985578405.884,1270611514012.3235,0.6472306508491757,25.146298703198195
233.0,7681015075530.894,1278771198009.9453,0.6444928559960718,25.62414379468394
234.0,7602355267201.076,1284216866037.1533,0.6417092615545603,26.108787175140215
235.0,7515958341506.429,1287061382440.7205,0.6388820708798184,26.600049542603447
236.0,7422732737321.128,1287434544075.315,0.6360136832125665,27.09772585543196
237.0,7323535461416.055,1285482546165.3699,0.633106675959031,27.601585714744086
238.0,7219170300940.914,1281363385255.0537,0.6301637872467577,28.111373814598796
239.0,7110387206276.151,1275244100296.9438,0.627187895165151,28.62681113126798
240.0,6997881261089.038,1267296091538.2615,0.6241820047455344,29.14759485131771
241.0,6882289095070.681,1257696039195.3792,0.621149230999213,29.67339877055939
242.0,6764193094528.873,1246622248179.298,0.6180927791809427,30.203874750215956
243.0,6644123784761.849,1234251516795.316,0.6150159307662213,30.738653368267954
244.0,6522560733734.469,1220756433922.5256,0.6119220313411964,31.277343913459372
245.0,6399933836139.242,1206306373610.5874,0.6088144772787326,31.819535012942094
246.0,6276628713579.45,1191064639110.983,0.6056967039563175,32.36479564927065
247.0,6152989615313.247,1175186899573.084,0.6025721775539643,32.912675411819855
