Time,J,A,S,tau
0.0,100.0,100.0,0.6462304299207573,31.25
1.0,3684.3924547074157,861.3357360697519,0.64420139168193,31.607086469770454
2.0,14092.095696842529,1608.3622228834117,0.6421869216542421,31.962563202893847
3.0,31206.79946396584,2341.4105759358354,0.6401874032721809,32.31633814058939
4.0,54920.97234890077,3060.8072079779145,0.6382032007218169,32.66832209525371
5.0,85135.47418143785,3766.870766169763,0.6362346759460064,33.01842573959159
6.0,121759.19962098179,4459.912351792245,0.6342821888046548,33.366559602824836
7.0,164708.6606219103,5140.235800471365,0.6323460972426184,33.712634068289574
8.0,213907.70579520156,5808.137834053079,0.6304267574365435,34.05655936991468
9.0,269287.1401076743,6463.908309697386,0.6285245239591665,34.39824559099791
10.0,330784.3796949629,7107.8304351878205,0.6266397499275809,34.73760266254699
11.0,398343.1415333504,7740.180950459029,0.6247727871499038,35.07454036207925
12.0,471913.0479187188,8361.23038634341,0.6229239862709953,35.408968313445726
13.0,551449.1248483487,8971.243438815429,0.6210936969286667,35.74079599038093
14.0,636912.418553115,9570.478281110494,0.6192822678758027,36.06993271112467
15.0,728268.3489695004,10159.18791177237,0.617490047092793,36.39628763973899
16.0,825486.5424407556,10737.620406561042,0.6157173820094897,36.71976981028853
17.0,928543.0575267012,11306.016369234703,0.6139646195095357,37.04028807971403
18.0,1037414.342961094,11864.614963851871,0.6122321061644018,37.35775121130418
19.0,1152084.8300863819,12413.645890220865,0.6105201882897623,37.67206777001105
20.0,1272540.9670029122,12953.33618624037,0.6088292121359847,37.98314625585784
21.0,1398768.8577006173,13483.910365454432,0.6071595238654293,38.290894996895936
22.0,1530765.6513640538,14005.581610295589,0.6055114699226553,38.59522221201257
23.0,1668520.9221008318,14518.567978548648,0.6038853967148964,38.89603604938809
24.0,1812033.7586821103,15023.075642159727,0.6022816513006104,39.19324449358739
25.0,1961303.8756503873,15519.309432409082,0.6007005808705534,39.486755498124005
26.0,2116326.5563554093,16007.474007879635,0.5991425332844488,39.77647690544731
27.0,2277109.2411982026,16487.76086112033,0.5976078572618859,40.062316482066436
28.0,2443652.6693684966,16960.36610111145,0.5960969016444967,40.34418197514118
29.0,2615956.737143285,17425.48096068643,0.5946100167087874,40.62198106070215
30.0,2794030.906338549,17883.28667452355,0.5931475534405065,40.895621397595015
31.0,2977873.2537391023,18333.971993537787,0.5917098632299065,41.165010630787
32.0,3167486.790990507,18777.714715831924,0.5902972995873349,41.43005642909066
33.0,3362880.8252992197,19214.686018553926,0.5889102165352262,41.69066647453822
34.0,3564052.2471020557,19645.06501000681,0.5875489687148809,41.94674845728486
35.0,3770999.451506022,20069.021514131517,0.5862139133318082,42.19821021060595
36.0,3983728.0058340156,20486.717743320307,0.5849054081952293,42.44495961544871
37.0,4202230.844182439,20898.324267352953,0.583623811747645,42.686904568786936
38.0,4426499.112283704,21304.003532142604,0.5823694854970877,42.92395327301446
39.0,4656531.913705402,21703.908860003357,0.581142791786644,43.15601404613307
40.0,4892321.543281766,22098.198280061457,0.5799440932919758,43.382995210609735
41.0,5133844.940843978,22487.032714018314,0.5787737558259247,43.60480547312076
42.0,5381089.887876832,22870.558315460385,0.5776321469201839,43.82135388562707
43.0,5634043.26691546,23248.92135752831,0.5765196343091432,44.03254953149353
44.0,5892676.193878212,23622.273355387704,0.5754365882639855,44.23830187060697
45.0,6159971.04419931,25360.301302642227,0.575959471282702,44.12736051141562
46.0,6487254.527748594,32888.91620653325,0.577188251666639,43.87774372651936
47.0,6963664.867099123,46480.89691620212,0.5784448636593019,43.623436724895626
48.0,7680085.667381401,66077.13281596461,0.5797287112532333,43.364621498133516
49.0,8728309.82436576,91625.9781307966,0.581039170593061,43.10148476806908
50.0,10201062.69980811,123082.90787049312,0.5823755907166877,42.83421761885884
51.0,12192015.164751891,160410.1546658258,0.5837372943725538,42.56301511515704
52.0,14795783.566717125,203576.32060010626,0.5851235789321699,42.288075904785025
53.0,18107917.46522985,252555.9679337506,0.5865337173738251,42.009601810955
54.0,22224874.395097427,307329.18365858326,0.5879669593462056,41.727797414167405
55.0,27243978.77266001,367881.11916285846,0.5894225323090274,41.44286962603855
56.0,33263366.682016388,434201.5082401857,0.5908996427203235,41.15502725936866
57.0,40381916.92929688,506284.148259438,0.592397477318041,40.86448059232493
58.0,48699164.682384945,584126.3686583836,0.5939152044209631,40.571440934335385
59.0,58315197.38735883,667728.4685802424,0.5954519752992387,40.27612019144122
60.0,69330541.32511042,757093.1046085479,0.5970069255828949,39.97873043587691
61.0,81846013.12321664,852224.7143666387,0.5985791767026656,39.67948348106464
62.0,95962569.9685273,953128.8347270057,0.6001678373457859,39.3785904632736
63.0,111781159.51814485,1059811.4677635655,0.6017720049635916,39.07626143549719
64.0,129402483.03551148,1172278.399508448,0.6033907672627811,38.77270497151369
65.0,148926845.34800962,1290534.5086617037,0.6050232037003844,38.468127780445485
66.0,170453859.34418955,1414583.0369748417,0.6066683869932445,38.16273433912824
67.0,194082292.9546937,1544424.8775242828,0.6083253846238573,37.8567265517489
68.0,219909734.7491413,1680057.8325653414,0.6099932602835226,37.5503033976676
69.0,248032340.45259756,1821475.9155414372,0.6116710753442649,37.24366062665828
70.0,278544564.78881025,1968668.5914150456,0.6133578902727299,36.93699047412976
71.0,311538817.60019565,2121620.031659018,0.6150527660046109,36.63048137277932
72.0,347105223.5666232,2280308.44895167,0.616754765282605,36.32431771765639
73.0,385331173.9682375,2444705.3419320956,0.6184629539405582,36.01867961789941
74.0,426301147.57405365,2614774.887684845,0.6201764021280861,35.7137427165412
75.0,470096171.3767945,2790473.2260370157,0.6218941854927941,35.4096779735399
76.0,516793686.603665,2971747.8415540885,0.6236153862538424,35.10665154914543
77.0,566467018.4901953,3158537.01488473,0.6253390943072011,34.804824607158395
78.0,619185189.0903171,3350769.168538564,0.6270644081096328,34.50435326270662
79.0,675012533.9774903,3549263.680965406,0.6287904354040897,34.2053884995262
80.0,734281841.2730714,3802160.948222968,0.6305162944050632,33.90807603460957
81.0,798933880.742503,4227092.36774571,0.6322411142104023,33.61255631752228
82.0,873208315.4811193,4947816.479872802,0.6339640355078116,33.31896449634823
83.0,963663394.1422482,6088693.698924962,0.6356842111114249,33.02743041373517
84.0,1079164849.4941134,7774567.19698627,0.6374008064092943,32.738078622104695
85.0,1230865144.7987242,10130609.612254433,0.6391129997183772,32.45102841846275
86.0,1432172918.0029697,13282134.803947233,0.6408199825487049,32.16639389679883
87.0,1698711320.903024,17354373.972901896,0.6425209597722774,31.8842840186956
88.0,2048266461.444708,22472214.72565203,0.6442151497039568,31.604802698705818
89.0,2500723605.5710735,28759903.663457155,0.6459017840843034,31.328048907231395
90.0,3077992498.1185822,36340712.29834251,0.6475801079773639,31.054116785357397
91.0,3803920583.236002,45336566.63947664,0.6492493795742195,30.783095774742506
92.0,4704194238.996115,55867641.64571842,0.6509088699105017,30.515070758944095
93.0,5806229351.840468,68051920.70801745,0.6525578624996986,30.25012221579556
94.0,7139048672.837758,82004725.19328667,0.6541956528808456,29.98832638068614
95.0,8733147386.483751,97838214.57088545,0.6558215480920742,29.729755417047535
96.0,10620352645.52585,115660856.36793719,0.6574348660700511,29.474477595963986
97.0,12833663140.61337,135576882.34830764,0.6590349349756195,29.22255748192124
98.0,15407087038.883379,157685720.24062183,0.6606210924621247,28.974056124141196
99.0,18375467607.141724,182081415.11782682,0.6621926848889331,28.72903125098859
100.0,21774302117.968765,208852042.57654557,0.663749066487047,28.48753746792192
101.0,25639545934.598003,238079127.975424,0.6652895984819953,28.249626456969864
102.0,30007422314.597015,269837058.45312035,0.6668136482005292,28.01534717465247
103.0,34914223551.07325,304192517.6399439,0.6683205881542172,27.784746050868918
104.0,40396097601.1402,341203956.5167929,0.6698097951124705,27.55786718618618
105.0,46488844129.62097,380921031.19495726,0.6712806492126928,27.334752533072887
106.0,53227709753.30983,423383313.2081196,0.6727325330650321,27.115442093464555
107.0,60648155636.31495,468914321.0196203,0.6741648309145175,26.899974083926836
108.0,68804248852.37009,519954179.403415,0.675576927920509,26.688385104990957
109.0,77819362502.2311,582189643.5747843,0.6769682094228991,26.480710297240872
110.0,87943258339.87003,664494062.1593434,0.6783380603688952,26.276983483572266
111.0,99604806576.14194,778787655.4715489,0.679685864858399,26.077237295782247
112.0,113459868662.9376,939877726.1466216,0.6810110058360664,25.881503284252787
113.0,130433878616.7215,1165277521.860712,0.682312864955193,25.689812009316842
114.0,151759073144.09183,1475006570.113157,0.6835908226366348,25.50219311159282
115.0,179006009778.1798,1891371056.4463303,0.6848442583483897,25.31867536020597
116.0,214109309847.3327,2438727627.9691744,0.6860725511253305,25.139286676908977
117.0,259387644153.0413,3143230399.2401295,0.6872750803559864,24.964054134457925
118.0,317557707804.748,4032563856.221749,0.6884512268523313,24.793003928330574
119.0,391742509159.8631,5135663693.777044,0.689600374224962,24.626161320000573
120.0,485473887991.4994,6482427205.428893,0.6907219105780785,24.463550551395794
121.0,602689476389.8442,8103416592.411158,0.6918152305372575,24.30519472962966
122.0,747724485896.6375,10029557435.880104,0.6928797376199761,24.15111568171882
123.0,925298185417.7445,12291835876.31559,0.6939148469525972,24.001333779518237
124.0,1140496037016.7476,14920996785.243092,0.6949199883336399,23.855867735288612
125.0,1398747153288.4736,17947247076.40802,0.6958946096415509,23.714734368495698
126.0,1705798071333.7212,21399967128.88966,0.6968381805567622,23.57794834696569
127.0,2067683116190.47,25307432684.54137,0.6977501966227311,23.44552190024147
128.0,2490691293347.9243,29696553104.42078,0.6986301835535776,23.317464513896283
129.0,2981331805866.861,34592623658.238594,0.6994777018243897,23.193782601307596
130.0,3546297732254.0547,40019730808.66629,0.70029235146991,23.074479159798116
131.0,4192514236153.2676,46017846823.74818,0.7010737770369713,22.959553415601455
132.0,4927754186872.345,52698701734.53993,0.7018216726665041,22.84900045963576
133.0,5762244312355.949,60309428073.41593,0.7025357872293686,22.74281088045878
134.0,6711166522975.318,69286537392.88083,0.7032159294211952,22.64097040195534
135.0,7797860415752.104,80300064034.30052,0.7038619728505134,22.543459522852622
136.0,9057527798320.24,94287725336.54787,0.704473860920529,22.45025317410498
137.0,10541275578153.24,112479746504.20876,0.7050516115058516,22.361320393802217
138.0,12320326141865.268,136414878840.52303,0.7055953213378463,22.276624026165933
139.0,14490266982963.668,167948081243.9804,0.7061051699924463,22.196120452926028
140.0,17175223182012.723,209250766853.99255,0.7065814234527239,22.11975935893953
141.0,20531833744279.273,262804214294.79614,0.7070244371294797,22.04748354091276
142.0,24752965245802.85,331386987304.32574,0.7074346582821572,21.979228763515874
143.0,30071100440966.562,418057302274.11066,0.7078126278069574,21.91492366520501
144.0,36761326888313.336,526131057628.68005,0.7081589812885405,21.854489721474792
145.0,45143926017523.05,659156383949.4537,0.7084744492802019,21.79784126812056
146.0,55586520962398.24,820885654897.848,0.7087598568014546,21.744885585114044
147.0,68505782680694.8,1015245570918.1519,0.7090161219678165,21.69552304749198
148.0,84368715942041.81,1246306121327.2322,0.7092442537611261,21.649647342537005
149.0,103693487022494.92,1518249157724.5742,0.7094453489166505,21.607145754838424
150.0,127049920704555.47,1835337007914.6858,0.7096205879185341,21.567899520065154
151.0,155059523470648.0,2201881930749.888,0.7097712301357151,21.531784244709094
152.0,188395365122245.88,2622230661031.888,0.7098986080598787,21.498670395110512
153.0,227782647064501.78,3100989821903.5244,0.7100041207080731,21.468423850273684
154.0,274007266360102.44,3643960775602.066,0.7100892262573097,21.440906514804674
155.0,327943016626661.06,4259840422750.0576,0.7101554338685749,21.415976993414475
156.0,390607786417281.75,4962482403490.358,0.7102042948158613,21.393491319721203
157.0,463254764071607.6,5773535555287.498,0.7102373929973949,21.373303733263388
158.0,547501976574036.8,6725285758884.34,0.7102563348309473,21.355267503735174
159.0,645502648399699.4,7863560262643.521,0.7102627386577305,21.339235793534577
160.0,760154856244920.0,9250619082706.244,0.7102582237453552,21.325062552137176
161.0,895350370518245.6,10967916038948.695,0.7102443989381783,21.312603437539597
162.0,1056259334321986.8,13118672498918.25,0.7102228510874691,21.30171675459949
163.0,1249648121509636.0,15830224030602.562,0.7101951333498795,21.29226440355666
164.0,1484227745212399.2,19256109492273.895,0.7101627534406569,21.284112831810518
165.0,1771028737728745.8,23577860954913.664,0.710127161987716,21.277133976553824
166.0,2123798186122987.2,29006497367909.93,0.7100897410866309,21.271206190500784
167.0,2559416550591205.5,35783724412050.766,0.7100517931456315,21.26621514354066
168.0,3098331898863985.0,44182826825163.44,0.7100145301635467,21.262054688197807
169.0,3765005126278018.5,54509255157193.74,0.7099790635896577,21.258627676402682
170.0,4588364923285136.0,67100933601531.1,0.7099463948316135,21.255846722415342
171.0,5602271100203205.0,82328296187762.03,0.7099174065205791,21.253634902685228
172.0,6845982041418319.0,100594038275549.28,0.7098928547321827,21.25192637570496
173.0,8364621489610375.0,122332629392152.28,0.7098733622107185,21.250666918194394
174.0,1.0209646986256282e+16,148010124368977.62,0.7098594126694371,21.249814371586798
175.0,1.2439346817279396e+16,178128114816862.4,0.7098513463186337,21.249338985981467
176.0,1.5119468847429798e+16,213239561716436.72,0.7098493567257872,21.249223652924837
177.0,1.8324212202166908e+16,253983472873701.06,0.7098534889986918,21.24946402814332
178.0,2.2137903218995104e+16,301143020993820.75,0.70986363936009,21.25006853862667
179.0,2.6657719529557236e+16,355729432444337.4,0.7098795562302752,21.251058264434626
180.0,3.1997857362945252e+16,419092300881622.56,0.7099008427629724,21.252466700293848
181.0,3.829559095892087e+16,493055875687996.06,0.7099269608064679,21.25433939972644
182.0,4.571953511662542e+16,580079200170113.9,0.7099572363782897,21.256733494514123
183.0,5.448062100476574e+16,683438459655319.4,0.70999086641846,21.259717109901054
184.0,6.484594829889866e+16,807426917353924.1,0.7100269269944948,21.263368661046396
185.0,7.715605736819789e+16,957571346571191.6,0.7100643825637406,21.267776064587423
186.0,9.184557604677712e+16,1140857680501102.8,0.7101020965081561,21.273035847123907
187.0,1.0946782980113323e+17,1365966691055779.8,0.7101388424549836,21.27925219215018
188.0,1.307231290409369e+17,1643509659273012.2,0.7101733165740289,21.28653590907329
189.0,1.5649133867411165e+17,1986267602401352.8,0.710204150357687,21.29500336628123
190.0,1.8786825829392515e+17,2409421543586939.5,0.710229923990841,21.304775378658263
191.0,2.262063200252275e+17,2930780160076357.0,0.7102491798850041,21.315976085545906
192.0,2.7315910881666726e+17,3570990760918613.0,0.7102604363692172,21.328731818910818
193.0,3.3072990208715603e+17,4353741975600784.5,0.7102622012238851,21.3431699880646
194.0,4.0132398139820294e+17,5305943967877724.0,0.7102529849463568,21.359417989220013
195.0,4.878042975763548e+17,6457895746374944.0,0.7102313135486272,21.377602156356975
196.0,5.935508915767279e+17,7843435793744007.0,0.7101957407195858,21.397846766393524
197.0,7.225230979345626e+17,9500134456550586.0,0.7101448592362088,21.420273107774726
198.0,8.793275985874732e+17,1.146963332615624e+16,0.710077311465985,21.444998624849035
199.0,1.0692936208480623e+18,1.379830205112928e+16,0.7099917988814353,21.472136143754508
200.0,1.2985649923806016e+18,1.6538395027854526e+16,0.7098870905049106,21.50179318625015
201.0,1.5742150226775217e+18,1.974989857327126e+16,0.7097620301919705,21.534071377937913
202.0,1.9044021599918213e+18,2.350324839542342e+16,0.7096155427968871,21.56906594739914
203.0,2.2985768713464845e+18,2.7883055313214012e+16,0.7094466390789501,21.606865326572116
204.0,2.76776542806349e+18,3.2992986780839628e+16,0.7092544195406949,21.64755083717561
205.0,3.324943648757006e+18,3.896184124180285e+16,0.7090380769906471,21.691196478882055
206.0,3.985532423820465e+18,4.5950937061263e+16,0.7087968981604862,21.737868792971955
207.0,4.768028068202498e+18,5.41627187361379e+16,0.708530264110327,21.78762682213565
208.0,5.694802990559956e+18,6.385070742636325e+16,0.7082376498535495,21.840522131971646
209.0,6.793087700476882e+18,7.533054355826539e+16,0.7079186229050702,21.896598917604802
210.0,8.096169479893964e+18,8.899228763001603e+16,0.7075728412272324,21.955894157411784
211.0,9.644816565107515e+18,1.0531357649564432e+17,0.7072000502914144,22.01843783654894
212.0,1.1488957035250045e+19,1.2487385328158616e+17,0.7068000797074288,22.084253203868975
213.0,1.3689622356849381e+19,1.48369154578016e+17,0.7063728391937847,22.153357080876848
214.0,1.6321169224077033e+19,1.7662770849214525e+17,0.705918314268587,22.225760191949064
215.0,1.9473798798035685e+19,2.1062577350434064e+17,0.7054365615130621,22.301467528390436
216.0,2.3256357833102336e+19,2.5150396440850147e+17,0.7049277036877898,22.38047872344424
217.0,2.779946280934024e+19,3.005835309015301e+17,0.7043919246377274,22.46278844418782
218.0,3.3258885663015318e+19,3.593827583792658e+17,0.7038294641609153,22.54838678585361
219.0,3.98192805240589e+19,4.296331776238443e+17,0.7032406128507179,22.637259668527367
220.0,4.769813122041404e+19,5.1329595716672954e+17,0.702625706992895,22.72938922936873
221.0,5.715006591309548e+19,6.12579295722617e+17,0.7019851235806375,22.824754205811516
222.0,6.8471380009638085e+19,7.299582803831534e+17,0.7013192754575079,22.92333030881936
223.0,8.200503478135833e+19,8.681999074755793e+17,0.7006286066799345,23.02509057902281
224.0,9.814599198304176e+19,1.0303958357440689e+18,0.6999135880641724,23.130005728715464
225.0,1.1734731833046912e+20,1.22000729848312e+18,0.6991747130141367,23.238044461740902
226.0,1.401270097628549e+20,1.4409251460197074e+18,0.6984124935748779,23.349173776192615
227.0,1.6707613726899107e+20,1.6975507785300324e+18,0.69762745679404,23.463359242671256
228.0,1.9886842578828034e+20,1.9949003186508613e+18,0.6968201413355013,23.58056526337322
229.0,2.36271983271059e+20,2.338738646676042e+18,0.6959910944017681,23.700755306487018
230.0,2.801635299875727e+20,2.7357440228069673e+18,0.6951408689207706,23.823892120476316
231.0,3.3154579758657136e+20,3.1937110557476567e+18,0.6942700210256124,23.949937924682423
232.0,3.915687055609006e+20,3.7217897894203914e+18,0.6933791077958843,24.07885458000569
233.0,4.615552324933441e+20,4.330767555015238e+18,0.6924686852657337,24.210603738095738
234.0,5.430322147447398e+20,5.03339451013533e+18,0.6915393066787969,24.345146970991017
235.0,6.377670459162223e+20,5.84475034021844e+18,0.6905915209838062,24.482445881984745
236.0,7.478113071713118e+20,6.782658237918651e+18,0.6896258715474152,24.622462198734002
237.0,8.75551044423665e+20,7.868142513936377e+18,0.6886428950760946,24.765157849807185
238.0,1.0237650372668191e+21,9.125925818006329e+18,0.6876431207349862,24.910495025605837
239.0,1.1956917751185474e+21,1.0584973021745336e+19,0.6866270694326237,25.058436225405075
240.0,1.3951041658623508e+21,1.227907093208618e+19,0.6855952532741139,25.20894429110032
241.0,1.6263938670830446e+21,1.4247441652649173e+19,0.6845481751611815,25.36198242898702
242.0,1.894665020744836e+21,1.6535396614849022e+19,0.6834863285111558,25.517514221310947
243.0,2.2058358316192136e+21,1.9195012031394607e+19,0.6824101971046371,25.675503627750828
244.0,2.566750573239054e+21,2.2285829140553966e+19,0.6813202550316685,25.835914978494383
