Time,J,A,S,tau
0.0,100.0,100.0,0.8022306700161549,14.492753623188404
1.0,97.74901170925293,115.22972411906741,0.8022336617381669,15.114565718171878
2.0,98.37873907350406,127.41149240621878,0.8020833049216866,15.761574019132778
3.0,101.00199109722442,136.8283107487534,0.8017798946026534,16.43298601441187
4.0,104.91835295503653,143.75232882771513,0.8013254059128421,17.128177582508062
5.0,109.58635440036147,148.44646849212958,0.8007237495294537,17.8463900814475
6.0,114.59580999285077,151.16360942239058,0.7999806040243674,18.58674254286029
7.0,119.64386604370446,152.14557853766422,0.7991031967083944,19.348247824635653
8.0,124.51425045751812,151.6220410690637,0.7981000425633291,20.129831994988187
9.0,129.05958622622194,149.80942964681162,0.7969806597958264,20.93035558173056
10.0,133.18652058243316,146.90996563342003,0.7957552781250679,21.748635498019322
11.0,136.84320647973948,143.1108934924835,0.7944345519949102,22.583466679468692
12.0,140.00908458849057,138.58389162535235,0.7930292950119572,23.433642216693592
13.0,142.68657341919396,133.4847372903828,0.7915502423431624,24.297971495903745
14.0,144.89428440230168,127.95333197855027,0.7900078484831473,25.175295671401354
15.0,146.66174852755063,122.1138941701499,0.7884121237803778,26.06450026277342
16.0,148.0252289316598,116.07548010911262,0.7867725077340059,26.964524989841713
17.0,149.02457662294515,109.93263908758628,0.7850977811939917,27.874370608117445
18.0,149.70083963262152,103.76629825963087,0.7833960099396574,28.79310335264826
19.0,150.09454088412554,97.64468389406112,0.7816745144923423,29.71985738004351
20.0,150.24447680704796,91.62437123123411,0.7799398704806979,30.65383472312327
21.0,146.27614547356197,38.635532330063235,0.7781979184612393,31.594304606474164
22.0,142.3523036192653,16.39529853025572,0.7764537965225876,32.54060083082163
23.0,138.7964159897958,7.997237233619441,0.774711976444662,33.49211893299413
24.0,135.56962813389848,4.714389197415302,0.7729763098862045,34.44831246913682
25.0,132.6370297403853,3.3340282299476502,0.7712500775551542,35.408689034030665
26.0,129.96733299068424,2.672134874944758,0.7695360398771047,36.37280612350819
27.0,127.53255464688262,2.2911751423777673,0.7678364874198702,37.34026698029365
28.0,125.30770876410762,2.028407706126063,0.7661532897918425,38.310716528596586
29.0,123.2705145907448,1.82234595269425,0.7644879421476595,39.28383746990691
30.0,121.40112296584981,1.6488802464478383,0.7628416086851038,40.25934659423733
31.0,119.68186459783017,1.4979734189587086,0.7612151625817617,41.23699136245873
32.0,118.0970142220596,1.3646593590427463,0.7596092231094085,42.216546679603965
33.0,116.63258229640647,1.2461321813853337,0.7580241883828891,43.197812031617055
34.0,115.27611954380694,1.1403974445849157,0.7564602656517916,44.18060878096355
35.0,114.01654654429159,1.045932623615272,0.7549174976270511,45.164777799456196
36.0,112.84399853610294,0.9614383773348494,0.7533957861483723,46.150177301591114
37.0,111.74968578094841,0.8857831101119651,0.7518949131672801,47.13668088681116
38.0,110.72577045873909,0.8179825324282174,0.7504145590244744,48.12417580701703
39.0,109.76525778085573,0.7571901746363778,0.7489543183971789,49.112561428736605
40.0,108.86189825442654,0.7026370837916904,0.747513714317168,50.10174784761514
41.0,108.01010094304013,0.6536417910819696,0.7460922103392809,51.091654654880095
42.0,107.2048574034564,0.609608482237805,0.7446892209980704,52.082209852370404
43.0,106.4416747236812,0.5700213603657229,0.7433041208076846,53.07334889464832
44.0,105.71651547099938,0.5344100880282722,0.7419362520580486,54.06501382736159
45.0,105.02574480867473,0.5023593166225584,0.7405849314569763,55.05715252654157
46.0,104.36608411156388,0.4735075849083319,0.7392494557636881,56.04971802966515
47.0,103.73457009335306,0.4475397617144876,0.7379291065679804,57.04266794471335
48.0,103.12851806804368,0.42416852866298127,0.7366231543481416,58.0359639176552
49.0,102.54548967952773,0.40314084551203816,0.735330861854495,59.029571163613326
50.0,101.983264477863,0.3842381382869014,0.7340514869234709,60.02345805287898
51.0,101.43981471428032,0.36726787613001627,0.7327842848096223,61.017595742847774
52.0,100.91328259094894,0.352055377897335,0.7315285100961935,62.01195784499166
53.0,100.40196020591084,0.338447421532202,0.7302834182330739,63.0065201304699
54.0,99.90427173695768,0.32631349547719063,0.7290482667651558,64.00126026778064
55.0,99.41875742531779,0.31553594154761144,0.7278223162959534,64.99615758610999
56.0,98.94405907283837,0.30601150074118727,0.7266048312170457,65.99119286033248
57.0,98.47890697343419,0.2976537337961525,0.7253950802384387,66.98634811650632
58.0,98.02210836255638,0.29038566471958654,0.724192336779288,67.98160645879132
59.0,97.5725363663208,0.2841368837429976,0.7229958791850887,68.97695190352171
60.0,97.12912035744806,0.278856062479343,0.7218049908673183,69.97236923294379
61.0,96.69083678490908,0.2744930116239914,0.7206189603377735,70.9678438553415
62.0,96.25670060363677,0.2710083247006229,0.7194370811579981,71.96336167350104
63.0,95.82575742531564,0.2683746109692148,0.7182586518695842,72.95890896242035
64.0,95.39707581762701,0.26656464547337466,0.7170829758492171,73.95447224885896
65.0,94.96974006005406,0.26556520765348346,0.7159093611605593,74.95003819634903
66.0,94.5428430530271,0.2653670736232826,0.7147371204057225,75.9455934910194
67.0,94.11547932159709,0.2659653092951031,0.7135655705528378,76.94112472827098
68.0,93.68673805779824,0.2673686346020587,0.7123940328151558,77.93661829771699
69.0,93.25569606319812,0.2695857719915205,0.711221832543789,78.93206026542768
70.0,92.82141061165223,0.2726351008641979,0.71004829916193,79.92743625343512
71.0,92.38291188261783,0.2765452609819374,0.7088727661850808,80.9227313096621
72.0,91.93919525726818,0.28134548619611893,0.7076945712856676,81.9179297747346
73.0,91.48921302949637,0.2870807489334496,0.7065130564691687,82.91301513655851
74.0,91.03186545511836,0.29380025706269736,0.7053275683661151,83.90796987157417
75.0,90.56599146638736,0.3015600740012948,0.7041374586248669,84.90277527900601
76.0,90.09035808798633,0.31043483226875684,0.7029420844942474,85.89741128969759
77.0,89.6036492428213,0.3205003575592813,0.7017408095565573,86.89185626262436
78.0,89.10445351060886,0.3318495519212779,0.7005330046553533,87.8860867608418
79.0,88.5912499960239,0.3445915294959584,0.6993180491041983,88.88007729085818
80.0,88.06239360491931,0.3588398353549576,0.6980953320942556,89.87380002968109
81.0,87.5160978299551,0.3747423824408099,0.6968642544646924,90.86722450398209
82.0,86.95041604930785,0.39244441315134976,0.6956242307922247,91.86031723949283
83.0,86.36322036974985,0.4121231485435138,0.6943746918911469,92.85304136283345
84.0,85.75217804869843,0.4339776137856387,0.6931150877601456,93.84535615559408
85.0,85.11472501116218,0.4582320727814389,0.6918448910455162,94.83721655138623
86.0,84.44803611442497,0.48513947550253494,0.6905636010875277,95.82857256881165
87.0,83.74899172993811,0.5149854677489846,0.6892707486275806,96.81936867166107
88.0,83.01414012505685,0.5480944571724218,0.6879659012674681,97.80954304589459
89.0,82.23965522954437,0.5848308009274767,0.6866486697644121,98.79902678470305
90.0,81.42128916726567,0.6256048928539477,0.6853187152702128,99.78774296902145
91.0,80.55431890341553,0.6708793131817714,0.6839757576322139,100.7756056300142
92.0,79.63348631612621,0.7211764295553388,0.6826195848825113,101.76251857906708
93.0,78.65293117275236,0.7770895070163073,0.6812500640200192,102.74837409392688
94.0,77.60611578681613,0.8392690021925251,0.6798671532921211,103.7330514354077
95.0,76.48574114080888,0.908463810800116,0.6784709160359238,104.71641518924044
96.0,75.2836533564012,0.9855138312654257,0.6770615362763897,105.69831340844341
97.0,73.9907398258065,1.0713616313012995,0.6756393362093128,106.67857554060916
98.0,72.59681428129963,1.1670600636761104,0.6742047957041465,107.6570101228696
99.0,71.09049013653835,1.2737906095093212,0.6727585739490081,108.63340222808289
100.0,69.45904203353489,1.3928758267991208,0.671301533264882,109.60751065680121
101.0,67.68825523619874,1.5257911434556293,0.6698347651496589,110.5790648634658
102.0,65.76226319848502,1.6741780478051453,0.6683596184990342,111.54776161810078
103.0,63.663374170054496,1.8398568550694423,0.6668777298538204,112.51326141472525
104.0,61.37188840313575,2.024837171561281,0.6653910553955292,113.47518465101716
105.0,58.86590833513737,2.231319018991929,0.6639019042630635,114.4331076192892
106.0,56.12114534138964,2.4617148563874154,0.6624129725423381,115.38655837298211
107.0,53.11072861224252,2.7186486228551816,0.6609273769371352,116.33501257156612
108.0,49.805022284960856,3.0049509576959386,0.659448687001252,117.27788941875491
109.0,46.31611682677543,5.200244883026026,0.6579809545358671,118.21454783916376
110.0,42.687881235702974,8.319098632250963,0.6565287372753289,119.14428321833515
111.0,38.87146411322239,11.515761152882112,0.6550971167509335,120.06632468454475
112.0,34.86259251017995,14.829062085934806,0.653691705016498,120.97983355472259
113.0,30.661639715324384,18.29752659278906,0.6523186390926643,121.8839030474803
114.0,26.275125680371893,21.959450643008523,0.6509845590345228,122.77755973714868
115.0,21.717523523451998,25.852869633247654,0.6496965668823063,123.65976705790881
116.0,17.013395380263333,30.015426007584487,0.648462163627173,124.52943118380318
117.0,12.199861560187527,34.48411847404995,0.6472891611458405,125.38540967326371
118.0,7.329442077987789,39.294932541156676,0.6461855687184276,126.22652290761225
119.0,2.473216517101089,44.48237029815339,0.6451594533562119,127.05156847401445
120.0,0.0,50.078908409290094,0.6442187760803895,127.85933824755176
121.0,0.0,56.11438261185676,0.6433712077680678,128.64863782653634
122.0,0.0,62.615348807753925,0.6426239304814988,129.4183076594618
123.0,0.0,69.60444686295236,0.641983432410708,130.16724498186437
124.0,0.0,77.09982330674119,0.6414553059321113,130.8944254975112
125.0,0.0,85.11465520557253,0.6410440593645386,131.59892361577212
126.0,0.0,93.65681900735599,0.6407529528807304,132.27993005725006
127.0,0.0,102.72873715728264,0.6405838681338408,132.93676573630015
128.0,0.0,112.32742449372867,0.6405372190447673,133.56889106077855
129.0,0.0,122.44474166411833,0.6406119083329719,134.1759101111058
130.0,0.0,133.06784105790558,0.6408053312082919,134.75756952428435
131.0,12.260396700652352,144.17978545774335,0.6411134239212155,135.31375232665042
132.0,28.927710948894212,155.76029809905492,0.6415307520226059,135.84446729184208
133.0,50.416391654095804,167.7865973663807,0.642050630836039,136.34983467268341
134.0,77.41097547866504,180.23426520611469,0.6426652691207702,136.83006933274052
135.0,110.63454179052174,193.07810244011935,0.6433659263731231,137.28546236657107
136.0,150.8439530231173,206.29292978201119,0.6441430744876657,137.71636226247915
137.0,198.82439305805266,219.85429856761823,0.6449865559688664,138.12315651132917
138.0,255.38324131344444,233.73909259023543,0.6458857318861618,138.5062544281866
139.0,323.3132113658886,245.87774399638715,0.6468149192960454,138.65224944437398
140.0,403.4135639739296,254.3457935082759,0.6479646494371557,137.80361791014258
141.0,487.82889380165403,268.4425721066441,0.6497259626417141,136.58894526326011
142.0,580.8224330087257,286.4964848631264,0.6525194435459309,134.79545836890424
143.0,686.6312576746487,306.3429829318414,0.6572913991002038,131.93061346895493
144.0,809.9291181687529,324.2286080004608,0.6669646153514457,126.36420980591475
145.0,975.958400996756,307.65354186157776,0.7084343435833866,98.98348626938495
146.0,1142.7946175517286,284.3307106519085,0.7959065572942179,37.648400857868275
147.0,1294.4620733731665,271.3485956707941,0.8107762550247564,30.382934642324695
148.0,1436.024811277037,269.50274014784304,0.8174996768913799,26.81432993309398
149.0,1574.6406571703033,277.1645325493855,0.8209946199143363,24.507763534014963
150.0,1716.2197151235468,294.2032037675345,0.8227190569349482,22.82918382615254
151.0,1866.9217079268162,320.87685660308694,0.8233140489391241,21.521454062266056
152.0,2033.4950305986201,357.6191055081225,0.8231217796549642,20.45559374992068
153.0,2223.404661259917,404.9592518780344,0.8223479141500675,19.558087698771377
154.0,2444.8727933180303,463.47945460795324,0.8211264537843773,18.783302951037097
155.0,2706.874175663565,533.7838306268203,0.8195499790064268,18.10113603621427
156.0,3019.073864603013,616.482339057153,0.8176853329888807,17.490818537888067
157.0,3393.5026325260883,709.8511015366245,0.8155824783696854,16.93751809507675
158.0,3838.327378876982,814.2810338425286,0.8132798069523599,16.43034935943005
159.0,4359.6868784155085,935.3968129097738,0.8108074815834726,15.961151949559783
160.0,4971.758737549753,1073.364855027578,0.8081896446133595,15.523699606371952
161.0,5705.469718004832,1200.8308590924055,0.8054459286279002,15.113169647710002
162.0,6550.745423330916,1310.140465500301,0.802592512535924,14.725781032865427
163.0,7480.326782039191,1415.8490519538382,0.799642891219176,14.358535722496544
164.0,8479.999271293183,1530.9203673063655,0.7966084422617575,14.009033288041456
165.0,9546.374776563673,1667.7577943958902,0.7934988550438877,13.67533388422451
166.0,10685.930216654173,1839.0854986517427,0.7903224600496542,13.355856058343372
167.0,11914.877980977186,2058.099762938098,0.7870864858657326,13.049299381176576
168.0,13259.005551972894,2338.3996258948787,0.7837972622677293,12.754585289023245
169.0,14753.305727944571,2693.747021229784,0.7804603823589856,12.470811348462068
170.0,16442.841591825963,3135.273628782797,0.7770808331501995,12.197215754344747
171.0,18376.035527626627,3674.8395445832402,0.773663102024305,11.933149496320372
172.0,20603.5369914481,4328.516209886866,0.7702112629577353,11.678054453164572
173.0,23199.146699934507,5087.222093304933,0.7667290478743013,11.431446118310228
174.0,26228.024736390194,5920.938474918542,0.7632199047487744,11.192899800083325
175.0,29709.08595397848,6820.072014615095,0.7596870463897621,10.96203977738067
176.0,33634.450900788805,7795.099027067301,0.7561334904369705,10.738530596712932
177.0,37987.19450735437,8873.639918662944,0.7525620916918819,10.52206996844745
178.0,42754.362218852926,10098.63394448794,0.7489755696561553,10.312383274713339
179.0,47937.08816852511,11526.12533308639,0.745376530682655,10.109219040341276
180.0,53558.14958996196,13221.60953183347,0.7417674865934005,9.912345320103833
181.0,59666.32700827685,15254.246939945822,0.738150869351592,9.721546787162076
182.0,66331.13760885858,17698.207781860016,0.7345290431458437,9.536622363402676
183.0,73657.15273793013,20608.84466607577,0.7309043137403786,9.35738332144583
184.0,81778.2305742157,23996.630870895387,0.7272789362366621,9.183651747404996
185.0,90805.82967404684,27854.530359763507,0.7236551200777578,9.015259263355606
186.0,100800.6217320025,32185.50062169646,0.7200350341221543,8.852046052791888
187.0,111770.12149995017,37019.81513605386,0.7164208080197682,8.693859982567751
188.0,123679.15030343262,42424.49167187497,0.7128145341685096,8.540555940288955
189.0,136468.3482551132,48504.7350155184,0.7092182675810895,8.391995275239328
190.0,150074.02568662495,55397.497089167155,0.7056340257710569,8.248045355054153
191.0,164444.05504840877,63261.42938590427,0.7020637870485774,8.108579185069884
192.0,179564.61382152425,72242.7885486306,0.6985094882623296,7.973475097458382
193.0,195468.06323321565,82440.89445220497,0.6949730218025442,7.842616494648318
194.0,212202.40306843174,93909.2384689168,0.6914562322312102,7.715891619619319
195.0,229791.80536483153,106677.20361552452,0.6879609124931744,7.593193415070391
196.0,248208.7757246178,120777.02760441037,0.684488800160527,7.474419357569381
197.0,267365.94164543756,136264.64183249202,0.6810415726424242,7.359471283335225
198.0,287123.6600005902,153230.04538467378,0.6776208408492389,7.248255279049401
199.0,307306.8118967662,171793.82582335777,0.6742281464947127,7.140681580750633
200.0,327738.6556173417,192081.64169155396,0.6708649565870395,7.036664458754927
201.0,348267.62065755326,214190.74692860767,0.667532659429091,6.936122124382909
202.0,368772.3613051895,238171.89870829598,0.6642325608002699,6.838976602308891
203.0,389147.76223600726,264030.61403697607,0.6609658807819729,6.745153626625145
204.0,409285.9122501937,291741.247904047,0.6577337514948673,6.654582504863865
205.0,429061.51186947816,321264.2383877103,0.6545372156001183,6.567195984112753
206.0,448326.99609006394,352558.9934161443,0.6513772264249186,6.482930098359719
207.0,466921.4498419338,385584.7882415346,0.6482546494129626,6.4017239987799135
208.0,484687.90182182804,420290.19911543553,0.6451702654621547,6.323519767068054
209.0,501488.97745514783,456600.4387324326,0.642124776068763,6.248262201576071
210.0,517214.06157807424,494410.3354918331,0.6391188104117049,6.175898590521067
211.0,531777.3391744987,533585.4024572154,0.6361529354230004,6.106378455474436
212.0,545113.4768528462,573968.4217985914,0.6332276670149146,6.0396532756567805
213.0,557171.8588131847,615387.9038885403,0.6303434845710394,5.9756761925515285
214.0,567914.7233614259,657664.1815788748,0.6275008476120626,5.914401694264501
215.0,577318.808304026,700611.9289706816,0.6247002147829546,5.85578528308555
216.0,585378.1629647072,744040.640310625,0.6219420650030618,5.79978312959977
217.0,592105.8163664265,787755.2287393485,0.6192269205349961,5.7463517175376255
218.0,597533.351088902,831557.978666774,0.6165553716389413,5.695447484370078
219.0,601708.7377420941,875251.8495010459,0.6139281022549071,5.647026464374535
220.0,604693.5173560369,918644.3399607609,0.6113459168667783,5.601043935433078
221.0,606560.0213484371,961550.8789909738,0.6088097666069575,5.557454088714061
222.0,607389.291306043,1003797.5708082909,0.6063207749812421,5.516209716519087
223.0,607269.6319659763,1045223.00034521,0.6038802631794158,5.477261924670063
224.0,606294.803839497,1085679.8569826505,0.6014897727563389,5.44055988470496
225.0,604562.1789144909,1125036.0788825415,0.599151084718857,5.406050641402879
226.0,602171.0978070239,1163175.8042268376,0.5968662355678771,5.37367896681956
227.0,599221.2904202456,1200000.0641508843,0.5946375289332267,5.343387273712373
228.0,595811.4937414894,1235427.1533892893,0.5924675422581602,5.315115592994213
229.0,592038.3225310284,1269392.6569754821,0.5903591279647749,5.288801619753935
230.0,587995.6429516404,1301849.1666800908,0.5883154090381949,5.264380827116095
231.0,583773.6010025637,1332765.8096372366,0.5863397677986342,5.241786662454011
232.0,579457.9499125626,1362127.4828965683,0.5844358268741162,5.220950827623912
233.0,575129.9591118081,1389933.9421943622,0.5826074244168544,5.201803623276503
234.0,570866.2878348692,1416198.8123116833,0.5808585828848808,5.184274364204671
235.0,566738.9857181482,1440948.5208434141,0.5791934716970036,5.168291859997197
236.0,562815.0842588411,1464221.2403550255,0.5776163643258939,5.153784956273123
237.0,559159.2331985423,1486065.5467930613,0.5761315899880025,5.140683121034906
238.0,555831.0395809624,1506539.6441549633,0.5747434803414535,5.128917112474926
239.0,552886.4030660061,1525710.0827610204,0.5734563134180097,5.118419631247537
240.0,550378.2964936941,1543650.7229560188,0.5722742568206747,5.109125989243803
241.0,548357.3760037047,1560441.7932011413,0.5712013099124964,5.100974785361122
242.0,546872.7672272042,1576169.0285438944,0.5702412434716617,5.093908610052275
243.0,545972.8380951842,1590922.9178039706,0.5693975355458387,5.087874799331663
244.0,545703.8601100895,1604798.0292350936,0.5686733270011087,5.082825908302303
245.0,546112.3634527812,1617892.303740075,0.5680713741304618,5.078720230840399
246.0,547247.21837423,1630306.5484352806,0.567593989798407,5.075522480396527
247.0,549157.1145039352,1642144.2559785778,0.5672430045639909,5.073204228420488
248.0,551892.3709267152,1653511.1319720552,0.5670197473699892,5.071744053999981
249.0,555506.4227651507,1664514.8457705923,0.5669250214800989,5.07112778239679
250.0,560057.625248456,1675264.9569659664,0.5669590703472313,5.071348862282378
251.0,565607.2285493098,1685873.0090618199,0.5671215791877653,5.072408309342476
