Time,J,A,S,tau
0,100,100,0.999924367,5.555555556
1,8299370.401,38842.46677,0.999880344,5.17645342
2,31539969.76,73542.12733,0.999843128,4.827264144
3,67469876.97,104698.9503,0.99981192,4.508116117
4,114108990.2,132740.1172,0.999786,4.219153508
5,659236959.3,4804518.006,0.999798473,4.248226219
6,5129908002,21153154.17,0.999816659,4.343931601
7,17100877630,46733464.98,0.999833132,4.444341597
8,38961621408,79349950.86,0.999848045,4.549841005
9,72218992766,121447454.8,0.999861537,4.660850806
10,2.12686E+11,1129472286,0.999873739,4.777830574
11,1.16744E+12,5706774676,0.999884768,4.901280767
12,4.28418E+12,15713689415,0.999894733,5.031744837
13,1.11842E+13,32165050152,0.999903733,5.169811031
14,2.34931E+13,55445508141,0.999911859,5.316113793
15,4.32746E+13,98742285213,0.999919192,5.471334632
16,9.625E+13,3.8588E+11,0.999925809,5.636202307
17,3.06974E+14,1.48166E+12,0.999931777,5.811492186
18,9.43951E+14,4.09849E+12,0.99993716,5.998024608
19,2.40804E+15,8.93458E+12,0.999942013,6.196662092
20,5.19043E+15,1.65764E+13,0.999946389,6.408305234
21,9.81979E+15,2.74482E+13,0.999950333,6.633887169
22,1.69E+16,4.29952E+13,0.999953888,6.874366477
23,2.80E+16,7.81038E+13,0.999957092,7.130718486
24,5.02E+16,1.77796E+14,0.99995998,7.40392498
25,9.98E+16,4.17484E+14,0.999962583,7.694962368
26,2.05E+17,8.91892E+14,0.999964929,8.004788498
27,4.07E+17,1.70048E+15,0.999967044,8.334328347
28,7.52E+17,2.93391E+15,0.999968951,8.684458945
29,1.29E+18,4.66365E+15,0.99997067,9.055993961
30,2.08E+18,6.93564E+15,0.999972221,9.449668462
31,3.16E+18,9.7677E+15,0.99997362,9.866124384
32,4.56E+18,1.32E+16,0.999974882,10.3058973
33,6.32E+18,1.72E+16,0.999976022,10.76940506
34,8.47E+18,2.21E+16,0.99997705,11.25693874
35,1.11E+19,2.85E+16,0.99997798,11.76865637
36,1.43E+19,3.73E+16,0.999978819,12.3045797
37,1.83E+19,4.93E+16,0.999979578,12.86459414
38,2.33E+19,6.55E+16,0.999980265,13.44845188
39,2.95E+19,8.66E+16,0.999980886,14.05577795
40,3.72E+19,1.13E+17,0.999981448,14.68607898
41,4.67E+19,1.46E+17,0.999981957,15.33875425
42,5.81E+19,1.84E+17,0.999982418,16.01310841
43,7.14E+19,2.27E+17,0.999982837,16.70836553
44,7.77E+19,1.64E+17,0.999983216,17.42368373
45,7.76E+19,9.84E+16,0.999983561,18.15816993
46,7.75E+19,7.73E+16,0.999983874,18.91089427
47,7.75E+19,7.17E+16,0.999984159,19.68090392
48,7.74E+19,7.14E+16,0.999984418,20.46723576
49,7.73E+19,7.24E+16,0.999984654,21.2689278
50,7.72E+19,7.34E+16,0.999984869,22.08502916
51,7.72E+19,7.40E+16,0.999985065,22.91460869
52,7.71E+19,7.40E+16,0.999985244,23.756762
53,7.70E+19,7.34E+16,0.999985408,24.6106171
54,7.69E+19,7.24E+16,0.999985558,25.4753389
55,7.69E+19,7.09E+16,0.999985695,26.35013187
56,7.68E+19,6.90E+16,0.999985821,27.23424341
57,7.67E+19,6.69E+16,0.999985936,28.1269633
58,7.67E+19,6.46E+16,0.999986042,29.02762445
59,7.66E+19,6.22E+16,0.99998614,29.93560295
60,7.66E+19,5.96E+16,0.99998623,30.85031726
61,7.65E+19,5.71E+16,0.999986313,31.7712266
62,7.65E+19,5.45E+16,0.999986389,32.69782958
63,7.64E+19,5.20E+16,0.99998646,33.62966227
64,7.64E+19,4.95E+16,0.999986526,34.56629627
65,7.63E+19,4.70E+16,0.999986587,35.50733663
66,7.63E+19,4.47E+16,0.999986643,36.45241981
67,7.62E+19,4.25E+16,0.999986696,37.40121159
68,7.62E+19,4.03E+16,0.999986744,38.35340493
69,7.61E+19,3.83E+16,0.99998679,39.30871811
70,7.61E+19,3.63E+16,0.999986833,40.26689274
71,7.61E+19,3.45E+16,0.999986872,41.22769195
72,7.60E+19,3.28E+16,0.99998691,42.19089867
73,7.60E+19,3.12E+16,0.999986945,43.15631402
74,7.60E+19,2.97E+16,0.999986978,44.12375582
75,7.60E+19,2.82E+16,0.999987009,45.09305708
76,7.59E+19,2.69E+16,0.999987038,46.06406482
77,7.59E+19,2.57E+16,0.999987066,47.03663876
78,7.59E+19,2.45E+16,0.999987092,48.01065023
79,7.59E+19,2.34E+16,0.999987117,48.98598116
80,7.58E+19,2.24E+16,0.99998714,49.96252311
81,7.58E+19,2.15E+16,0.999987163,50.94017638
82,7.58E+19,2.07E+16,0.999987184,51.91884928
83,7.58E+19,1.99E+16,0.999987205,52.89845731
84,7.58E+19,1.91E+16,0.999987224,53.87892258
85,7.57E+19,1.85E+16,0.999987243,54.86017313
86,7.57E+19,1.78E+16,0.999987261,55.84214242
87,7.57E+19,1.73E+16,0.999987279,56.82476876
88,7.57E+19,1.67E+16,0.999987296,57.80799492
89,7.57E+19,1.63E+16,0.999987312,58.79176762
90,7.57E+19,1.58E+16,0.999987328,59.77603719
91,7.56E+19,1.54E+16,0.999987343,60.7607572
92,7.56E+19,1.51E+16,0.999987358,61.74588409
93,7.56E+19,1.47E+16,0.999987372,62.73137693
94,7.56E+19,1.45E+16,0.999987386,63.71719705
95,7.56E+19,1.42E+16,0.9999874,64.70330787
96,7.56E+19,1.40E+16,0.999987414,65.68967456
97,7.56E+19,1.38E+16,0.999987427,66.67626391
98,7.55E+19,1.36E+16,0.99998744,67.66304401
99,7.55E+19,1.35E+16,0.999987453,68.64998415
100,7.55E+19,1.34E+16,0.999987466,69.63705453
101,7.55E+19,1.34E+16,0.999987478,70.62422615
102,7.55E+19,1.33E+16,0.999987491,71.61147057
103,7.55E+19,1.33E+16,0.999987503,72.5987598
104,7.55E+19,1.33E+16,0.999987516,73.58606608
105,7.54E+19,1.34E+16,0.999987528,74.57336172
106,7.54E+19,1.34E+16,0.999987541,75.56061893
107,7.54E+19,1.35E+16,0.999987553,76.54780968
108,7.54E+19,1.37E+16,0.999987566,77.53490549
109,7.54E+19,1.39E+16,0.999987579,78.52187727
110,7.54E+19,1.41E+16,0.999987591,79.50869513
111,7.54E+19,1.43E+16,0.999987604,80.49532818
112,7.54E+19,1.46E+16,0.999987617,81.48174435
113,7.53E+19,1.49E+16,0.999987631,82.46791016
114,7.53E+19,1.52E+16,0.999987644,83.45379049
115,7.53E+19,1.56E+16,0.999987658,84.43934835
116,7.53E+19,1.61E+16,0.999987672,85.4245446
117,7.53E+19,1.66E+16,0.999987686,86.40933765
118,7.53E+19,1.71E+16,0.999987701,87.3936832
119,7.52E+19,1.77E+16,0.999987716,88.37753383
120,7.52E+19,1.84E+16,0.999987732,89.3608387
121,7.52E+19,1.91E+16,0.999987748,90.34354307
122,7.52E+19,1.99E+16,0.999987765,91.3255879
123,7.52E+19,2.08E+16,0.999987782,92.30690933
124,7.51E+19,2.18E+16,0.9999878,93.28743811
125,7.51E+19,2.28E+16,0.999987818,94.26709902
126,7.51E+19,2.40E+16,0.999987838,95.24581018
127,7.51E+19,2.53E+16,0.999987858,96.22348227
128,7.50E+19,2.67E+16,0.999987879,97.2000177
129,7.50E+19,2.83E+16,0.999987901,98.17530969
130,7.50E+19,3.00E+16,0.999987924,99.14924117
131,7.49E+19,3.20E+16,0.999987948,100.1216836
132,7.49E+19,3.41E+16,0.999987974,101.0924958
133,7.49E+19,3.64E+16,0.999988,102.0615222
134,7.48E+19,3.90E+16,0.999988029,103.0285914
135,7.48E+19,4.19E+16,0.999988058,103.9935141
136,7.47E+19,4.51E+16,0.99998809,104.9560814
137,7.47E+19,4.86E+16,0.999988123,105.916062
138,7.46E+19,5.26E+16,0.999988158,106.8731996
139,7.46E+19,5.70E+16,0.999988195,107.82721
140,7.45E+19,6.20E+16,0.999988235,108.7777778
141,7.44E+19,6.76E+16,0.999988277,109.7245522
142,7.44E+19,7.38E+16,0.999988321,110.667143
143,7.43E+19,8.08E+16,0.999988369,111.6051152
144,7.42E+19,8.88E+16,0.999988419,112.5379836
145,7.41E+19,9.78E+16,0.999988472,113.4652061
146,7.40E+19,1.08E+17,0.999988529,114.3861763
147,7.38E+19,1.20E+17,0.99998859,115.3002153
148,7.37E+19,1.33E+17,0.999988654,116.2065611
149,7.35E+19,1.48E+17,0.999988723,117.1043577
150,7.34E+19,1.66E+17,0.999988795,117.9926417
151,7.32E+19,1.86E+17,0.999988872,118.8703266
152,7.30E+19,2.10E+17,0.999988954,119.7361848
153,7.27E+19,2.37E+17,0.99998904,120.5888258
154,7.24E+19,2.69E+17,0.999989131,121.4266706
155,7.21E+19,3.07E+17,0.999989226,122.2479205
156,7.17E+19,3.52E+17,0.999989326,123.05052
157,7.13E+19,4.05E+17,0.99998943,123.8321107
158,7.08E+19,4.70E+17,0.999989538,124.5899743
159,7.02E+19,5.47E+17,0.999989649,125.3209614
160,6.95E+19,6.42E+17,0.999989762,126.0214005
161,6.87E+19,7.61E+17,0.999989877,126.6869804
162,6.77E+19,9.10E+17,0.999989991,127.3125969
163,6.65E+19,1.10E+18,0.999990102,127.8921451
164,6.50E+19,1.35E+18,0.999990208,128.4182387
165,1.15E+20,2.36E+18,0.999990306,128.8818159
166,3.39E+20,4.66E+18,0.999990392,129.271575
167,7.60E+20,7.67E+18,0.99999046,129.573143
168,1.46E+21,1.17E+19,0.999990505,129.7678068
169,2.59E+21,1.75E+19,0.99999052,129.8305021
170,4.35E+21,2.58E+19,0.999990496,129.726474
171,7.13E+21,3.85E+19,0.999990422,129.4054031
172,1.16E+22,5.83E+19,0.999990287,128.7903084
173,1.75E+22,5.96E+19,0.999990075,127.7546285
174,2.36E+22,5.77E+19,0.99998977,126.0678116
175,2.99E+22,5.57E+19,0.999989351,123.2414389
176,3.63E+22,5.38E+19,0.999988791,117.9389932
177,4.28E+22,5.19E+19,0.999988053,103.8281948
178,4.94E+22,5.00E+19,0.999987103,48.43713315
179,5.62E+22,4.81E+19,0.999986072,29.2949701
180,6.30E+22,4.63E+19,0.999984967,22.49070274
181,6.99E+22,4.44E+19,0.999983762,18.63212857
182,8.41E+22,3.06E+20,0.999982436,16.04225658
183,2.73E+23,2.33E+21,0.999980972,14.14747964
184,1.11E+24,8.06E+21,0.999979348,12.68676762
185,3.65E+24,1.96E+22,0.999977545,11.52034198
186,8.56E+24,3.06E+22,0.99997554,10.56497689
187,1.59E+25,4.06E+22,0.999973307,9.767277629
188,2.55E+25,4.95E+22,0.999970817,9.091031016
189,3.75E+25,5.76E+22,0.999968041,8.510597306
190,5.20E+25,7.20E+22,0.999964944,8.007203659
191,1.02E+26,4.93E+23,0.999961487,7.566718566
192,4.65E+26,2.94E+24,0.999957628,7.178262789
193,1.99E+27,9.21E+24,0.999953319,6.833304425
194,5.78E+27,1.89E+25,0.999948509,6.525044926
195,1.29E+28,3.16E+25,0.99994314,6.247993966
196,2.45E+28,4.68E+25,0.999937147,5.997666731
197,4.64E+28,1.29E+26,0.999930459,5.770363604
198,1.72E+29,8.90E+26,0.999923,5.56300664
199,8.71E+29,3.86E+27,0.999914681,5.373016181
200,3.20E+30,1.06E+28,0.999905409,5.198216225
201,8.77E+30,2.22E+28,0.999895079,5.036760876
202,2.03E+31,4.73E+28,0.999883576,4.887076454
203,6.29E+31,2.52E+29,0.999870774,4.747815418
204,3.31E+32,1.43E+30,0.999856537,4.617819312
205,1.51E+33,5.17E+30,0.999840713,4.496088702
206,5.11E+33,1.38E+31,0.999823138,4.381758568
207,1.48E+34,3.99E+31,0.999803634,4.274078022
208,5.99E+34,2.36E+32,0.999782004,4.172393469
209,3.36E+35,1.29E+33,0.999758039,4.076134557
210,1.55E+36,4.87E+33,0.999731509,3.984802365
211,5.63E+36,1.54E+34,0.999702166,3.897959455
212,2.23E+37,7.75E+34,0.999669742,3.815221428
213,1.28E+38,4.91E+35,0.999633951,3.736249756
214,6.96E+38,2.30E+36,0.999594481,3.660745652
215,3.02E+39,8.82E+36,0.999551001,3.588444831
216,1.37E+40,4.74E+37,0.999503156,3.519113009
217,8.39E+40,3.14E+38,0.999450566,3.452542033
218,4.91E+41,1.63E+39,0.999392828,3.388546539
219,2.40E+42,7.51E+39,0.999329513,3.326961073
220,1.32E+43,4.79E+40,0.999260168,3.267637592
221,8.82E+43,3.23E+41,0.999184312,3.210443306
222,5.30E+44,1.75E+42,0.999101442,3.155258798
223,2.96E+45,1.02E+43,0.999011028,3.101976399
224,1.99E+46,7.51E+43,0.998912517,3.050498768
225,1.38E+47,4.93E+44,0.99880533,3.000737658
226,8.61E+47,2.99E+45,0.99868887,2.952612847
227,5.88E+48,2.24E+46,0.998562515,2.906051197
228,4.43E+49,1.67E+47,0.998425627,2.860985835
229,3.09E+50,1.12E+48,0.998277551,2.817355448
230,2.22E+51,8.61E+48,0.998117618,2.775103649
231,1.78E+52,6.96E+49,0.99794515,2.734178442
232,1.35E+53,5.14E+50,0.99775946,2.69453174
233,1.05E+54,4.20E+51,0.997559862,2.656118947
234,8.88E+54,3.60E+52,0.997345669,2.6188986
235,7.26E+55,2.90E+53,0.997116202,2.58283204
236,6.09E+56,2.54E+54,0.996870796,2.547883138
237,5.44E+57,2.29E+55,0.996608806,2.514018046
238,4.74E+58,1.99E+56,0.996329609,2.481204985
239,4.29E+59,1.87E+57,0.996032619,2.44941405
240,4.03E+60,1.76E+58,0.995717287,2.418617047
241,3.74E+61,1.66E+59,0.995383112,2.388787346
242,3.63E+62,1.65E+60,0.995029652,2.359899752
243,3.57E+63,1.63E+61,0.994656524,2.331930392
244,3.53E+64,1.65E+62,0.994263422,2.304856615
245,3.63E+65,1.73E+63,0.993850119,2.278656902
246,3.73E+66,1.79E+64,0.993416476,2.253310791
247,3.93E+67,1.94E+65,0.992962455,2.228798804
248,4.23E+68,2.11E+66,0.992488121,2.205102386
249,4.58E+69,2.32E+67,0.991993655,2.182203854
250,5.09E+70,2.63E+68,0.991479357,2.160086339
251,5.70E+71,2.98E+69,0.990945656,2.138733749
252,6.50E+72,3.47E+70,0.990393115,2.118130723
253,7.53E+73,4.06E+71,0.989822435,2.098262592
254,8.80E+74,4.84E+72,0.989234461,2.079115348
255,1.05E+76,5.85E+73,0.988630185,2.060675606
256,1.26E+77,7.13E+74,0.988010747,2.042930574
257,1.54E+78,8.85E+75,0.98737744,2.025868019
258,1.89E+79,1.11E+77,0.986731701,2.009476242
259,2.36E+80,1.40E+78,0.98607512,1.993744042
260,2.98E+81,1.79E+79,0.985409427,1.978660691
261,3.79E+82,2.32E+80,0.984736495,1.964215903
262,4.89E+83,3.02E+81,0.984058329,1.950399807
263,6.34E+84,3.98E+82,0.98337706,1.937202917
264,8.33E+85,5.29E+83,0.982694936,1.924616107
265,1.10E+87,7.08E+84,0.982014309,1.912630585
266,1.47E+88,9.56E+85,0.981337626,1.901237868
267,1.97E+89,1.30E+87,0.980667415,1.890429761
268,2.67E+90,1.78E+88,0.980006267,1.88019834
269,3.64E+91,2.45E+89,0.979356825,1.87053593
270,5.00E+92,3.40E+90,0.978721763,1.861435099
271,6.90E+93,4.74E+91,0.978103768,1.852888648
272,9.59E+94,6.65E+92,0.977505527,1.844889605
273,1.34E+96,9.36E+93,0.976929698,1.83743123
274,1.88E+97,1.32E+95,0.976378901,1.830507019
275,2.65E+98,1.88E+96,0.975855688,1.824110713
276,3.74E+99,2.68E+97,0.97536253,1.818236319
277,5.32E+100,3.83E+98,0.974901794,1.812878125
278,7.58E+101,5.49E+99,0.974475726,1.808030729
279,1.08E+103,7.88E+100,0.974086426,1.803689058
280,1.55E+104,1.14E+102,0.97373584,1.799848407
281,2.23E+105,1.64E+103,0.973425732,1.796504461
282,3.22E+106,2.37E+104,0.973157676,1.793653331
283,4.64E+107,3.42E+105,0.97293304,1.791291578
284,6.70E+108,4.95E+106,0.972752973,1.789416246
285,9.69E+109,7.17E+107,0.972618394,1.788024884
286,1.40E+111,1.04E+109,0.972529984,1.787115563
287,2.03E+112,1.50E+110,0.97248818,1.786686895
288,2.94E+113,2.18E+111,0.972493172,1.786738041
289,4.25E+114,3.15E+112,0.9725449,1.787268716
290,6.16E+115,4.55E+113,0.972643054,1.788279182
291,8.90E+116,6.56E+114,0.97278708,1.789770245
292,1.28E+118,9.44E+115,0.972976183,1.791743236
293,1.85E+119,1.36E+117,0.973209335,1.794199994
294,2.67E+120,1.94E+118,0.973485287,1.79714284
295,3.83E+121,2.77E+119,0.973802578,1.800574548
296,5.48E+122,3.95E+120,0.974159549,1.80449832
297,7.83E+123,5.61E+121,0.974554361,1.808917744
298,1.11E+125,7.93E+122,0.974985006,1.813836772
299,1.58E+126,1.12E+124,0.97544933,1.819259678
300,2.23E+127,1.56E+125,0.975945051,1.825191035
301,3.14E+128,2.18E+126,0.976469773,1.831635683
302,4.39E+129,3.02E+127,0.977021012,1.838598704
303,6.11E+130,4.17E+128,0.977596212,1.846085404
304,8.45E+131,5.71E+129,0.978192766,1.854101294
305,1.16E+133,7.77E+130,0.978808036,1.862652078
306,1.59E+134,1.05E+132,0.979439373,1.871743647
307,2.16E+135,1.41E+133,0.980084131,1.881382078
308,2.91E+136,1.88E+134,0.980739692,1.891573632
309,3.89E+137,2.48E+135,0.981403477,1.902324762
310,5.15E+138,3.24E+136,0.982072966,1.913642124
311,6.77E+139,4.21E+137,0.98274571,1.925532587
312,8.82E+140,5.40E+138,0.983419345,1.93800325
313,1.14E+142,6.87E+139,0.984091608,1.951061461
314,1.45E+143,8.65E+140,0.984760341,1.964714833
315,1.83E+144,1.08E+142,0.985423507,1.978971266
316,2.29E+145,1.32E+143,0.986079194,1.993838971
317,2.82E+146,1.61E+144,0.986725625,2.009326486
318,3.44E+147,1.93E+145,0.987361158,2.025442701
319,4.15E+148,2.29E+146,0.987984294,2.042196879
320,4.93E+149,2.68E+147,0.98859368,2.059598681
321,5.77E+150,3.09E+148,0.989188104,2.077658181
322,6.67E+151,3.52E+149,0.989766501,2.096385892
323,7.60E+152,3.94E+150,0.990327948,2.115792788
324,8.52E+153,4.35E+151,0.990871663,2.135890322
325,9.41E+154,4.72E+152,0.991397001,2.156690454
326,1.02E+156,5.04E+153,0.991903446,2.17820567
327,1.09E+157,5.30E+154,0.992390611,2.200449012
328,1.15E+158,5.48E+155,0.99285823,2.2234341
329,1.18E+159,5.56E+156,0.993306149,2.247175163
330,1.20E+160,5.54E+157,0.993734319,2.271687073
331,1.19E+161,5.42E+158,0.994142794,2.296985381
332,1.16E+162,5.20E+159,0.994531715,2.323086351
333,1.11E+163,4.90E+160,0.994901309,2.350007014
334,1.04E+164,4.52E+161,0.995251876,2.377765209
335,9.56E+164,4.09E+162,0.995583784,2.406379645
336,8.60E+165,3.62E+163,0.995897461,2.435869965
337,7.57E+166,3.14E+164,0.996193384,2.466256814
338,6.52E+167,2.67E+165,0.996472076,2.497561924
339,5.49E+168,2.21E+166,0.996734097,2.529808204
340,4.52E+169,1.80E+167,0.996980036,2.563019845
341,3.64E+170,1.43E+168,0.997210506,2.597222438
342,2.86E+171,1.11E+169,0.997426136,2.6324431
343,2.19E+172,8.38E+169,0.99762757,2.668710634
344,1.64E+173,6.20E+170,0.997815455,2.706055686
345,1.20E+174,4.47E+171,0.997990444,2.74451094
346,8.54E+174,3.15E+172,0.998153183,2.78411133
347,5.93E+175,2.17E+173,0.998304317,2.824894278
348,4.01E+176,1.45E+174,0.998444478,2.866899966
349,2.65E+177,9.48E+174,0.998574286,2.910171634
350,1.70E+178,6.03E+175,0.998694348,2.954755922
351,1.06E+179,3.74E+176,0.998805252,3.000703249
352,6.47E+179,2.26E+177,0.998907568,3.048068238
353,3.83E+180,1.33E+178,0.999001845,3.096910194
354,2.21E+181,7.61E+178,0.999088612,3.147293636
355,1.24E+182,4.24E+179,0.999168373,3.199288887
356,6.75E+182,2.30E+180,0.999241613,3.252972741
357,3.58E+183,1.21E+181,0.99930879,3.308429196
358,1.84E+184,6.21E+181,0.999370341,3.365750272
359,9.21E+184,3.09E+182,0.999426679,3.425036915
360,4.47E+185,1.50E+183,0.999478193,3.486400005
361,2.11E+186,7.05E+183,0.999525252,3.549961454
362,9.67E+186,3.23E+184,0.9995682,3.615855427
363,4.30E+187,1.43E+185,0.999607361,3.684229673
364,1.85E+188,6.17E+185,0.999643038,3.755246982
365,7.76E+188,2.58E+186,0.999675514,3.829086773
366,3.15E+189,1.05E+187,0.999705052,3.905946812
367,1.24E+190,4.14E+187,0.999731898,3.986045061
368,4.73E+190,1.58E+188,0.999756278,4.069621667
369,1.75E+191,5.86E+188,0.999778403,4.156941071
370,6.28E+191,2.11E+189,0.999798469,4.248294239
371,2.18E+192,7.33E+189,0.999816656,4.344000991
372,7.33E+192,2.47E+190,0.999833129,4.444412411
373,2.39E+193,8.09E+190,0.999848042,4.549913302
374,7.53E+193,2.56E+191,0.999861534,4.660924647
375,2.30E+194,7.84E+191,0.999873736,4.777906022
376,6.79E+194,2.33E+192,0.999884766,4.901357892
377,1.94E+195,6.67E+192,0.999894731,5.03182371
378,5.37E+195,1.85E+193,0.999903731,5.169891729
379,1.44E+196,4.97E+193,0.999911857,5.316196397
380,3.71E+196,1.29E+194,0.999919191,5.471419225
381,9.28E+196,3.23E+194,0.999925807,5.636288977
382,2.24E+197,7.83E+194,0.999931776,5.811581024
383,5.24E+197,1.84E+195,0.999937159,5.998115709
384,1.19E+198,4.15E+195,0.999942012,6.196755553
385,2.59E+198,9.09E+195,0.999946388,6.408401157
386,5.47E+198,1.92E+196,0.999950332,6.633985654
387,1.12E+199,3.92E+196,0.999953887,6.874467625
388,2.21E+199,7.75E+196,0.999957091,7.130822399
389,4.23E+199,1.48E+197,0.999959979,7.404031756
390,7.85E+199,2.73E+197,0.999962582,7.695072105
391,1.41E+200,4.89E+197,0.999964928,8.004901287
392,2.45E+200,8.47E+197,0.999967043,8.334444275
393,4.14E+200,1.42E+198,0.99996895,8.68457809
394,6.78E+200,2.31E+198,0.99997067,9.056116394
395,1.08E+201,3.65E+198,0.99997222,9.449794243
396,1.67E+201,5.60E+198,0.999973619,9.866253562
397,2.52E+201,8.34E+198,0.999974882,10.30602992
398,3.69E+201,1.21E+199,0.999976021,10.76954113
399,5.29E+201,1.71E+199,0.99997705,11.25707827
400,7.39E+201,2.36E+199,0.999977979,11.76879935
401,1.01E+202,3.19E+199,0.999978819,12.30472609
402,1.35E+202,4.20E+199,0.999979578,12.86474392
403,1.77E+202,5.42E+199,0.999980264,13.44860498
404,2.28E+202,6.86E+199,0.999980885,14.05593429
405,2.87E+202,8.52E+199,0.999981447,14.68623846
406,3.57E+202,1.04E+200,0.999981956,15.33891679
407,4.36E+202,1.25E+200,0.999982418,16.01327385
408,5.24E+202,1.48E+200,0.999982836,16.70853384
409,5.65E+202,1.01E+200,0.999983216,17.42385478
410,5.64E+202,5.67E+199,0.999983561,18.15834363
411,5.64E+202,4.13E+199,0.999983874,18.9110705
412,5.64E+202,3.65E+199,0.999984158,19.68108257
413,5.63E+202,3.54E+199,0.999984418,20.4674167
414,5.63E+202,3.54E+199,0.999984654,21.2691109
415,5.62E+202,3.57E+199,0.999984869,22.08521431
416,5.62E+202,3.59E+199,0.999985065,22.91479577
417,5.62E+202,3.59E+199,0.999985244,23.75695092
418,5.61E+202,3.56E+199,0.999985408,24.61080767
419,5.61E+202,3.52E+199,0.999985558,25.4755294
