Time,J,A,S,tau
0.0,100.0,100.0,0.7106610159482583,37.03703703703704
1.0,99.7053776695529,36.83356592336426,0.7090766383174937,38.03606830410242
2.0,99.42073692564132,13.590739828840992,0.7075175993217959,39.03520477069115
3.0,99.1455921185505,5.036599827122223,0.705982847397157,40.03441791809317
4.0,98.87908205053346,1.8864986542344675,0.7044713467373337,41.033698840896
5.0,98.62044082417135,0.7247861338700414,0.7029820870624441,42.033039756728186
6.0,98.36898352796594,0.2948862131469023,0.7015140832822423,43.03243383208685
7.0,98.12230952435284,0.1357897913047058,0.7000665306099654,44.03185093579619
8.0,97.87856627780296,0.0772066192225809,0.6986386057230725,45.031268039505505
9.0,97.637617757111,0.05560009759805747,0.6972293634774607,46.030685143214825
10.0,97.39933182259949,0.047597089237723926,0.6958378848448326,47.03010224692414
11.0,97.16358003485792,0.04459911656649791,0.6944632756039654,48.02951935063344
12.0,96.93023747018151,0.04344298408088821,0.6931046650763641,49.02893645434275
13.0,96.69918254222243,0.04296508534741979,0.6917612049030354,50.02835355805205
14.0,96.47029682944547,0.04273718198183544,0.6904320678596577,51.02777066176135
15.0,96.24346490961196,0.042601878185003016,0.689116446718274,52.02718776547066
16.0,96.01857419104493,0.04250094564628862,0.6878135530874482,53.026604869179955
17.0,95.79551478260335,0.0424134685855889,0.6865226165089057,54.02602197288926
18.0,95.5741792914587,0.04233140637539583,0.6852428830761969,55.025439076598566
19.0,95.35446273756773,0.04225129351195932,0.6839736148231768,56.024856180307864
20.0,95.13626235904586,0.04217304847240181,0.6827140883996682,57.02427328401717
21.0,94.91947759513778,0.04209546458294268,0.6814635948931913,58.02369038772647
22.0,94.70400951579413,0.04201824975244742,0.6802214360885291,59.02310749143577
23.0,94.48976092658131,0.04194129864831211,0.6789869250668706,60.02252459514508
24.0,94.27663800105414,0.04186486655197158,0.6777593966421863,61.02194169885438
25.0,94.06454712961308,0.041789237687308016,0.6765381870231973,62.02135880256368
26.0,93.85339529139543,0.041714463669127594,0.6753226361909277,63.02077590627298
27.0,93.64309229176956,0.0416398738147266,0.6741121020928424,64.02019300998228
28.0,93.43354863374493,0.04156496625546693,0.6729059470340034,65.01961011369158
29.0,93.22467596660837,0.041490111756519704,0.6717035404077195,66.01902721740089
30.0,93.0163873091367,0.04141588463024688,0.6705042599504676,67.0184443211102
31.0,92.808595977511,0.04134245236843079,0.669307485209522,68.0178614248195
32.0,92.60121666361489,0.04126909961488501,0.668112603772976,69.01727852852879
33.0,92.39416457554711,0.04119520893428918,0.6669190061413801,70.0166956322381
34.0,92.1873553665783,0.04112086755113303,0.6657260852956646,71.0161127359474
35.0,91.98070555942438,0.04104690972043297,0.6645332386126297,72.01552983965671
36.0,91.77413181700463,0.04097396136470019,0.6633398641444725,73.014946943366
37.0,91.56755124903466,0.04090121255580218,0.6621453617849878,74.0143640470753
38.0,91.36088123170128,0.040827627528090216,0.6609491319776557,75.01378115078461
39.0,91.15403921702165,0.0407530172487857,0.6597505753125155,76.01319825449391
40.0,90.9469427660395,0.040678620676994855,0.6585490914286289,77.01261535820322
41.0,90.73950941389123,0.040604952070826365,0.6573440791375447,78.01203246191251
42.0,90.53165656391211,0.0405310044617562,0.6561349349367886,79.01144956562182
43.0,90.32330143418199,0.040456255353116526,0.6549210530253035,80.01086666933112
44.0,90.11436102682273,0.04038095543870721,0.6537018250317194,81.01028377304043
45.0,89.90475172804273,0.0403056291095238,0.6524766364901267,82.00970087674973
46.0,89.69438985242918,0.04023054360479435,0.6512448721397122,83.00911798045902
47.0,89.4831909223318,0.04015508216160295,0.6500059091932978,84.00853508416833
48.0,89.27106976509714,0.0400786152247674,0.6487591187081104,85.00795218787763
49.0,89.05794102508968,0.0400009779632063,0.6475038699386967,86.00736929158694
50.0,88.84371791764978,0.03992297916612196,0.6462395196475167,87.00678639529625
51.0,88.62831316833058,0.03984542556127679,0.6449654204531062,88.00620349900555
52.0,88.41163876975277,0.0397676210303644,0.6436809185435935,89.00562060271486
53.0,88.19360522341863,0.03968850262760578,0.6423853475532167,90.00503770642415
54.0,87.97412242483384,0.03960832974207529,0.6410780360012388,91.00445481013347
55.0,87.75309893840927,0.03952760593549976,0.6397583012154606,92.00387191384276
56.0,87.52947106925147,0.04021142306768392,0.6384255353647399,93.0032746381405
57.0,87.30070638988447,0.04261022472988983,0.637079247970495,94.00262670647048
58.0,87.0662002768618,0.04594891365480759,0.635718769261976,95.00192021766578
59.0,86.82537353414077,0.049947123286284374,0.6343434155097928,96.00114759471042
60.0,86.5775775494354,0.05454650308407574,0.6329524967863075,97.00030017017271
61.0,86.32208354895145,0.059777673133762727,0.6315453174051937,97.9993680114938
62.0,86.05807014824511,0.06570956260145289,0.6301211765330098,98.99833971773009
63.0,85.7846086059047,0.07243707943562248,0.6286793689856742,99.99720217801087
64.0,85.50064581760695,0.08007641983024893,0.6272191862659915,100.99594029179704
65.0,85.20498435117246,0.08876269043794166,0.6257399178666927,101.9945366392612
66.0,84.89625892303064,0.09865474691918978,0.6242408528889621,102.99297109154602
67.0,84.57290912709226,0.10993862152139697,0.6227212820321231,103.99122035708145
68.0,84.23314721606798,0.12282876517222738,0.6211805000181743,104.98925744365837
69.0,83.87492028209188,0.1375781934355265,0.6196178085284071,105.98705102459758
70.0,83.49586621001798,0.1544819424610201,0.6180325197283476,106.98456469746938
71.0,83.09326144723342,0.17388227075880336,0.6164239605095698,107.98175610180371
72.0,82.66395999276807,0.19618421831035154,0.6147914775430491,108.97857588414033
73.0,82.20432192078393,0.22185881637669047,0.613134443284825,109.97496648030135
74.0,81.71012870515739,0.25146044646588955,0.6114522631449237,110.97086066695003
75.0,81.17648499136718,0.2856312426836897,0.6097443839129559,111.96617987311308
76.0,80.59770223301564,0.3251327244375702,0.6080103037740956,112.96083217149993
77.0,79.96716294808031,0.37085419900551253,0.6062495840813328,113.95470992339882
78.0,79.2771619530084,0.42383639365740605,0.6044618631831001,114.94768701041095
79.0,78.51872067238111,0.4853011554797475,0.6026468726482823,115.9396155798906
80.0,77.68137036196693,0.5566817386082739,0.6008044562582153,116.93032222466304
81.0,76.7529007985086,0.6396502392867751,0.5989345920799543,117.91960352802289
82.0,75.71906902063735,0.736160264254703,0.5970374180849826,118.9072208691122
83.0,74.56326274840836,0.8485008860024156,0.59511326178663,119.892894381071
84.0,73.26611439045764,0.9793330604978445,0.5931626742665741,120.87629597305884
85.0,71.80506174036196,1.1317439065112158,0.5911864689321534,121.85704132790536
86.0,70.39078432333564,2.0663628616685217,0.5891857654811833,122.83468075379557
87.0,69.21487171335515,3.6452458705513116,0.58716203899927,123.80868888052863
88.0,68.24555177576708,5.458166933327332,0.5851171745508597,124.77845308855177
89.0,67.54846057511998,7.5432153901222065,0.5830535264856702,125.74326079599075
90.0,67.20592082488575,9.944283898081443,0.5809739818098142,126.70228569108811
91.0,67.32091716208157,12.711743252701128,0.578882026190586,127.65457315581126
92.0,68.02193936766429,15.90311078377596,0.5767818102560931,128.5990253116148
93.0,69.46881770968754,19.583670128466494,0.5746782124630607,129.53438641254917
94.0,71.85976216130591,23.827004531606683,0.572576895271443,130.4592292024158
95.0,75.43966663112413,28.71535001387793,0.5704843462423643,131.37194397296116
96.0,80.5099388631222,34.339724977155875,0.5684079002150666,132.27073107327482
97.0,87.43981694862727,40.79970264878121,0.566355730500789,133.1535994546706
98.0,96.67930417390026,48.20275115789984,0.5643368022712066,134.0183727225421
99.0,108.77370561741138,56.663040038901535,0.562360778845426,134.86270475523835
100.0,124.37942143990986,66.29962200777032,0.5604378720979302,135.68410695263634
101.0,144.2808146932772,77.23395007499413,0.5585786331806449,136.47998817312654
102.0,169.40761198279344,89.58674705234594,0.5567936839899046,137.2477075075074
103.0,200.85206935557468,103.47429813171458,0.5550933950372864,137.98463911526332
104.0,239.88500059385362,119.00435104304546,0.5534875250319814,138.6882461731502
105.0,287.9698956308596,136.27186006468526,0.5519848425549799,139.3561598609645
106.0,346.77388007617634,155.35491226970842,0.5505927590581927,139.9862574228139
107.0,418.17466781010495,176.3111798692535,0.5493170033319399,140.576732882524
108.0,504.2630004897523,199.1752133761593,0.5481613656286657,141.12615429165982
109.0,607.3398576964044,223.95687493703772,0.5471275383367267,141.63350157883823
110.0,729.9086016975862,250.64102352154103,0.546215064041591,142.09818225161342
111.0,874.6625477307093,279.1884685065823,0.545421393971574,142.52002393313714
112.0,1044.468242537795,309.53808412173413,0.5447420484358679,142.89924512286217
113.0,1242.3458332783196,341.6098136230035,0.54417085711859,143.23640855309228
114.0,1471.447232382124,375.3082635704621,0.5437002536177635,143.5323623722996
115.0,1735.0331078380736,410.5265774815016,0.543321598117552,143.78817462855855
116.0,2036.4496340810185,447.1502637502174,0.5430254998353538,144.00506705661925
117.0,2379.1056163321878,485.0607492308704,0.5428021195146222,144.18435244922105
118.0,2766.450357455727,524.138482382031,0.5426414361920562,144.32737906993242
119.0,3201.9526067336633,564.2654985944497,0.5425334701726057,144.4354839526188
120.0,3689.080632311707,605.327413802582,0.5424684591632398,144.50995586492425
121.0,4231.2832655003285,647.2148528664593,0.5424369872130517,144.55200811406255
122.0,4831.971549013294,689.8244354106014,0.5424300761586537,144.5627592124295
123.0,5494.501769240334,733.0592502881541,0.5424392350247512,144.54322247195768
124.0,6222.157867985127,776.8291056035939,0.542456489146609,144.49429989840954
125.0,7018.134845337604,821.0504340994711,0.5424743806744765,144.4167822431319
126.0,7885.5224522606795,865.6460161501197,0.5424859535120233,144.3113524349099
127.0,8827.288031992315,910.5446219299511,0.5424847305611639,144.17859073085705
128.0,9846.259689186845,955.6805294113922,0.5424646808106137,144.01898213617784
129.0,10945.10949462175,1000.9930179593498,0.5424201833534283,143.8329245797225
130.0,12126.336046175666,1046.4258342284459,0.5423459897792052,143.62073755002564
131.0,13392.247777068204,1091.9266755407193,0.5422371868450099,143.38267077360652
132.0,14744.94607810016,1137.4466922985139,0.5420891609909388,143.11891260721254
133.0,16186.306873395635,1182.9400418760695,0.5418975670299937,142.82959768375358
134.0,17717.961912998442,1228.3634507324016,0.5416582979545078,142.51481446663067
135.0,19341.284990563254,1273.6757794540245,0.5413674543534646,142.17461288363347
136.0,21057.387020052072,1318.8376855565168,0.5410213189076936,141.80901067615565
137.0,22867.06237488262,1363.8114560913225,0.5406163543873636,141.41799646342088
138.0,24770.833320712652,1408.5603942872385,0.5401491508230245,141.00154025855426
139.0,26768.85787098428,1453.049077837984,0.5396164603323114,140.55959138778027
140.0,28861.02369110945,1497.242605687907,0.5390151271942687,140.09208985988815
141.0,31022.88967451015,1553.1579503441894,0.6832121497599976,40.75187603347828
142.0,33302.228516237825,1709.7594422678262,0.693300387707457,36.341852990334466
143.0,35878.03285432623,1934.0446630109107,0.6973521003283932,33.881802267636786
144.0,38882.51370486365,2224.8975148284885,0.6989482827443462,32.160901780721574
145.0,42450.93959211928,2584.8449909742194,0.6992201509531896,30.825807694129825
146.0,46727.76157560142,3017.379596116656,0.6986790232234198,29.725159547891252
147.0,51868.14010177626,3526.1770286263745,0.6976008983525996,28.780711756306744
148.0,58038.10717075956,4114.744191607027,0.696151476821938,27.94719850484667
149.0,65413.795024987645,4786.229077149234,0.694437516841024,27.196386719403346
150.0,74180.2536205322,5543.298822782043,0.6925312882716241,26.509692535170725
151.0,84529.86708314359,6388.060649134606,0.6904834915292453,25.87437967285555
152.0,96660.48788249318,7322.010676587313,0.6883306605353853,25.281434579514695
153.0,110773.3382848403,8346.003556060881,0.6860996679751404,24.724305450235637
154.0,127070.75514471086,9460.238221349233,0.6838106020378635,24.198117751736362
155.0,145753.80242418044,10664.25668195986,0.6814786748747055,23.699167744969127
156.0,167019.8541791842,11956.953215100279,0.6791155307817073,23.224585003628995
157.0,191060.14874866494,13336.592869003363,0.6767301657627722,22.77210216519479
158.0,218057.2277408139,14800.838097827871,0.6743295848129969,22.339895467475607
159.0,248182.8296011022,16346.776721065533,0.6719192829284644,21.92647108362259
160.0,281595.32162540517,17970.962510950885,0.669503602656892,21.530584168270344
161.0,318437.85697732616,19669.45292992042,0.6670860013073641,21.151179527674504
162.0,358826.7035514056,21435.103423835695,0.6646692520044059,20.787349260681815
163.0,402862.5353917146,23455.348286117005,0.6622556000571291,20.43829936791415
164.0,451171.47936730814,25940.9560586283,0.6598468830283041,20.10332689642204
165.0,504877.3543260105,29078.26402417136,0.657444624490194,19.781801519817858
166.0,565561.2972115094,33057.01330578759,0.655050107936523,19.47315180137067
167.0,635268.834509661,38071.97219591102,0.6526644355390678,19.1768546493644
168.0,716516.2412412051,44320.88795853555,0.6502885753271481,18.89242716653166
169.0,812288.985425539,52001.20168049828,0.6479233993461937,18.61942027624599
170.0,926027.8781899331,61306.33167047073,0.6455697149554784,18.357413697292632
171.0,1061604.5552198684,72421.87183965763,0.6432282904918,18.106011968080175
172.0,1223283.754860528,85521.98219874197,0.6408998767205198,17.864841219700754
173.0,1415675.6336520808,100766.07417348251,0.6385852247393318,17.633546596259414
174.0,1643676.6542163047,118295.95653364569,0.6362851011328038,17.41179011423309
175.0,1912405.326730569,138233.41851292556,0.6340003006583945,17.199248906368936
176.0,2227128.4281387106,160678.36608506108,0.6317316571625576,16.995613759604062
177.0,2593186.1561973286,185707.4674563375,0.6294800526246516,16.800587870663275
178.0,3015914.1776174614,213372.10821119012,0.6272464248894024,16.613885806934984
179.0,3500537.649709387,243716.73474776788,0.6250317740078195,16.435232610953268
180.0,4052203.2454375033,277201.5565403371,0.6228371673962346,16.264363028519416
181.0,4677308.349171402,314855.3724093825,0.620663743837506,16.101020849023477
182.0,5384926.010758531,358168.11823251646,0.6185127165391976,15.944958329710115
183.0,6187963.846788031,409059.8394002219,0.6163853750953163,15.795935699477814
184.0,7104190.708675647,469850.96917186043,0.6142830866143226,15.653720727671864
185.0,8157154.620978433,543222.5514349833,0.6122072957402669,15.518088345984536
186.0,9376935.360646702,632166.0757305762,0.6101595239391715,15.388820328181048
187.0,10800729.212782625,739923.1861590819,0.6081413677255166,15.265705006075104
188.0,12473221.308616579,869919.0141438852,0.6061544962120539,15.148537036438487
189.0,14446754.458512686,1025690.7071941614,0.604200647635098,15.037117192797009
190.0,16781276.502675775,1210815.0713046284,0.602281625252662,14.931252202871786
191.0,19544079.664196827,1428837.1617996113,0.600399292298258,14.830754603319413
192.0,22809352.30620245,1683202.413996748,0.5985555663375817,14.735442634854284
193.0,26657548.1513862,1977192.0411539199,0.596752412802851,14.64514015003964
194.0,31174571.01175169,2313911.4369057254,0.5949918379698801,14.559676554984826
195.0,36451059.12910245,2697047.619943364,0.593275881258833,14.47888676442809
196.0,42584262.75856943,3132126.8049843223,0.591606607012436,14.402611178349778
197.0,49683201.547987714,3627441.030265853,0.5899860957663006,14.33069567475189
198.0,57876049.203383476,4194779.63745362,0.5884164350947925,14.262991618265486
199.0,67319177.80853638,4850000.45038263,0.5868997100848191,14.199355881553036
200.0,78207329.53146867,5613435.252009928,0.5854379935077402,14.1396508781258
201.0,90784423.20037296,6510121.911899547,0.5840333357633113,14.08374460440862
202.0,105354483.20438005,7569864.764911427,0.5826877546687915,14.031510689972167
203.0,122292216.78599547,8827130.793975757,0.5814032251665571,13.982828453956644
204.0,142052813.81140622,10320796.397255158,0.580181669025496,13.937582965960575
205.0,165180609.0077533,12093764.546567107,0.5790249446118549,13.895665109706464
206.0,192316330.32648623,14192475.168008404,0.5779348368055699,13.856971647818945
207.0,224202733.4457697,16666332.301418206,0.5769130471318247,13.821405286355542
208.0,261688392.6391818,19567102.465640623,0.5759611841845323,13.788874736932884
209.0,305729788.9286259,22949200.894666225,0.5750807544251407,13.7592947748258
210.0,357394992.0987423,26872176.53828569,0.574273153411532,13.73258629209397
211.0,417874978.78630966,31404899.745114062,0.573539657528036,13.708676343998764
212.0,488506600.02894247,36630808.35869879,0.5728814162803892,13.68749818729014
213.0,570809451.6367658,42653793.78277858,0.5722994452155634,13.668991309025536
214.0,666537740.5967051,49604358.28310713,0.5717946195233459,13.653101444673627
215.0,777747157.8559973,57645711.66305392,0.57136766836,13.63978058467649
216.0,906875770.8970568,66979508.55907373,0.5710191699575369,13.628986967611374
217.0,1056837585.2419251,77850973.28340816,0.5707495475625773,13.62068505930712
218.0,1231126456.8481014,90553222.8680967,0.5705590662221245,13.61484551750913
219.0,1433927825.8143349,105430645.8698291,0.5704478304529251,13.611445141158203
220.0,1670235467.1515667,122881249.07943402,0.5704157828170742,13.610466803738996
221.0,1945970360.487181,143357930.84634504,0.5704627034195615,13.611899370306416
222.0,2268098964.348758,167368740.18664792,0.5705882103374211,13.615737597977999
223.0,2644747908.1867557,195477397.31981966,0.5707917609678066,13.621982020117489
224.0,3085317055.57503,228307155.1628599,0.571072654317712,13.630638813381019
225.0,3600602161.2659297,266550385.373538,0.5714300342069617,13.641719648536656
226.0,4202942631.264652,310985029.0486963,0.5718628933530074,13.655241525597065
227.0,4906412578.622111,362498273.1947174,0.5723700783141809,13.671226593670939
228.0,5727073247.834658,422117230.245438,0.5729502952535439,13.68970195627275
229.0,6683303340.629072,491045923.6117278,0.5736021164779422,13.710699462979417
230.0,7796221739.077088,570707506.8428717,0.5743239876999391,13.734255488516293
231.0,9090210995.982733,662790432.2525545,0.5751142359532555,13.760410700545824
232.0,10593548723.384796,769296993.1282691,0.5759710781216173,13.789209816767595
233.0,12339148888.953888,892592688.56428,0.5768926299884083,13.820701353395021
234.0,14365409086.76575,1035454852.8540405,0.5778769157306929,13.854937366363353
235.0,16717156625.405201,1201119032.0672548,0.5789218777801478,13.891973186710656
236.0,19446681919.80918,1393321734.3994844,0.5800253869665926,13.931867151705262
237.0,22614844131.264545,1616339125.8337686,0.5811852528576176,13.97468033332198
238.0,26292235959.10801,1875024256.6124487,0.582399234206464,14.020476265742525
239.0,30560393372.757614,2174848472.701777,0.5836650494177137,14.069320673375026
240.0,35513065846.053696,2521953457.304774,0.5849803869528843,14.121281200812344
241.0,41257571493.65812,2923220587.5696235,0.5863429155801877,14.176427146601098
242.0,47916276603.178024,3386363324.7597733,0.5877502943893033,14.234829202149706
243.0,55628253103.668335,3920046988.593774,0.5892001824943944,14.296559197136034
244.0,64551174266.005264,4534038621.600466,0.5906902483526487,14.361689852702307
245.0,74863511888.46819,5239387807.583287,0.592218178631506,14.43029454362621
246.0,86767098837.6436,6048637458.746215,0.5937816865655647,14.50244707055986
247.0,100490086126.56348,6976062069.938754,0.5953785197505564,14.57822144311235
248.0,116290356166.73982,8037928463.361304,0.5970064673242194,14.657691674837569
249.0,134459400130.16267,9252773660.911797,0.5986633665010589,14.740931590748497
