Time,J,A,S,tau
0.0,100.0,100.0,0.8659135856348029,20.0
1.0,912.3898858971206,664.030208672219,0.8499243370022387,19.5165907891782
2.0,3635.2963390694977,1183.7186139034325,0.833931745611341,19.027555237564783
3.0,8025.749926155686,1661.3827988120493,0.8179522734409304,18.533051057062682
4.0,13859.164407464446,2099.2665571541365,0.8020020346779266,18.03323542145559
5.0,20928.540372138315,2499.5365906033885,0.7860968850961156,17.528268687189858
6.0,29043.65645838331,2864.2829159706816,0.7702523733370783,17.018314307146905
7.0,38030.26082487946,3195.519432936861,0.7544836942478292,16.5035387410443
8.0,47729.28294796589,3495.1843946393715,0.7388056447285927,15.984111361961572
9.0,57996.00519330664,3765.141584850171,0.723232582088655,15.460204358530854
10.0,68699.30614720768,4007.180867691735,0.7077783853069137,14.931992635569316
11.0,79720.86352586707,4223.01946197239,0.6924564193884356,14.399653709551545
12.0,90954.38508013145,4414.303151387852,0.6772795031952973,13.863367600826045
13.0,102304.94636257767,4582.606496440809,0.6622598798820136,13.323316729712452
14.0,113578.45825190507,5023.8030503818045,0.6573917966497929,13.17682961872522
15.0,126499.7533333536,6719.980925985757,0.6552703397347981,13.137276119889504
16.0,144951.65052104526,9511.610569318838,0.6532313246147523,13.099545710746828
17.0,171988.1387073983,13187.083097789522,0.65127624096506,13.06362837464728
18.0,209868.70078857912,17560.710554423134,0.6494065040703695,13.029514265990981
19.0,260181.50869099042,22470.29277828392,0.6476234538512767,12.997193720163045
20.0,323952.1004007996,27774.8593980676,0.6459283539721666,12.966657263763256
21.0,401739.1917843917,33352.5708259161,0.6443223910523741,12.937895625076521
22.0,493718.59158595564,39098.77954442325,0.6428066739547172,12.91089974489859
23.0,599756.3066636139,44924.24364162442,0.6413822331383833,12.885660787404534
24.0,719472.1738674924,50753.47901758509,0.6400500201115209,12.862170151263127
25.0,852294.5496558772,56523.24626117988,0.6388109070195217,12.840419480679145
26.0,997508.1218845877,62181.17968266701,0.6376656859640532,12.820400676223139
27.0,1154173.5012315717,67965.36979755298,0.6366150689564435,12.802105905566167
28.0,1323033.7143987843,76020.28682142854,0.6356596876365075,12.785527614594924
29.0,1511991.978212859,88601.62419433545,0.6348000928765084,12.770658536403092
30.0,1735105.4991498843,107278.21433034663,0.6340367547123251,12.757491700766035
31.0,2010374.5802694026,133062.59680298116,0.6333700622665245,12.746020442434508
32.0,2358023.2022332745,166521.99271162876,0.6328003237438784,12.736238408553788
33.0,2799177.301509801,207872.10578407953,0.632327766491591,12.728139564837855
34.0,3354876.4083563336,257055.85989807977,0.6319525371402096,12.721718200535653
35.0,4045352.425598755,313809.1322594436,0.6316747018013428,12.716968932037826
36.0,4889528.509806359,377715.2767581873,0.6314942463593631,12.713886705041139
37.0,5904686.183551946,448250.0871872029,0.6314110768288007,12.712466794993608
38.0,7106278.789461383,524818.3518338288,0.6314250197950482,12.712704806313578
39.0,8507844.403881686,606782.3712088955,0.631535822912942,12.71459666974443
40.0,10120861.74932519,693850.8920940795,0.6317431554470234,12.718138637934171
41.0,11957056.02879629,788996.104593777,0.6320466090670561,12.723327280314827
42.0,14040346.1892308,899399.9424587485,0.6324456985427124,12.730159475550996
43.0,16418991.064960122,1034924.2538899274,0.6329398625141389,12.738632403087438
44.0,19172844.605083834,1206831.364566291,0.6335284644100759,12.748743533313275
45.0,22416848.41502846,1426841.9391112225,0.6342107934098349,12.760490616615646
46.0,26301841.905001365,1706459.239314109,0.6349860654729166,12.773871671419643
47.0,31013528.93518085,2056502.7850542434,0.6358534244343392,12.788884971385194
48.0,36770243.05324438,2486804.9026565454,0.6368119431630592,12.805529031923749
49.0,43819998.048801355,3006032.3805990624,0.6378606247819248,12.823802596199975
50.0,52437189.96881026,3621602.6270596464,0.6389984039429002,12.843704620801091
51.0,62919183.51196343,4339670.423833738,0.6402241481625981,12.865234261155681
52.0,75583014.28683615,5165164.122863208,0.6415366592065415,12.888390856970878
53.0,90762241.64137408,6102081.82824501,0.6429346745187365,12.913173917803515
54.0,108805713.95596495,7157109.73422905,0.6444168687410952,12.939583108663962
55.0,130092814.85058162,8346967.7072987035,0.6459818552142327,12.967618236247075
56.0,155073176.5845238,9703744.878554452,0.6476281875947665,12.99727923521549
57.0,184323245.20061916,11277548.7497874,0.6493543614978189,13.028566155274275
58.0,218611253.86809447,13137266.117307866,0.6511588161666743,13.061479148641565
59.0,258964991.81573415,15370023.494486902,0.6530399362561845,13.096018458085261
60.0,306738335.67014587,18079860.322951045,0.6549960535924889,13.13218440545697
61.0,363675012.3916143,21385905.49543707,0.6570254490367401,13.169977380930694
62.0,431967179.54301816,25420329.363113653,0.6591263544097025,13.209397832652849
63.0,514308801.19504267,30326257.37539905,0.6612969544378722,13.250446256927427
64.0,613944183.6854805,36255734.09659704,0.6635353887911511,13.293123188902864
65.0,734710518.377368,43367844.32573131,0.6658397541822177,13.337429193561656
66.0,881075943.6548566,51827037.01027126,0.6682081065001599,13.383364857063505
67.0,1058174052.9481046,61802672.533294514,0.6706384630391004,13.430930778387985
68.0,1271841404.160446,73476171.3462178,0.6731288047844936,13.480127561079323
69.0,1528695939.5288684,87060098.63630967,0.6756770787436714,13.530955805119019
70.0,1836301520.7759929,102825332.78280367,0.6782812003678196,13.583416098873723
71.0,2203445831.503625,121132016.99757044,0.6809390560263465,13.637509010935414
72.0,2640550504.606394,142461413.49256092,0.6836485055298206,13.693235081875072
73.0,3160218125.489169,167446549.04554576,0.6864073847327432,13.750594815876442
74.0,3777911932.1759186,196900679.1956849,0.6892135081809035,13.80958867208694
75.0,4512769494.656349,231842963.77775645,0.6920646718038982,13.87021705571849
76.0,5388538113.635144,273520806.0132877,0.6949586556683502,13.932480308894268
77.0,6434619850.117572,323429238.3652737,0.6978932267648233,13.996378701095212
78.0,7687227860.6654215,383327367.7459233,0.7008661418277764,14.061912419263741
79.0,9190632033.510082,455251892.42645705,0.7038751501915592,14.129081557590837
80.0,10998484247.423246,541528500.6025851,0.7069179966660117,14.197886106848202
81.0,13175230969.711027,644781333.597862,0.709992424424739,14.268325943356672
82.0,15797582985.890982,767945414.1375792,0.7130961779018518,14.340400817643713
83.0,18956076895.31914,914298623.2494434,0.7162270056914865,14.414110342642276
84.0,22756857347.733276,1087530668.6251915,0.7193826634329777,14.489453981571053
85.0,27323821123.297215,1291860146.8085604,0.7225609166767337,14.566431035558622
86.0,32801370250.77612,1532205389.2995675,0.7257595437341672,14.645040630843123
87.0,39358053416.79067,1814409135.3514934,0.728976338481886,14.725281705751986
88.0,47191288327.76658,2145515108.3540556,0.7322091131211808,14.807152997507039
89.0,56533457424.49191,2534094525.696283,0.7354557009017877,14.890653028665795
90.0,67659640997.86445,2990615895.070892,0.738713958766899,14.97578009348061
91.0,80897100676.93182,3527853832.725252,0.7419817699324139,15.062532244172598
92.0,96636788077.12434,4161334276.7683787,0.7452570464103373,15.150907276921824
93.0,115347047630.43349,4909806596.123452,0.7485377314217542,15.240902717939809
94.0,137589491686.45114,5795740488.990544,0.751821801728543,15.332515809541885
95.0,164037306938.72348,6845845689.351655,0.7551072698893164,15.425743496034604
96.0,195496000087.491,8091603204.617767,0.758392186377512,15.520582409866323
97.0,232926409985.6054,9569810775.092339,0.7616746416086457,15.617028857854613
98.0,277470269398.7051,11323149785.809406,0.7649527678724908,15.715078807350759
99.0,330478165602.73773,13400795058.781807,0.7682247411068739,15.814727872857306
100.0,393539886557.59784,15859134185.357916,0.7714887825765704,15.915971302794969
101.0,468518089904.3105,18762667383.259212,0.7747431604387691,16.018803966360842
102.0,557585681873.6145,22185157272.959686,0.7779861911387407,16.123220341032805
103.0,663267929190.0707,26211124657.569984,0.7812162407108246,16.22921450030196
104.0,788491522362.8171,30937762641.88979,0.7844317259487105,16.336780101696785
105.0,936641703343.1589,36477325624.89414,0.7876311154009974,16.445910375644583
106.0,1111628974697.8904,42960093838.93456,0.7908129303031306,16.556598114593534
107.0,1317970082592.2913,50537907766.974686,0.7939757452930282,16.668835662938427
108.0,1560881995976.977,59388389406.88761,0.797118189077859,16.78261490748046
109.0,1846394880815.8945,69719793368.36026,0.8002389448819275,16.897927268914216
110.0,2181483239749.8357,81776621482.62976,0.8033367508629862,17.01476369375021
111.0,2574219965503.6914,95845862922.76993,0.8064104002881833,17.133114647725538
112.0,3033953370506.088,112264046929.39749,0.8094587417069464,17.252970109527787
113.0,3571509486390.8574,131424865817.64589,0.8124806788713554,17.374319566456762
114.0,4199421657625.7124,153787617793.75772,0.8154751706696739,17.49715201036005
115.0,4932185435948.657,179886125948.8636,0.8184412308098077,17.621455935900652
116.0,5786543601118.845,210338464644.43427,0.8213779275218295,17.747219339192018
117.0,6781793487593.407,245857192305.2488,0.8242843830548785,17.874429718911795
118.0,7940126270474.0625,287260320839.07635,0.8271597730940657,18.003074078609345
119.0,9286991027475.33,335483311020.09686,0.8300033261264778,18.133138930628473
120.0,10851480940884.969,391592132214.8888,0.8328143226588997,18.26461030248509
121.0,12666751536822.969,456797804536.1265,0.8355920943504589,18.39747374510245
122.0,14770471001675.541,532473019472.13763,0.8383360231051293,18.531714342965007
123.0,17205295094266.967,620171151768.5317,0.8410455400576462,18.667316727104268
124.0,20019388844138.477,721648072578.7042,0.8437201244618002,18.804265090537584
125.0,23266986787030.79,838887815251.8668,0.8463593025731906,18.942543206190773
126.0,27009014067072.184,974132122626.3583,0.8489626464247723,19.082134447835507
127.0,31313761987059.86,1129914799896.5989,0.8515297725633616,19.22302181411138
128.0,36257638952912.05,1309101268428.4912,0.8540603407320163,19.365187955711672
129.0,41926003285692.27,1514933890993.0862,0.8565540525115184,19.508615205932962
130.0,48414088780897.914,1751083499154.7373,0.8590106499238104,19.65328561475517
131.0,55828033579687.91,2021707488599.01,0.8614299140027145,19.79918098660003
132.0,64286027030048.35,2331514761372.973,0.8638116633380216,19.946282921872736
133.0,73919556225605.06,2685837935547.5117,0.8661557526045093,20.094572862622233
134.0,84874792059081.66,3090712333126.7896,0.8684620710606658,20.244032142151696
135.0,97314108552497.88,3552962156699.692,0.8707305410440797,20.39464203874608
136.0,111417719151633.77,4080293610672.233,0.872961116462569,20.54638383370909
137.0,127385442852751.17,4681394698340.28,0.8751537812832837,20.699238873628378
138.0,145438591221180.9,5366041313101.41,0.8773085480262415,20.85318863688974
139.0,165821968144219.22,6145209405572.771,0.8794254562671832,21.008214804389123
140.0,188805972383242.7,7031193055958.206,0.8815045711545253,21.164299334339745
141.0,214688791701502.62,8037728431393.115,0.8835459819450752,21.321424541012817
142.0,243798689799832.12,9180123665374.113,0.8855498005615622,21.47957317712847
143.0,276496326290273.94,10475395847404.016,0.8875161601830761,21.638728519836796
144.0,313177159276951.8,11942414532388.734,0.8894452138603375,21.7988744594449
145.0,354273918501686.0,13602054348010.527,0.8913371331738437,21.959995590935353
146.0,400259123284082.2,15477356647185.74,0.8931921069274011,22.122077307294557
147.0,451647641687142.25,17593702647347.05,0.8950103398869366,22.285105894121063
148.0,508999320105514.4,19978999248339.664,0.8967920515669408,22.449068624627003
149.0,572921708187959.4,22663880915980.625,0.8985374750732358,22.613953854669568
150.0,644072760333615.4,25681925741650.43,0.9002468559897887,22.779751115106578
151.0,723163741609868.8,29069894465861.625,0.9019204513390263,22.946451203059343
152.0,810962372965596.6,32867988397587.25,0.9035585285930466,23.114046268685307
153.0,908295972111047.9,37120126607171.484,0.9051613647419963,23.282529895014566
154.0,1016054783424202.9,41874249552391.25,0.9067292454383932,23.451897171655663
155.0,1135195559147683.0,47182649418608.57,0.9082624642106167,23.62214476028119
156.0,1266745385967983.2,53102334463876.06,0.9097613217532018,23.793270951787733
157.0,1411805977192831.5,59695389008432.81,0.9112261252508541,23.965275701886434
158.0,1571557595174070.8,67029399981024.25,0.9126571878267207,24.13816066313732
159.0,1747264507389332.5,75177883262678.97,0.9140548280280201,24.31192919432689
160.0,1940279479545061.0,84220723554222.52,0.9154193693847644,24.486586347106027
161.0,2152049187336674.5,94244677854724.62,0.9167511400681378,24.662138841822454
162.0,2384120817546976.5,105343846447744.39,0.9180504725823775,24.83859500893628
163.0,2638146522863479.0,117620194362251.03,0.9193177035525003,25.01596470966334
164.0,2915892104638909.0,131184078481284.94,0.920553173567077,25.19425923043993
165.0,3219241836323752.0,146154757200109.28,0.9217572270779839,25.373491140412682
166.0,3550207728441166.0,162660959417987.44,0.9229302123784142,25.553674126491867
167.0,3910935228870607.0,180841377887830.25,0.9240724816066991,25.734822784977005
168.0,4303713380225953.5,200845254256230.56,0.925184390833626,25.91695238709515
169.0,4730980640804045.0,222832866817552.53,0.9262663001583438,26.100078602216875
170.0,5195336582402555.0,246976099507432.22,0.9273185738722769,26.284217187319367
171.0,5699547959168790.0,273458952757451.53,0.9283415806329497,26.469383639286796
172.0,6246561656106713.0,302478024491073.6,0.9293356936525207,26.655592810905684
173.0,6839512070392575.0,334243135088828.7,0.9303012909488213,26.842858485300845
174.0,7481733195968534.0,368977710610778.0,0.9312387555185677,27.031192931264027
175.0,8176769872815698.0,406919467666040.0,0.9321484756102209,27.220606398977207
176.0,8928387989487377.0,448320905236035.4,0.9330308449099924,27.411106608564378
177.0,9740588689414978.0,493449831065435.75,0.933886262715306,27.602698211667782
178.0,1.0617623258335636e+16,542590079293547.4,0.9347151341352515,27.79538219808454
179.0,1.1564004076788464e+16,596042172430052.5,0.9355178702120107,27.989155310592114
180.0,1.2584522970629224e+16,654123948394350.5,0.9362948879789654,28.18400945364173
181.0,1.368426804417479e+16,717171493116788.8,0.9370466105396333,28.379931043812377
182.0,1.4868641417844832e+16,785540036932959.4,0.93777346704674,28.57690038292853
183.0,1.614337946705471e+16,859604919781669.2,0.9384758926131891,28.774891041035495
184.0,1.7514575209771034e+16,939762721099392.1,0.9391543281733068,28.97386923314837
185.0,1.8988705089719304e+16,1026432532627705.6,0.9398092202793974,29.173793198250245
186.0,2.0572655157366516e+16,1120057510960247.4,0.9404410208472266,29.37461256874015
187.0,2.227374703148111e+16,1221106479772092.5,0.9410501867995484,29.576267813217033
188.0,2.4099775188416876e+16,1330075711152114.5,0.9416371796457923,29.778689678717114
189.0,2.605904212820093e+16,1447491008383119.8,0.9422024650043852,29.981798662643257
190.0,2.8160398722944344e+16,1573910013700220.2,0.9427465120553497,30.185504521226626
191.0,3.041328951300796e+16,1709924777309231.8,0.9432697929296614,30.38970581710038
192.0,3.2827802935343236e+16,1856164663154330.2,0.9437727820416922,30.59428949810837
193.0,3.5414724035466652e+16,2013299580471243.8,0.9442559553649419,30.79913053398503
194.0,3.818559612111963e+16,2182043428019010.0,0.9447197896571236,31.00409162011736
195.0,4.1152787648666136e+16,2363158144937729.5,0.9451647616463745,31.209022886813674
196.0,4.432956386658063e+16,2557457924985034.0,0.9455913471823343,31.413761717390727
197.0,4.773017233696841e+16,2765814022930208.0,0.9460000203534024,31.618132573050026
198.0,5.136993191432008e+16,2989160010548288.5,0.9463912525839621,31.82194689445652
199.0,5.5265332767912296e+16,3228497554906767.5,0.9467655117137869,32.02500305459426
200.0,5.9434146964643896e+16,3484902762045533.5,0.9471232610667674,32.227086366968514
201.0,6.389555072790162e+16,3759533140504676.0,0.9474649585147736,32.42796914904952
202.0,6.867025970976399e+16,4053635249787833.5,0.9477910555421477,32.62741084082832
203.0,7.378067910782027e+16,4368553070490659.5,0.9481019963155419,32.8251581775663
204.0,7.925106841596045e+16,4705737234623998.0,0.9483982167607715,33.0209454153921
205.0,8.510772471722293e+16,5066755086788645.0,0.9486801436560943,33.21449461530671
206.0,9.13791855967481e+16,5453301734132210.0,0.948948193740577,33.40551597973311
207.0,9.809645384742651e+16,5867212168960145.0,0.9492027728402026,33.59370824346799
208.0,1.05293246533352e+17,6310474567796484.0,0.94944427501333,33.77875912007926
209.0,1.1300627120396661e+17,6785244914839615.0,0.9496730817161565,33.960345804938605
210.0,1.2127553244783802e+17,7293863025299262.0,0.9498895609881367,34.138135536586816
211.0,1.3014467226529739e+17,7838870162220171.0,0.950094066656639,34.31178621868943
212.0,1.3966134825608768e+17,8423028402022358.0,0.9502869375594999,34.480947105438645
213.0,1.4987765410013997e+17,9049341931572006.0,0.9504684967835536,34.645259553882056
214.0,1.6085058736932406e+17,9721080485544732.0,0.9506390509166898,34.80435784729294
215.0,1.7264257036240624e+17,1.0441805131437908e+16,0.9507988893105294,34.95787009432474
216.0,1.853220302998166e+17,1.1215396740792694e+16,0.9509482833504027,35.10541920929314
217.0,1.9896404623891587e+17,1.2046087325068002e+16,0.9510874857290404,35.24662397948141
218.0,2.1365107177555683e+17,1.2938494588683314e+16,0.9512167297217332,35.38110022574108
219.0,2.294737410095911e+17,1.389766022916768e+16,0.9513362284495259,35.50846206350734
220.0,2.465317679566413e+17,1.4929092107002054e+16,0.9514461741412316,35.62832327178661
221.0,2.6493495310622518e+17,1.6038810852797218e+16,0.9515467373833804,35.74029877564135
222.0,2.8480430928272918e+17,1.7233401462774698e+16,0.9516380663514867,35.844006249576175
223.0,3.06273321997348e+17,1.8520070505827548e+16,0.951720286020893,35.93906784837917
224.0,3.294893614520007e+17,1.990670942134724e+16,0.9517934973538378,36.02511207105984
225.0,3.546152653728206e+17,2.1401964743574704e+16,0.9518577764599742,36.10177576235767
226.0,3.818311146017215e+17,2.3015316040709424e+16,0.9519131737283376,36.168706254670724
227.0,4.113362262829199e+17,2.475716248690952e+16,0.9519597129297599,36.22556365110546
228.0,4.4335139284081914e+17,2.6638919102960876e+16,0.9519973902899707,36.27202324761238
229.0,4.781213987803875e+17,2.8673123832145572e+16,0.9520261735351496,36.307778088787465
230.0,5.1591785171145664e+17,3.0873556784971292e+16,0.9520460009135051,36.332541647839044
231.0,5.570423690606303e+17,3.3255373063810664e+16,0.9520567801985811,36.34605061641531
232.0,6.018301673651619e+17,3.5835251181038948e+16,0.9520583876824248,36.34806778445665
233.0,6.506541110401827e+17,3.863155855401107e+16,0.9520506671701168,36.33838498434068
234.0,7.039292369914664e+17,4.166453772811671e+16,0.9520334289553447,36.31682607465939
235.0,7.621180654325974e+17,4.495651135726937e+16,0.9520064489379034,36.28324990517611
236.0,8.25736260022607e+17,4.853211758450594e+16,0.951969467621682,36.23755323773359
237.0,8.953591692860428e+17,5.241856462582992e+16,0.9519221893767496,36.179673472274736
238.0,9.716293053561907e+17,5.664592184893425e+16,0.9518642817052936,36.10959127824299
239.0,1.0552649952859671e+18,6.1247458561704856e+16,0.9517953745162128,36.02733312012291
240.0,1.1470697399949152e+18,6.626000846095653e+16,0.9517150597595678,35.93297322453676
241.0,1.2479429289609518e+18,7.1724378590417304e+16,0.9516228912549903,35.826635173997445
242.0,1.3588920989789517e+18,7.76858154249374e+16,0.9515183846838795,35.708493102152715
243.0,1.481047258915088e+18,8.419454559684066e+16,0.9514010177462221,35.57877248094283
244.0,1.6156766138417623e+18,9.130637909522923e+16,0.9512702306972528,35.43775013395307
