Time,J,A,S,tau
0.0,100.0,100.0,0.6265441712842129,23.255813953488374
1.0,119.53033334469127,120.2862373358724,0.6238304608870644,24.083718646568208
2.0,146.84162068618943,138.40236000191234,0.6209811588036753,24.927994269467046
3.0,180.64047202504418,154.5557128223657,0.618014935661356,25.78707871898632
4.0,219.80405193714202,168.93932889457793,0.6149489008482562,26.659576404732896
5.0,263.36130860670346,181.73363495388267,0.6117989095425205,27.54417593557862
6.0,310.476597706066,193.10544191794745,0.6085794613667231,28.439658519158982
7.0,360.43433567880015,203.2075474564291,0.6053036620085163,29.34490191886464
8.0,412.62458743523797,212.1788426731145,0.6019832364456498,30.258880712959964
9.0,466.52985409975037,220.14478056587825,0.5986285790692206,31.180663843217484
10.0,521.713382737682,227.21804086884154,0.5952488239007543,32.10941062791366
11.0,577.8080697626195,233.4994629161905,0.5918519414489298,33.04436472688949
12.0,634.5074499482804,239.0788990701554,0.5884448278527277,33.98484855194779
13.0,691.5569188039525,244.03626116548745,0.5850334126484394,34.93025617737493
14.0,748.7465394592999,248.44245636881075,0.5816227553261324,35.88004694149923
15.0,805.9047173071237,252.36029345374212,0.5782171385757416,36.83373917786932
16.0,862.8924584577156,255.845396363912,0.5748201614843892,37.79090380609757
17.0,919.5988249151178,258.9469498172013,0.5714348161291459,38.75115908837734
18.0,975.9365299197851,261.70850107850623,0.5680635685750598,39.714164903504575
19.0,1031.8386569203099,264.1685606624577,0.5647084203742431,40.67961845573054
20.0,1087.255334496347,266.36127408937324,0.5613709756536939,41.64724940640092
21.0,1142.1512680932597,268.3169280192301,0.5580524921099473,42.6168161926362
22.0,1196.5037345320077,270.0623638579147,0.5547539233071317,43.58810301499774
23.0,1250.3004495128532,271.6214676183168,0.5514759666807126,44.56091620622174
24.0,1303.537926173682,273.0155559949727,0.548219101489353,45.53508136252066
25.0,1356.2201170047986,274.2637105925463,0.5449836212356882,46.510440847966635
26.0,1408.3577965556897,275.3828972903897,0.5417696487724626,47.48685287085883
27.0,1459.96660627243,276.3885343511414,0.5385771856039878,48.46418719857813
28.0,1511.0670849505634,277.2944516566857,0.5354061126782134,49.44232542515139
29.0,1561.6837583621411,278.1131583753729,0.5322562155902741,50.421158873387995
30.0,1611.8441227929798,278.8561724771705,0.5291272108830672,51.40058613028175
31.0,1661.5790851623358,279.5338742648679,0.5260187417087153,52.38051393339637
32.0,1710.9214309905824,280.1560240102785,0.5229304134738075,53.36085339697493
33.0,1759.9066812795465,280.73151309077787,0.5198617848182568,54.341521512698144
34.0,1808.571713638204,281.26882336829385,0.5168123946065709,55.3224379399382
35.0,1856.9557116222984,281.77581239806415,0.5137817595456396,56.303526004368976
36.0,1905.0988223377665,282.2601051083767,0.5107693901766666,57.28471027577583
37.0,1953.0432212429826,282.7289462353305,0.5077747973982506,58.26591671461641
38.0,2000.8319455723488,283.18944848557504,0.504797495350888,59.247071579373106
39.0,2048.5099354888325,283.64858840439473,0.5018370197650033,60.22810016506652
40.0,2096.1230332221176,284.11331059225324,0.49889292097436905,61.20892692241598
41.0,2143.7188070304232,284.5906259242669,0.49596478287589435,62.18947362074745
42.0,2191.3461903849584,285.0876779658055,0.4930522272335535,63.169658844956395
43.0,2239.0555500320907,285.6117770088028,0.49015490962019337,64.14939797531255
44.0,2286.8993567702423,286.1706539881412,0.4872725577300375,65.12859936485954
45.0,2334.931239155022,286.77222971461185,0.48440492906085664,66.10716829645023
46.0,2383.2078202792154,287.4251894193372,0.48155188868132615,67.08499861285839
47.0,2431.7868591299853,288.13850272035086,0.47871334025919443,68.06197997297538
48.0,2480.729845074309,288.9221452770232,0.47588931481380936,69.03798762883048
49.0,2530.100018962789,289.7867063580401,0.4730799191018648,70.01288822460563
50.0,2579.9646343122504,290.7438286884443,0.4702853846949048,70.98653359561821
51.0,2630.394265964696,291.80641862135724,0.46750608996225823,71.95875814874672
52.0,2681.4633064105274,292.9883673748338,0.46474252489595486,72.92938255872534
53.0,2733.2512712059543,294.3053558182684,0.4619953799694585,73.89820286587383
54.0,2785.8428843749325,295.77457602456894,0.4592655116706934,74.86499419226134
55.0,2839.3285825160447,297.41523574774294,0.4565539963372009,75.82950393191298
56.0,2893.8065166782876,299.2487798601298,0.45386215087463405,76.79144845904852
57.0,2949.3816251635094,301.2990084827421,0.4511915442035926,77.75051163844367
58.0,3006.1691721637562,303.5926987512274,0.44854406067136965,78.70633589815782
59.0,3064.2940863824065,306.1595448443003,0.4459218921255178,79.65852304537952
60.0,3123.893653030752,309.0329658831584,0.44332762104240925,80.60662285564187
61.0,3185.1197282841586,312.2503416682982,0.440764242780547,81.55012942350376
62.0,3248.1392080631604,315.8531658341405,0.438235180216766,82.48847887080193
63.0,3313.138431805122,319.88790841855206,0.4357443713211962,83.42103680848156
64.0,3380.3255880733313,324.4062828009299,0.43329629478017345,84.34709414510921
65.0,3449.9338807125596,329.4655940769393,0.4308960040649657,85.2658616836
66.0,3522.225267479827,335.1291139458783,0.4285491641392133,86.17646426681175
67.0,3597.4958226297085,341.4666106364599,0.4262621036910035,87.07793249108926
68.0,3676.080890804263,348.55430255739026,0.42404180756588505,87.96920260848243
69.0,3758.360969865731,356.47501306725104,0.4218959300613561,88.84911343824638
70.0,3844.768606761281,365.31795586487584,0.4198327696383078,89.71640846693442
71.0,3935.796090694986,375.17827512652593,0.417861218139645,90.56974139815864
72.0,4032.003926170815,386.1562410256017,0.4159906742729475,91.40768661713072
73.0,4134.030058156441,398.3560422797999,0.4142309153930489,92.22875545146829
74.0,4242.599937807747,411.88411190015125,0.4125919210234946,93.03141917933263
75.0,4358.536863886957,426.8469656726839,0.41108364622972243,93.81413925027198
76.0,4482.77221384182,443.3485921081771,0.4097157490735744,94.57540413213414
77.0,4616.355511850986,461.4874617672111,0.408497279196019,95.3137718649393
78.0,4760.463754130793,481.35327652101944,0.40743634020428166,96.02791660609697
79.0,4916.409483486433,503.0236382803889,0.4065397445804114,96.71667656322903
80.0,5085.647105021243,526.5608631504412,0.4058126845941748,97.37910001103205
81.0,5269.777091775991,552.0091607637252,0.4052584420045654,98.01448611169927
82.0,5470.5480635375225,579.3923991086228,0.40487815926430615,98.62241727695087
83.0,5689.854038640205,608.7132318288044,0.40467075292829285,99.20277228736745
84.0,5929.7313724091255,639.9525998158739,0.404632866219886,99.75573314853384
85.0,6192.351835870913,673.0706837147452,0.4047589724332559,100.28177139723421
86.0,6480.0140485066995,708.0087453619363,0.40504157056222806,100.78162138868298
87.0,6795.133453765531,744.6917866051563,0.4054714655651653,101.25624177986481
88.0,7140.231557179687,783.0317769396156,0.4060381073040798,101.70676887859113
89.0,7517.925085440049,822.9311721445655,0.4067299592212948,102.13446594176746
90.0,7930.915632547998,864.2864515615852,0.4075348684360595,102.54067240196453
91.0,8381.980214988715,906.9914395063962,0.40844041291933725,102.92675641939782
92.0,8873.962989259484,950.9402350138444,0.4094342075361957,103.2940732729492
93.0,9409.768218244611,996.0296408062268,0.41050415769382986,103.64393111273692
94.0,9992.354427958899,1042.161045900039,0.411638655942422,103.97756466340536
95.0,10624.72958490608,1089.241768996787,0.41282672235557794,104.29611670264177
96.0,11309.947050517265,1137.1859080504375,0.41405809348621925,104.60062659455066
97.0,12051.1020304621,1185.9147648211592,0.41532326711884615,104.89202483375286
98.0,12851.328226919304,1235.3569237174788,0.41661351111974504,105.17113242201842
99.0,13713.794413507781,1285.4480648194626,0.41792084473825414,105.43866390800167
100.0,14641.700566520156,1336.1305735101587,0.4192379989281947,105.69523318261072
101.0,15638.273901718261,1387.3530708686567,0.4205583684281888,105.94136027292922
102.0,16706.763461937855,1439.0697897970447,0.42187594821073937,106.17748018863549
103.0,17850.43429390685,1491.2399738984657,0.42318527235784953,106.40395133071625
104.0,19072.560456714633,1543.8272507914437,0.4244813505175217,106.62106417076942
105.0,20376.416996350872,1596.79905280415,0.4257596095933058,106.82904913836941
106.0,21765.270810681406,1650.12601327573,0.427015832781036,107.02808489637614
107.0,23242.370229575597,1703.7814611267713,0.42824610949844993,107.21830506212656
108.0,24785.09947057717,1793.759421735838,0.43765281132897704,103.95279659677028
109.0,26344.647852688184,2107.4714415153653,0.4670431574802855,93.84190512179636
110.0,27946.72384800877,3238.7063989164867,0.5746409023983868,60.16518907157506
111.0,31275.221114883836,4048.8294641187704,0.6338908341851773,44.68605955605205
112.0,35771.85075937931,4530.7578595178275,0.6553249244591386,39.35071387996783
113.0,40998.24020949384,4927.883608465532,0.666188657569631,36.440152872758226
114.0,46850.68654358928,5299.688893327386,0.6723179662889992,34.53037229870321
115.0,53308.37339662628,5670.236449707859,0.6757998115709166,33.14845332300115
116.0,60385.055139679476,6052.700059955181,0.6776097504312408,32.08430078562791
117.0,68114.55482633515,6455.889609640978,0.6782810907727848,31.22759739381002
118.0,76545.22915020424,6886.578743293582,0.6781368304036317,30.513802000904583
119.0,85737.6281385842,7350.497042714375,0.677387191575216,29.902208770132184
120.0,95763.44895599163,7852.807779950291,0.6761762305884164,29.36574634161442
121.0,106705.22932029124,8398.353126457192,0.6746067864498085,28.885645371809865
122.0,118656.20608428514,8991.79074924013,0.6727543739221293,28.448526965309593
123.0,131720.46198405753,9637.66634215704,0.6706758357806447,28.04462228313738
124.0,146012.9920933806,10340.455207234847,0.6684146653290637,27.666694262831363
125.0,161659.90289988657,11104.580484797789,0.6660046689927731,27.309307532295456
126.0,178798.46473465735,11934.420815111791,0.663472377884266,26.968354050252053
127.0,197577.19942927902,12834.307981072394,0.6608388395527361,26.64070649659861
128.0,218155.80318192393,13808.520081914601,0.658120854469212,26.323982020143614
129.0,240705.05516725103,14861.269877330587,0.6553319498208378,26.016359635705403
130.0,265406.5161133511,15996.69058157768,0.6524830698044843,25.716452329470265
131.0,292452.1382826101,17218.819477052926,0.6495831463827003,25.42320361024226
132.0,322043.88667659,18531.578367289334,0.6466395124395745,25.135813530929134
133.0,354385.76162326836,19950.081130417606,0.6436582398126761,24.853679508637317
134.0,389665.37307019596,21692.671601182625,0.6406444067504646,24.57635029612772
135.0,428650.6761358271,24670.03987306811,0.6376023001115405,24.303491810947204
136.0,474442.8494629603,28688.3831122171,0.63453558291562,24.034859413148638
137.0,529303.4531959329,33367.32461428033,0.6314474246430888,23.770276735024538
138.0,594787.9406438876,38646.02072316002,0.6283406047698202,23.509619198646348
139.0,672345.8602290081,44534.3560469057,0.6252175945677684,23.25280123630519
140.0,763462.6757912707,51072.604133709174,0.6220806217616536,22.99976638898471
141.0,869724.6786141634,58320.534454837645,0.6189317212018507,22.750479687728596
142.0,992862.1750436148,66353.51372910268,0.615772774640408,22.504921791379438
143.0,1134785.2348472564,75260.93895891016,0.6126055416305098,22.263084502812124
144.0,1297615.88152905,85145.57090853718,0.6094316834726634,22.0249673571999
145.0,1483718.5958820167,96123.21944229264,0.6062527815841808,21.790575042974545
146.0,1695729.4779255837,108322.53439614554,0.603070351454179,21.559915468078568
147.0,1936583.9700806614,121884.77374289611,0.5998858531033173,21.332998324611637
148.0,2209542.8816769486,136963.47420936287,0.5967006987806585,21.109834036933346
149.0,2518215.1626094333,153724.00248627932,0.5935162585167649,20.890433006856902
150.0,2866578.742162975,172342.91668890338,0.5903338639418763,20.674805079955103
151.0,3258996.51741666,193007.16921748678,0.5871548108115335,20.462959186638038
152.0,3700227.8508812673,215913.12104533013,0.5839803605025494,20.25490311130972
153.0,4195433.927071551,241266.68172084301,0.5808117407104594,20.05064335747512
154.0,4750144.319631936,269444.9463994575,0.5776501455930189,19.8501850857131
155.0,5370957.549906205,302209.6103170132,0.5744967354387228,19.653532102764473
156.0,6070401.947897415,342109.8723861794,0.57135263603334,19.460686886408983
157.0,6867428.943188469,390709.2068532871,0.5682189379506287,19.271650640213814
158.0,7784778.2783954535,449350.09827629296,0.5650966956030586,19.086423359136525
159.0,8848397.182831785,519397.5395432672,0.5619869263398362,18.90500390630159
160.0,10087409.776182538,602319.0842307834,0.558890609538195,18.72739009133546
161.0,11534269.637374535,699732.5901828494,0.5558086858513349,18.553578749089553
162.0,13225029.370449265,813442.8626481167,0.5527420565823413,18.383565812361738
163.0,15199689.560808798,945473.1209537259,0.5496915832620264,18.217346377019986
164.0,17502611.013765838,1098092.9333733711,0.5466580874667558,18.054914757136867
165.0,20182968.381087165,1273842.592422727,0.5436423509597933,17.896264529155356
166.0,23295246.28263657,1475553.5257561035,0.5406451161342738,17.741388562225048
167.0,26899740.474421456,1706364.5757843782,0.5376670868327394,17.590279034983936
168.0,31063073.86316367,1969732.8169464874,0.5347089295454672,17.442927436887654
169.0,35858684.87089885,2269438.7603070633,0.5317712750430794,17.299324554528187
170.0,41367279.66716703,2609585.0859980243,0.5288547204540387,17.159460442213106
171.0,47677191.25545534,2994650.800815056,0.5259598318201909,17.023324377031408
172.0,54884881.36232474,3430883.9419437656,0.5230871471198137,16.890904798189073
173.0,63101746.09215659,3929837.8696636204,0.5202371797879415,16.762189231279972
174.0,72469728.07052682,4507295.65639969,0.5174104226631534,16.637164197174368
175.0,83170768.62711304,5181698.957841619,0.5146073525375815,16.5158151090823
176.0,95432147.98024507,5973880.6024503885,0.5118284350774891,16.39812615571893
177.0,109530822.66764283,6907106.749890489,0.5090741302178541,16.28408017277787
178.0,125797460.79098088,8007241.881451874,0.506344897992569,16.173658505359924
179.0,144620629.39730272,9302986.213512883,0.5036412047094513,16.0668408623489
180.0,166451321.91088277,10826162.406883636,0.5009635294521155,15.963605163910984
181.0,191807793.17788413,12612033.994761558,0.4983123708832535,15.863927384289205
182.0,221280829.29070204,14699634.241724094,0.49568825421639506,15.767781394151859
183.0,255539523.55531058,17132093.03659914,0.49309173830672953,15.675138802873745
184.0,295337497.7380432,19956946.908640537,0.4905234228080257,15.585968802646612
185.0,341519234.83866733,23226413.29796505,0.48798395528572114,15.500238019011674
186.0,395026704.86718965,26997614.81865613,0.48547403815538853,15.41791037020102
187.0,456905859.0545109,31333020.98800194,0.4829944354063148,15.338946936477226
188.0,528314281.7555404,36304472.97734433,0.48054597896123297,15.263305843566146
189.0,610544037.6146209,42002847.370608106,0.4781295746011541,15.19094216217782
190.0,705071069.0952874,48544490.67327345,0.4757462073408994,15.121807826328956
191.0,813617380.2111893,56074379.54924684,0.47339694613854705,15.055851573390562
192.0,938217385.7384,64768506.14910622,0.4710829478590983,14.993018907651136
193.0,1081286254.15577,74836111.19007657,0.46880546039785853,14.933252089652905
194.0,1245689715.9831855,86521998.234158,0.46656582487910647,14.876490153232872
195.0,1434815475.447798,100109051.63835914,0.4643654768557553,14.822668951921983
196.0,1652646735.1007335,115921018.18116994,0.46220594644618196,14.771721236081946
197.0,1903838618.861708,134325570.5051048,0.4600888573587321,14.72357676178762
198.0,2193797684.090414,155737642.0146872,0.45801592476729724,14.678162432127253
199.0,2528765711.57158,180622982.91172984,0.45598895199754913,14.63540247179592
200.0,2915908115.103309,209501881.46707624,0.4540098260320492,14.595218634451056
201.0,3363407286.6570764,242952975.9258965,0.45208051183503595,14.55753044262374
202.0,3880560946.5342298,281617595.6080214,0.45020304551626505,14.522255459487917
203.0,4477887507.458642,326209988.4235664,0.4483795263691328,14.48930959137803
204.0,5167260332.5936,377541256.2639346,0.4466121078327631,14.458607419569134
205.0,5962108636.046634,436552038.2699735,0.4449029874425285,14.43006255945775
206.0,6877700088.21121,504347866.381906,0.4432543958429099,14.403588044909435
207.0,7931507850.169031,582235572.9205338,0.44166858494942013,14.379096735304783
208.0,9143659336.750353,671760532.2207572,0.440147815366136,14.356501742151579
209.0,10537464474.394857,774744929.6267484,0.4386943431649192,14.335716872101049
210.0,12140022552.289124,893327452.7639258,0.43731040614341066,14.316657082847044
211.0,13982908300.609426,1030004884.5568848,0.4359982096862703,14.299238948102714
212.0,16102939713.477543,1187676086.583865,0.43475991236001715,14.28338112760564
213.0,18543033040.2109,1369688833.9157836,0.4335976113751541,14.269004837968666
214.0,21353146184.09128,1579889924.773384,0.43251332804554327,14.25603432005026
215.0,24591321951.332787,1822678753.7918096,0.4315089934035552,14.244397297797645
216.0,28324837853.494045,2103064688.072051,0.4305864340982071,14.234025424327179
217.0,32631470501.26255,2426730273.7366905,0.4297473587158426,14.224854710525493
218.0,37600891523.9671,2800111317.5593877,0.4289933446613467,14.216825931499299
219.0,43336248108.31319,3230510112.2223954,0.4283258257338218,14.209885006302471
220.0,49956022024.0586,3726248986.4394264,0.4277460805266966,14.203983346499292
221.0,57596275961.13757,4296865070.609605,0.4272552217744398,14.199078169442002
222.0,66413376129.60283,4953346078.262102,0.4268541867522141,14.195132772463667
223.0,76587301538.71202,5708406613.334885,0.4265437288748594,14.192116763358529
224.0,88325630945.52351,6576805675.565765,0.42632441056454484,14.190006244861484
225.0,101868299459.30025,7575706582.553592,0.42619659748091326,14.18878395017692
226.0,117493222243.68352,8725081296.477358,0.4261604541937347,14.188439327234343
227.0,135522886945.70866,10048161866.30104,0.4262159413622922,14.188968569991964
228.0,156332024641.7639,11571942276.468779,0.4263628144713417,14.190374595728143
229.0,180356490500.2937,13327734477.525852,0.4266006241552475,14.192666968036088
230.0,208103443764.95145,15351783081.088367,0.42692871811576594,14.195861765973714
231.0,240163002915.99838,17685942207.988632,0.42734624467174165,14.199981399368005
232.0,277221522909.5606,20378424837.00729,0.42785215788280423,14.205054373089201
233.0,320076670924.514,23484650074.14736,0.42844522421246845,14.211115002507421
234.0,369654567817.46967,27068229044.59475,0.42912403067328514,14.218203083163264
235.0,427029374754.2032,31202134335.29532,0.4298869943736393,14.226363518406346
236.0,493445825724.1215,35970096900.10411,0.43073237336663106,14.23564590933631
237.0,570345358063.7545,41468272776.56112,0.4316582786819969,14.246104111954912
238.0,659396437389.9823,47807222271.35854,0.43266268739949454,14.257795766837136
239.0,762529999160.7534,55114239316.47756,0.433743456638709,14.270781806438189
240.0,881980911911.768,63536074397.48151,0.43489833827543484,14.285125946585303
241.0,1020336445122.5474,73242093673.22206,0.4361249942157119,14.300894167983019
242.0,1180592864123.749,84427918521.43332,0.43742101204849543,14.31815419371275
243.0,1366221366910.2107,97319592169.10022,0.4387839208910351,14.336974968685533
244.0,1581244688692.1863,112178322365.46532,0.44021120724001433,14.357426146825066
245.0,1830325933531.0906,129305851527.17107,0.44170033064415065,14.379577591485209
246.0,2118870814764.6472,149050513375.7845,0.4432487390193065,14.403498894092515
247.0,2453145248186.7275,171814030105.60867,0.4448538834382736,14.429258915876236
248.0,2840410098762.7266,198059146797.58984,0.446513232231657,14.456925356859701
249.0,3289074985554.5977,228318232459.29047,0.44822428425897426,14.486564355620521
