Time,J,A,S,tau
0.0,100.0,100.0,0.9470007556509475,10.309278350515463
1.0,114.57558744985607,216.68018609233746,0.9481604694284226,10.801892784226103
2.0,220.75192532159892,320.6664229718203,0.9492877657081522,11.313162863626673
3.0,399.178615257816,412.85836261737467,0.9503792793285448,11.843089496211379
4.0,633.3518237106449,494.09846271805316,0.9514320085413922,12.391677912137336
5.0,909.2788057159898,565.1750628736401,0.9524432772712388,12.958895089052017
6.0,1215.1726570357216,626.827952889293,0.9534107560148352,13.544664872821784
7.0,1541.1774325371607,679.753347321394,0.9543324794190425,14.14886379384105
8.0,1879.121963571479,724.6082234649609,0.9552068596858876,14.771317743156548
9.0,2222.2981766987386,762.0141529677101,0.9560326946730585,15.411799701914045
10.0,2565.264740514725,792.5603721660308,0.9568091703835525,16.070028593588127
11.0,2903.6701019583284,816.8065021100824,0.9575358569836981,16.74566939237449
12.0,3234.0959107460167,835.2846624655086,0.9582126984575213,17.438334471186522
13.0,3553.92092403897,848.5007637473265,0.9588399965762644,18.147586076792308
14.0,3861.1940915182945,856.9362580220477,0.9594183877684443,18.872940103236463
15.0,4154.532708395397,861.0482811029309,0.9599488174166443,19.613870493507743
16.0,4433.023152486796,861.2706946503895,0.9604325068218581,20.36981487092369
17.0,4696.139585504272,858.0143390519194,0.9608709189500617,21.140180492914237
18.0,4943.6725968414585,851.6673318959597,0.9612657224156352,21.924350559350252
19.0,5175.66953774161,842.5946688920931,0.9616187543565341,22.721690730457578
20.0,5392.379080877117,831.1387422812259,0.9619319827608918,23.531555674476635
21.0,5594.206549671804,817.6193640132007,0.9622074707767388,24.35329529299109
22.0,5781.6754131934385,802.3340194631559,0.9624473429327993,25.186260564368688
23.0,5955.395681195385,785.5579577202092,0.9626537540806415,26.029808925762612
24.0,6116.036398762674,767.5447695326257,0.9628288613050223,26.883309017293175
25.0,6264.303637501314,748.526859930372,0.9629747993998445,27.746144811497572
26.0,6400.9223318364175,728.7161362657274,0.963093659935575,28.61771904241824
27.0,6526.621960871479,708.3045933951461,0.963187473580439,29.497456072171946
28.0,6642.124671804587,687.4653566452649,0.9632581962872999,30.38480397106326
29.0,6748.136486735178,666.3535845318122,0.9633076985961734,31.279236051942004
30.0,6845.313996278428,644.9791914072114,0.9633377565801504,32.1802522042912
31.0,6823.351142517979,262.0703348025474,0.9633500490868014,33.087378756554365
32.0,6797.73315811078,110.52960329936235,0.9633461524748017,34.00016921526815
33.0,6773.561463171673,53.93328207522004,0.9633275404150895,34.91820380649472
34.0,6750.729325058451,32.32823710870157,0.9632955844093825,35.84108897415719
35.0,6729.136836094278,23.655059826954044,0.9632515557017114,36.76845662534807
36.0,6708.690661100747,19.794703681115184,0.9631966282346855,37.69996319466991
37.0,6689.30374994453,17.7566108121685,0.9631318824036812,38.63528857414562
38.0,6670.895025642159,16.4369943883496,0.9630583093941427,39.57413494901634
39.0,6653.389057045945,15.426431760893818,0.96297681591771,40.51622557389566
40.0,6636.715722815342,14.571007568892384,0.9628882292049835,41.46130351494294
41.0,6620.809874738866,13.810820568778263,0.9627933020992357,42.40913038865856
42.0,6605.61101459995,13.122349433590026,0.9626927180100463,43.35948515078529
43.0,6591.062946104008,12.493019162669839,0.962587096278756,44.3121627917514
44.0,6577.113480648165,11.916461152080897,0.9624769967602895,45.26697323320662
45.0,6563.71411599184,11.387580325524459,0.9623629248137773,46.22374012360115
46.0,6550.8197589331985,10.902972727243576,0.9622453356335243,47.182299798308996
47.0,6538.388439445988,10.459033762528485,0.9621246386910022,48.14250020829606
48.0,6526.381055825433,10.053156148489235,0.962001201697465,49.10419996499665
49.0,6514.761124507122,9.68240287240029,0.9618753544718726,50.067267403048675
50.0,6503.4945494785925,9.344630477061884,0.9617473924914836,51.031579716748965
51.0,6492.549405319873,9.037415050326365,0.9616175802139597,51.997022147655066
52.0,6481.8957306095745,8.758986487675646,0.9614861542146852,52.963487211565074
53.0,6471.5053402550875,8.507367326572775,0.9613533260214471,53.93087399618171
54.0,6461.351641330044,8.281107500915471,0.9612192848637834,54.89908747263598
55.0,6451.409470096801,8.078624658016638,0.9610842000930178,55.868037885864545
56.0,6441.654927951544,7.898746434525604,0.9609482235845447,56.83764014179329
57.0,6432.065238379744,7.7402419122474155,0.9608114918205499,57.807813272441294
58.0,6422.618600267587,7.6021815613312835,0.9606741279945863,58.77847988828264
59.0,6413.2940601568325,7.483649894381839,0.9605362438332601,59.74956570054071
60.0,6404.071379966602,7.383931930192953,0.9603979414565494,60.720999027419985
61.0,6394.930920182723,7.3023992170055525,0.9602593150109268,61.69271035704278
62.0,6385.853518921832,7.238530768430601,0.9601204523406383,62.66463189580482
63.0,6376.8203820105555,7.191961681659067,0.9599814364999611,63.63669715658691
64.0,6367.812970231594,7.162355830345592,0.9598423472916855,64.60884053712249
65.0,6358.812892591067,7.149591652213455,0.9597032627211973,65.58099691937764
66.0,6349.801798442703,7.153515205059699,0.9595642604599613,66.55310126525869
67.0,6340.76127057681,7.1742370313009225,0.9594254192994622,67.52508821427608
68.0,6331.672718728294,7.211787182395086,0.9592868205997523,68.49689168318028
69.0,6322.517269375877,7.26650564762694,0.9591485497979635,69.4684444499422
70.0,6313.27565693845,7.338613326173816,0.9590106979046542,70.43967774311479
71.0,6303.928107331875,7.428684874503052,0.958873363119778,71.4105208007178
72.0,6294.454222933834,7.53714469847952,0.958736652442886,72.38090043423468
73.0,6284.832857033907,7.664814673978406,0.9586006834486347,73.35074055128352
74.0,6275.041988397661,7.812342010428082,0.9584655860808803,74.31996167816911
75.0,6265.0585837968365,7.980815209631301,0.9583315046394095,75.28848043538599
76.0,6254.858457749376,8.17113114229459,0.9581985998321736,76.25620900163834
77.0,6244.416120373235,8.384670670919803,0.9580670510241057,77.2230545314224
78.0,6233.704617669246,8.622615743049094,0.9579370586252215,78.18891854259897
79.0,6222.695362062337,8.886670909413468,0.9578088466499921,79.15369626577352
80.0,6211.357948515057,9.178348177702377,0.9576826655200983,80.11727593720244
81.0,6199.659965384902,9.499711540957257,0.9575587949772377,81.07953807075381
82.0,6187.566781844823,9.852658515101277,0.9574375473752973,82.0403546386955
83.0,6175.076432673096,10.204849507811264,0.9573183069190486,82.99920119405145
84.0,6165.301561398628,8.6437118071654,0.9571056739160461,83.9168200567
85.0,6154.383272322431,8.77728147455547,0.9568924358410942,84.83051412775038
86.0,6142.188802793142,9.61788297384359,0.9566786697957276,85.73991206392954
87.0,6128.566932476616,10.813857100102465,0.9564644729260787,86.64460959266309
88.0,6113.345501261084,12.249193365640318,0.9562499642615945,87.54416608370498
89.0,6096.328605302731,13.896932019513278,0.9560352866233719,88.43810078905724
90.0,6077.293455908049,15.763812652979933,0.9558206085548724,89.32588875842863
91.0,6055.986835909362,17.87182582041121,0.9556061263030698,90.20695631543367
92.0,6032.121168852986,20.251080308922315,0.9553920657667785,91.08067613615432
93.0,6005.370160750051,22.93745313224713,0.9551786843951128,91.94636185059778
94.0,5975.364005119323,25.97202806458317,0.9549662729862182,92.80326212234213
95.0,5941.684152818971,29.4010831501294,0.9547551573300634,93.65055415137557
96.0,5903.857655656792,33.2763341591246,0.9545456996391551,94.48733651923456
97.0,5861.351143551287,37.65556096873362,0.9543382996879017,95.31262132015918
98.0,5813.564503828874,42.60279789397954,0.9541333955943693,96.12532547205569
99.0,5767.141210220189,75.2392938048309,0.9539314641962201,96.9242610344291
100.0,5726.54387138756,125.67620652773009,0.9537330209055713,97.70812450790736
101.0,5690.248693159723,179.86788988656838,0.9535386191327552,98.47548455850603
102.0,5659.381081842504,238.44869374481218,0.9533488491071693,99.22476831758668
103.0,5635.370680106476,302.1027244156525,0.9531643362583667,99.9542455015684
104.0,5620.01778697415,371.5640816186209,0.9529857392194745,100.66200996580234
105.0,5615.571650112524,447.6153479444934,0.9528137476558305,101.34595805619479
106.0,5624.822510953883,531.0839497237492,0.9526490803005982,102.00376251060891
107.0,5651.208018415481,622.8357964703189,0.9524924836779987,102.63284085553181
108.0,5698.934449283241,723.7657899432729,0.9523447322723045,103.23031651100231
109.0,5773.114867667118,834.7847142533109,0.9522066312455502,103.7929694422427
110.0,5879.92282060564,956.8017532803588,0.9520790231602646,104.31717353742768
111.0,6026.757101163987,1090.7026686981837,0.9519628005575107,104.79881686801555
112.0,6222.422926862548,1237.323230588299,0.9518589274042142,105.23319478388714
113.0,6477.320496429224,1397.4171670560831,0.9517684730921128,105.61486877268251
114.0,6803.631186947807,1571.6197918831342,0.9516926635443139,105.93747844615193
115.0,7215.50658880735,1760.406370228181,0.9516329578150551,106.19347923652349
116.0,7729.242347804155,1964.0450749722927,0.9515911604054735,106.37377824476329
117.0,8363.420051241896,2182.54626873331,0.9515695830870983,106.4672226750737
118.0,9139.021537385615,2415.604154188911,0.9515712838659405,106.45984802703329
119.0,10079.480610564036,2662.5318097476193,0.951600418220668,106.33376392951489
120.0,11210.664134063069,2922.1825725685035,0.9516627676252677,106.06544307246594
121.0,12560.756331406888,3192.8483945892967,0.9517665548338907,105.62300006655772
122.0,14160.018389562838,3472.1146930659943,0.9519237448814176,104.96167729248421
123.0,16040.385782003148,3756.6310387056833,0.9521522130498103,104.01596221560436
124.0,18234.850307626653,4041.7123752712346,0.9524795557304147,102.68494127687634
125.0,20776.543677341342,4320.587923217993,0.9529502388309224,100.80294326350017
126.0,23697.376296167906,4582.874733311995,0.9536401447328597,98.07471971607572
127.0,27264.59006278032,4507.427658250886,0.9546882717786322,93.91811060180925
128.0,31056.1193939922,4185.999187949123,0.9563672889022667,87.05291669702133
129.0,34755.00973082002,3887.0465814252643,0.9591551089457304,74.8170127761047
130.0,38360.1204251828,3609.0271354550455,0.9629507907406922,57.1848610025165
131.0,41870.271528463316,3350.5022901931798,0.9659900954309725,43.669587059658106
132.0,45284.257323351914,3110.1308036653654,0.9678252431172284,35.848740681038954
133.0,48528.48644239662,2987.115676443323,0.9689079700943621,30.979171214262564
134.0,51656.253894104106,3179.230382033248,0.9695330587841582,27.6317630953858
135.0,55039.64939665285,3698.2864328942346,0.9698542267170277,25.161296880367463
136.0,59114.54985316769,4575.938953049777,0.9699566749659257,23.245161465767076
137.0,64419.37969670318,5850.702917335496,0.9698914658705652,21.704372668616145
138.0,71617.5174273836,7562.045005429541,0.9696912566913327,20.431069427868145
139.0,81512.19167485152,9746.682626852547,0.9693780318385645,19.35593156601602
140.0,95055.65526879704,12435.06934033663,0.9689671969752487,18.432103963488043
141.0,113351.61154686142,15646.80593585995,0.9684698936116221,17.62662023925765
142.0,137647.8934860115,19382.91701771672,0.9678943822313308,16.915522743662144
143.0,169327.53541899912,23593.268417318468,0.9672469080885497,16.28093406527149
144.0,209994.00410243732,27474.96349441508,0.9665322647938988,15.709218810356365
145.0,259449.9169588028,30692.421325212494,0.965754173480602,15.189786803203983
146.0,316904.4242444564,33337.68786134332,0.9649155454379856,14.714287191177158
147.0,381605.67341478,35494.17917470912,0.9640186689199425,14.276049499510538
148.0,452736.2113867099,37621.7221754623,0.9630653444006312,13.869687121625423
149.0,530508.2422763391,40711.02055406913,0.962056984694491,13.49081002538272
150.0,617399.2788971437,45891.6932610193,0.9609946912564391,13.13581223878512
151.0,718744.4821653897,54469.71082877554,0.9598793121075209,12.801711390151702
152.0,843470.0543782277,67937.2199073472,0.9587114870840069,12.486026283714965
153.0,1004881.950980558,87949.68030166747,0.9574916836313326,12.18668191155223
154.0,1221421.5082274976,116265.99066275566,0.9562202254226139,11.901934956581282
155.0,1517300.896971796,154566.44595733177,0.9548973156053223,11.630314669210502
156.0,1922602.351552262,202585.16980993852,0.9535230558214617,11.370575490832803
157.0,2466756.096502115,258058.1061701547,0.9520974619815682,11.121658790925506
158.0,3173980.9703707797,318957.1987694978,0.9506204774691406,10.882661714109394
159.0,4063270.0041345875,384243.72793282865,0.9490919842442839,10.652811676255803
160.0,5151595.575049375,456511.4994490683,0.9475118123698919,10.431445351296299
161.0,6465431.729987695,543500.3745016494,0.9458797478712063,10.217991237514898
162.0,8056993.241329966,659049.2149418966,0.9441955397533482,10.01195523426233
163.0,10024381.731081517,824042.7256984435,0.9424589058750236,9.81290858838906
164.0,12535337.876063319,1067033.4144318593,0.940669538016606,9.620477819617163
165.0,15853367.77410627,1423691.3614856505,0.9388271062181635,9.434336276253902
166.0,20360236.747475408,1928338.137400258,0.9369312624700651,9.254197045106116
167.0,26543964.114530306,2603842.359601524,0.9349816438667519,9.079806990027596
168.0,34959906.57088307,3462788.0465186345,0.9329778752477357,8.910941727960408
169.0,46197051.38200076,4518679.207570132,0.9309195714342219,8.747401396215313
170.0,60888667.082185,5810859.710136162,0.92880633907952,8.589007075888023
171.0,79808513.59975088,7435569.164579813,0.9266377781959295,8.435597769814319
172.0,104070287.68379138,9580564.98930685,0.924413483421309,8.287027846156388
173.0,135438558.09819186,12559988.397665381,0.922133045058717,8.143164871417559
174.0,176744106.31935653,16833678.303321008,0.9197960499928443,8.003887773344301
175.0,232316928.46178684,22966369.380661815,0.9174020824822369,7.869085279456271
176.0,308220241.3936088,31553811.7757905,0.9149507249293298,7.738654586195707
177.0,412223137.8339736,43189910.57125481,0.9124415586713874,7.612500223552915
178.0,553695697.2363924,58553773.069631845,0.9098741648884734,7.490533082306253
179.0,743853489.9728032,78657533.0654506,0.9072481256671928,7.372669577594815
180.0,996845552.9602387,105253239.59865418,0.9045630253381675,7.258830927136704
181.0,1332119765.263395,141362530.09831125,0.9018184521241821,7.148942523906992
182.0,1778294546.5082846,191761607.30962095,0.8990140002252036,7.042933389116225
183.0,2378041798.9871387,263100891.19707638,0.896149272384919,6.940735690301754
184.0,3192571667.045801,363650658.93053484,0.8932238830576555,6.842284315118314
185.0,4304653420.454879,503137500.21252507,0.8902374622361557,6.747516489950971
186.0,5820837220.63485,693421599.706457,0.8871896600348912,6.6563714367201205
187.0,7875689371.036296,950677166.4284182,0.8840801521093282,6.568790060680658
188.0,10642352275.62804,1299398184.9181652,0.8809086459697592,6.484714664241765
189.0,14353780443.061872,1777684321.9575672,0.8776748882826655,6.404088682443367
190.0,19336108088.262886,2441920191.307846,0.8743786731790721,6.3268564363607
191.0,26049377336.96362,3369251857.6393604,0.8710198516608944,6.2529629019828485
192.0,35127625057.037544,4658821899.606216,0.8675983420839811,6.182353491975674
193.0,47414963714.42487,6435808521.840902,0.8641141417912956,6.11497384901414
194.0,64006175881.112526,8863814852.832249,0.8605673398338989,6.050769649176086
195.0,86313226574.13213,12169941063.613726,0.8569581308170435,5.989686414694885
196.0,116185109703.00337,16681145116.66053,0.8532868297740499,5.931669335501722
197.0,156097202147.84818,22863110836.01417,0.849553888045415,5.876663099223383
198.0,209398144876.0995,31352828460.56458,0.8457599100435405,5.824611729712879
199.0,280583590663.58777,42987432603.74954,0.8419056707989544,5.7754584341444835
200.0,375577322983.6466,58847849839.914314,0.8379921341569181,5.729145459025086
201.0,502049103576.3423,80345739586.3288,0.8340204714272154,5.685613955602068
202.0,669853902355.9908,109374532549.72237,0.829992080352945,5.644803854986216
203.0,891703750666.6498,148516523710.89246,0.8259086041068953,5.606653753936665
204.0,1184132243783.7764,201272314188.97864,0.8217719501821399,5.5711008114458345
205.0,1568720198726.691,272286326732.86755,0.8175843088085704,5.538080657411771
206.0,2073495168902.326,367590232888.7331,0.8133481707527246,5.507527313410949
207.0,2734469347717.3813,494943271053.23486,0.8090663440996441,5.4793731269081185
208.0,3597445122558.6,664369991491.917,0.8047419698392994,5.453548719006456
209.0,4720365523341.635,888942804073.219,0.8003785358841844,5.429982946775986
210.0,6176528161972.9795,1185764491727.784,0.7959798892782757,5.408602880583608
211.0,8058780642811.879,1577062520495.523,0.7915502463260556,5.38933379681911
212.0,10484638813377.445,2091371653477.4697,0.787094200316966,5.37209918691259
213.0,13602176213014.26,2764934870283.188,0.7826167266603749,5.356820782674547
214.0,17596763048815.27,3643572748385.403,0.778123185177865,5.3434185984534235
215.0,22699126829226.293,4785245256297.43,0.7736193193624399,5.331810990359918
216.0,29195449690560.832,6263357586439.665,0.7691112524410265,5.321914732708614
217.0,37440189531003.91,8170693758244.472,0.7646054801092589,5.313645111829672
218.0,47871924697702.11,10623879498548.09,0.7601088598647545,5.306916037188242
219.0,61032217546939.33,13768511970445.896,0.7556285968868081,5.301640169723211
220.0,77587646660287.7,17785391630285.883,0.7511722264674262,5.297729067214566
221.0,98355688503080.08,22898416851826.824,0.7467475930539609,5.295093346335323
222.0,124335803779485.58,29384531318244.652,0.7423628259558704,5.293642861084253
223.0,156747609204099.47,37585849414858.15,0.7380263119313231,5.2932868969560785
224.0,197077694541142.44,47923916222135.62,0.7337466647047837,5.293934380472401
225.0,247135937977147.34,60916382210219.5,0.729532691764886,5.2954941030252956
226.0,309123459381146.1,77196757097706.36,0.7253933586111057,5.297874958567789
227.0,385712425067948.25,97538401530850.03,0.7213377507298603,5.300986193905578
228.0,480143514707104.9,122883925129145.47,0.7173750336433641,5.304737670856499
229.0,596342126755892.4,154381120814681.97,0.7135144113127521,5.309040138966759
230.0,739061367995640.6,193426132235164.22,0.7097650832543727,5.313805517343547
231.0,914056193644587.0,241715143809338.2,0.706136200694245,5.318947184922454
232.0,1128294060473969.5,301306167462190.06,0.7026368221159007,5.324380276859471
233.0,1390211209901912.0,374693616152830.0,0.6992758685378112,5.3300219860656375
234.0,1710025491447233.0,464898937428244.4,0.6960620788539331,5.335791868027598
235.0,2100116776519154.8,575581314319861.4,0.6930039655443261,5.341612147275398
236.0,2575493080760710.0,711172626172568.9,0.6901097710725311,5.3474080235232755
237.0,3154364340457763.5,877041585507217.1,0.6873874252592361,5.353107975550262
238.0,3858848737158023.0,1079693476919106.0,0.6848445038875647,5.358644060914477
239.0,4715843448071273.0,1327013806065131.8,0.6824881887883709,5.36395220939781
240.0,5758099711545725.0,1628566604042418.2,0.6803252296304273,5.368972508060021
241.0,7025554110672036.0,1995960992063598.2,0.678361907619244,5.373649475762775
242.0,8566978385383958.0,2443302857032518.5,0.6766040012798474,5.377932325061988
243.0,1.0442032840992956e+16,2987751784487169.5,0.6750567545293562,5.381775208984445
244.0,1.2723829869144068e+16,3650208707465568.5,0.6737248471804258,5.38513745067611
245.0,1.550213821278e+16,4456166946152309.5,0.6726123679904963,5.387983754050998
246.0,1.8887386428865064e+16,5436768125195249.0,0.6717227904154065,5.390284393124695
247.0,2.3015717008799096e+16,6630113595094685.0,0.6710589512517269,5.392015377754082
248.0,2.8055328586227096e+16,8082900547665295.0,0.6706230322109485,5.393158594480085
249.0,3.421448859326869e+16,9852465918672140.0,0.6704165446037653,5.393701920390372
250.0,4.175167546957272e+16,1.2009345465305844e+16,0.6704403172499598,5.39363930851344
251.0,5.098844943253391e+16,1.4640485357443722e+16,0.6706944877398727,5.392970843375277
