Time,J,A,S,tau
0.0,100.0,100.0,0.9685055773488649,8.547008547008547
1.0,135.70604149587115,151.91602419414423,0.9686636346867601,8.472286461837664
2.0,214.64447153807077,203.29207404312587,0.9688497346608419,8.384164000861723
3.0,340.47971938956385,254.1124993356071,0.9690637394664979,8.282671320041443
4.0,516.946135900354,304.36559036328987,0.9693055312719986,8.16783268561907
5.0,747.8292800770216,354.0400891965867,0.969574998074585,8.039673164519636
6.0,1036.947526703234,403.12520739749215,0.9698720335490385,7.898218685055904
7.0,1388.1325306968808,451.61064354447046,0.9701965368488245,7.7434961110216785
8.0,1798.1780772690984,507.8668983822677,0.9704889883754371,7.603554046633251
9.0,2262.9271040630338,610.7196056235616,0.9706813558392915,7.510546569799609
10.0,2839.6796354657863,763.1285224554938,0.9708679060443269,7.420084395975613
11.0,3594.672002575919,968.2698983804985,0.9710489072023708,7.3320683752724145
12.0,4605.006572770371,1229.2577687087573,0.9712246113189572,7.246405366171537
13.0,5959.211716363848,1549.1174019950388,0.971395255057915,7.163007863876242
14.0,7757.707510329719,1930.7583167077007,0.9715610605696702,7.081793649078911
15.0,10112.02732264794,2378.2551049290114,0.9717222362857758,7.00268545570476
16.0,13131.540660379222,2929.822201196772,0.9718789776797614,6.92561065696992
17.0,16987.02194997794,3655.9605110116677,0.9720314679946813,6.850500969199174
18.0,21968.444803997583,4637.022528411887,0.9721798789356706,6.777292173465244
19.0,28513.29813406261,5964.549835532286,0.9723243713323443,6.705923852865153
20.0,37239.09555436355,7741.457765916238,0.9724650957678767,6.636339146115204
21.0,48978.15395429871,10082.05095226728,0.9726021931779203,6.568484515941726
22.0,64811.47692730197,13115.629427347458,0.9727357954194329,6.502309531851177
23.0,86094.8103822998,17039.785620484043,0.9728660258102921,6.437766666602009
24.0,114600.36841612605,22187.70939452078,0.9729929996407621,6.374811105662298
25.0,152797.04463395855,29061.37034955207,0.97311682465772,6.3134005690171335
26.0,204219.35092149006,38366.05394042608,0.9732376015229538,6.253495144575652
27.0,273934.4323919153,51046.283298055976,0.973355424246421,6.195057132589758
28.0,369114.34264830523,68322.71614961118,0.9734703805954105,6.138050900505625
29.0,499704.8393515885,91763.20803716875,0.973582552480757,6.082442747616901
30.0,679263.8875472115,123505.06699840982,0.9736920163211206,6.028200778958426
31.0,926329.7338208788,166616.25832655196,0.9737988433866586,5.975294787791009
32.0,1266644.906997365,225559.1892025224,0.9739031001229148,5.92369614621586
33.0,1736519.5959099827,306763.1208675382,0.9740048484560149,5.873377703387727
34.0,2387642.950349293,419308.4799036477,0.9741041460802322,5.82431369082107
35.0,3293647.3084120047,575762.1673589591,0.9742010467289804,5.776479634304815
36.0,4558808.04956094,793444.6067358823,0.9742956004303872,5.729852271919695
37.0,6330010.01933297,1096560.985951742,0.9743878537482681,5.6844094777820375
38.0,8814167.318172298,1519531.6548633813,0.9744778500095421,5.640130191075268
39.0,12304169.416879434,2111848.3674583794,0.9745656295190234,5.596994349979291
40.0,17217320.85427118,2944788.8776606466,0.9746512297625844,5.554982830098665
41.0,24151118.38738282,4120416.814057688,0.974734685599549,5.514077387044092
42.0,33962341.06237748,5783988.383883146,0.9748160294453005,5.474260602783729
43.0,47878392.928086706,8142138.523498424,0.9748952914444511,5.435515835616545
44.0,67656140.65119734,11490255.772567559,0.9749724996358866,5.397827173279398
45.0,95812358.7656288,16253436.459097724,0.9750476801100725,5.361179389029383
46.0,135961372.4732634,23046337.54792616,0.9751208571593426,5.325557900427012
47.0,193309297.68630213,32758597.074955,0.9751920534217053,5.2909487306081076
48.0,275371520.76096463,46676136.330178574,0.9752612900186753,5.257338471842119
49.0,393007288.1267923,66655963.82483237,0.9753285866875407,5.224714251202047
50.0,561911839.2139537,95382473.62446734,0.9753939619083982,5.193063698196151
51.0,804780224.8509812,136746234.08106428,0.9754574330262029,5.162374914231107
52.0,1154463990.847822,196401703.79039654,0.9755190163679951,5.132636443800515
53.0,1658588351.3973293,282580721.4990063,0.9755787273553536,5.1038372473220965
54.0,2386296036.1970773,407272505.87792164,0.9756365806120636,5.07596667556104
55.0,3438071586.834775,587938777.0910128,0.9756925900668855,5.049014445600162
56.0,4960039484.193929,850022387.5430659,0.9757467690512328,5.022970618337777
57.0,7164803795.009592,1230635224.0638535,0.9757991303914966,4.997825577509429
58.0,10361897160.685694,1783983027.8865256,0.9758496864956782,4.9735700102453535
59.0,15002348662.230532,2589323686.0143905,0.975898449433936,4.950194889193214
60.0,21743930949.06088,3762612656.3081293,0.9759454310126144,4.927691456240984
61.0,31546618440.12054,5473542372.562303,0.9759906428412912,4.90605120788339
62.0,45812190986.98157,7970524530.399693,0.9760340963923705,4.885265882279838
63.0,66588499576.166985,11617395637.661327,0.9760758030527504,4.865327448051005
64.0,96868628393.76414,16947382750.713032,0.9761157741671275,4.846228094857172
65.0,141029422151.89612,24742390660.48562,0.9761540210725346,4.827960225798366
66.0,205474510834.33646,36149381948.377914,0.9761905551237865,4.810516451662462
67.0,299577129929.59906,52851170198.39061,0.9762253877095847,4.793889587034174
68.0,437062441899.7763,77317224628.42197,0.9762585302591386,4.778072648261248
69.0,638034763280.9729,113172231172.79617,0.9762899942392753,4.763058853253636
70.0,931951656640.1232,165737824247.78308,0.9763197911421525,4.748841623067262
71.0,1361988878994.8916,242828659570.4555,0.9763479324638263,4.735414585203996
72.0,1991447867576.392,355921776185.8621,0.9763744296740797,4.722771578531125
73.0,2913161894451.7505,521874008320.85455,0.9763992941780764,4.710906659698189
74.0,4263304637466.9585,765444620493.534,0.9764225372705531,4.699814110904261
75.0,6241664513880.773,1123001113238.185,0.9764441700834194,4.689488448843286
76.0,9141415306896.234,1647962840751.6877,0.9764642035277749,4.679924434630464
77.0,13392837493596.863,2418795718204.8228,0.9764826482314753,4.671117084497537
78.0,19627530963676.4,3550750246575.1997,0.9764995144734897,4.66306168102467
79.0,28772721496569.05,5213091907628.459,0.9765148121163703,4.655753784664398
80.0,42189760616350.04,7654390992949.946,0.97652855053822,4.649189245305913
81.0,61877531057900.76,11239635145887.5,0.9765407385655718,4.643364213622827
82.0,90771150274500.98,16504678774356.002,0.9765513844085959,4.638275151948444
83.0,133180604273383.4,24236105623374.32,0.9765604956000099,4.6339188444355015
84.0,195434796591106.3,35588326709396.72,0.9765680789390075,4.630292406265997
85.0,286827069279050.94,52255219174646.69,0.9765741404414219,4.627393291695774
86.0,421003077727609.06,76721637066830.11,0.9765786852972164,4.625219300742973
87.0,617997643736661.4,112631825634942.34,0.9765817178362444,4.6237685843541225
88.0,907223219682711.0,165328863097290.97,0.9765832415030485,4.623039647913523
89.0,1331853495960195.2,242644195451516.38,0.9765832588412576,4.623031353001269
90.0,1955251473503343.5,356052671195084.6,0.9765817714879451,4.623742917337433
91.0,2870392151847411.0,522361460068870.06,0.9765787801780939,4.625173912889369
92.0,4213669545718266.0,766178448146000.5,0.9765742847590841,4.62732426215908
93.0,6185119809690532.0,1123517776090665.2,0.9765682842149179,4.6301942327025225
94.0,9078026017163548.0,1647063262007797.2,0.9765607766996742,4.633784429970771
95.0,1.3322234417020148e+16,2413847265787172.0,0.9765517595794884,4.6380957886013805
96.0,1.954749467291944e+16,3536445861842256.0,0.976541229482181,4.64312956231475
97.0,2.8676019521220956e+16,5179288861908152.0,0.976529182353505,4.648887312598751
98.0,4.205764728335353e+16,7582404288452770.0,0.9765156135188512,4.655370896388328
99.0,6.166706805871375e+16,1.1095956964042648e+16,0.9765005177491585,4.662582452961938
100.0,9.039135281265987e+16,1.6230444879039588e+16,0.9764838893297049,4.670524390290243
101.0,1.3244875682670464e+17,2.3729585547065256e+16,0.9764657221304112,4.679199371082523
102.0,1.9399812385862112e+17,3.4676045229657756e+16,0.9764460096762981,4.688610298774024
103.0,2.8402468015627645e+17,5.0644652103050936e+16,0.9764247452167558,4.698760303694824
104.0,4.156261008636975e+17,7.392418323524131e+16,0.976401921792343,4.709652729652794
105.0,6.078774588801074e+17,1.0783803264878365e+17,0.9763775322979102,4.721291121148661
106.0,8.885318914220116e+17,1.5720727751417914e+17,0.9763515695409498,4.733679211424483
107.0,1.2979260280162575e+18,2.2901851331648634e+17,0.976324026294189,4.74682091152935
108.0,1.8946190308860178e+18,3.333856790374124e+17,0.9762948953415852,4.7607203005603065
109.0,2.763521588413407e+18,4.849332836086601e+17,0.976264169517025,4.775381617212693
110.0,4.0275942936716585e+18,7.047826796906202e+17,0.9762318417351863,4.7908092527489385
111.0,5.864652276393968e+18,1.023399564462881e+18,0.9761979050141623,4.807007745467798
112.0,8.531456820014724e+18,1.484669211641541e+18,0.9761623524896141,4.823981776730057
113.0,1.239818365595436e+19,2.151718368346029e+18,0.9761251774203503,4.841736168574712
114.0,1.7997629726124753e+19,3.1152167190432307e+18,0.9760863731853705,4.860275882934212
115.0,2.6095298480538354e+19,4.505190540162877e+18,0.9760459332725294,4.87960602243716
116.0,3.778898146876534e+19,6.507800044169964e+18,0.9760038512590873,4.899731832769115
117.0,5.464989014643317e+19,9.389112845791783e+18,0.975960120784495,4.920658706545232
118.0,7.892212467820241e+19,1.3528714104564638e+19,0.9759147355158483,4.942392188636215
119.0,1.1380380071613486e+20,1.9467109683079004e+19,0.9758676891064867,4.964937982881943
120.0,1.6384207845216197e+20,2.797241436642845e+19,0.975818975148256,4.988301960118893
121.0,2.3548650046235722e+20,4.013392478445997e+19,0.97576858711797,5.0124901674451126
122.0,3.3786154645750894e+20,5.749305866104488e+19,0.9757165183186095,5.0375088386474145
123.0,4.8384155084314824e+20,8.222604660788535e+19,0.9756627618157858,5.063364405715343
124.0,6.915408472097172e+20,1.1739807200075946e+20,0.9756073103699731,5.09006351137405
125.0,9.863717960034434e+20,1.673156981384076e+20,0.9755501563649678,5.11761302257665
126.0,1.4038758688320158e+21,2.3801400067452433e+20,0.975491291732995,5.146020044904121
127.0,1.9936020767766088e+21,3.379276134520066e+20,0.9754307078768226,5.175291937832609
128.0,2.824397408523004e+21,4.788118885628061e+20,0.9753683955891816,5.2054363308411205
129.0,3.9915909556518755e+21,6.770026769558393e+20,0.9753043449697396,5.236461140340944
130.0,5.626703258597628e+21,9.551326666175236e+20,0.9752385453398004,5.268374587427032
131.0,7.91050468799607e+21,1.3444604644779025e+21,0.9751709851548308,5.301185216464349
132.0,1.1090488300249473e+22,1.888018142330926e+21,0.9751016519148684,5.334901914534276
133.0,1.5504125066920797e+22,2.6448467023054604e+21,0.975030532072787,5.3695339317806745
134.0,2.1609644303456756e+22,3.695670397623706e+21,0.9749576109403473,5.405090902709326
135.0,3.0026539602688856e+22,5.150463224416554e+21,0.974882872591926,5.441582868499331
136.0,4.158854968629655e+22,7.158490702706334e+21,0.9748062997657411,5.47902030040607
137.0,5.7412524626403685e+22,9.921570785452213e+21,0.974727873762366,5.5174141243415455
138.0,7.8987355061589e+22,1.3711496121824531e+22,0.9746475743402934,5.556775746726133
139.0,1.0828802685349498e+23,1.8892802325803954e+22,0.9745653796082767,5.5971170817150515
140.0,1.4792086516671835e+23,2.595236009461391e+22,0.9744812659141622,5.638450579910949
141.0,2.0130713071091152e+23,3.5537613510574023e+22,0.9743952077299405,5.680789258666783
142.0,2.7291329207116764e+23,4.850570646617075e+22,0.9743071775326604,5.724146734115808
143.0,3.685373577027158e+23,6.598619633793708e+22,0.9742171456810016,5.76853725501968
144.0,4.956623841787714e+23,8.9460650249807e+22,0.9741250802869753,5.813975738626698
145.0,6.638881569662151e+23,1.2086290649534257e+23,0.974030947082952,5.8604778085211136
146.0,8.854544546468608e+23,1.627046808281156e+23,0.9739347092830222,5.908059834802366
147.0,1.1758679126789597e+24,2.182315565875762e+23,0.9738363274393871,5.956738976433493
148.0,1.5546458948116704e+24,2.9161563487122944e+23,0.9737357592925011,6.006533226195938
149.0,2.046189157359508e+24,3.881912897677152e+23,0.9736329596158297,6.057461458045492
150.0,2.6807929651494934e+24,5.1474160413057845e+23,0.973527880054463,6.1095434771625055
151.0,3.4958040746197807e+24,6.798434003155821e+23,0.9734204689577597,6.162800072709424
152.0,4.5369246842696173e+24,8.942794861874438e+23,0.9733106712057116,6.217253073465807
153.0,5.859661149610044e+24,1.1715263358910427e+24,0.9731984280295792,6.272925406243845
154.0,7.530904181247484e+24,1.528325843777863e+24,0.973083676826524,6.32984115725322
155.0,9.63061954543828e+24,1.985348790768037e+24,0.9729663509685662,6.38802563639827
156.0,1.2253613270778737e+25,2.567956939308099e+24,0.9728463796058163,6.447505444619875
157.0,1.5511327424179033e+25,3.307067241283325e+24,0.9727236874652667,6.508308543965456
158.0,1.9533606278892242e+25,4.240122265758787e+24,0.9725981946439348,6.570464330864494
159.0,2.447034871628056e+25,5.412162460435317e+24,0.9724698163990727,6.634003711864935
160.0,3.049295835340866e+25,6.876998077065007e+24,0.9723384629335153,6.698959182538493
161.0,3.779549611657948e+25,8.698463268804754e+24,0.9722040391803785,6.765364908297278
162.0,4.659539202131285e+25,1.0951743948626978e+25,0.9720664445832092,6.833256808518073
163.0,5.7133611318854695e+25,1.3724744278980441e+25,0.9719255728778279,6.902672642036839
164.0,6.967414655454032e+25,1.7119464996059e+25,0.9717813118738712,6.9736520947546135
165.0,8.45026729891418e+25,2.12533555448244e+25,0.971633543236768,7.046236869273365
166.0,1.0192431556607274e+26,2.626058092893109e+25,0.9714821422750781,7.120470774965143
167.0,1.2226035285258419e+26,3.2293160615109975e+25,0.9713269777304225,7.196399819569197
168.0,1.4584385215853344e+26,3.952190217722722e+25,0.971167911576018,7.274072300343834
169.0,1.7301419266381428e+26,4.8137067133021394e+25,0.9710047988236075,7.353538894924115
170.0,2.0411036429816397e+26,5.834871171195533e+25,0.9708374873372836,7.43485275262891
171.0,2.394634426588779e+26,7.038658853363873e+25,0.9706658176679642,7.518069581245948
172.0,2.7938779917797646e+26,8.449959815090598e+25,0.9704896228942796,7.6032477347834035
173.0,3.2417197370202595e+26,1.0095465893473684e+26,0.9703087284928558,7.690448293555956
174.0,3.74068596531697e+26,1.2003501813004083e+26,0.9701229522156729,7.779735145288271
175.0,4.292844216706035e+26,1.4203788692635787e+26,0.96993210400405,7.871175056085731
176.0,4.899703037080563e+26,1.6727143334616584e+26,0.9697359859251476,7.964837736700025
177.0,5.562117254936138e+26,1.9605110536904897e+26,0.9695343921367208,8.060795901907188
178.0,6.280201558243569e+26,2.2869531846364565e+26,0.9693271088902997,8.159125319253302
179.0,7.053257035134793e+26,2.6552054510046417e+26,0.9691139145689789,8.259904848493932
180.0,7.879712663411632e+26,3.0683592461106606e+26,0.968894579772441,8.363216466890735
181.0,8.757085740395992e+26,3.5293736489536216e+26,0.9686688674195496,8.46914529235269
182.0,9.681972557222849e+26,4.041015410256052e+26,0.9684365329685922,8.577779562614174
183.0,1.0650045598637005e+27,4.605794859378049e+26,0.9681973245813885,8.689210644343362
184.0,1.1656091584586192e+27,5.225905166527017e+26,0.9679509834465583,8.803532979952603
185.0,1.269407363836585e+27,5.9031621385005634e+26,0.9676972441208167,8.920844030613502
186.0,1.3757206059519375e+27,6.638946087916227e+26,0.9674358348972033,9.04124421646578
187.0,1.4838061014851873e+27,7.434152768917292e+26,0.9671664782946441,9.164836807482263
188.0,1.5928693457127246e+27,8.289150718735228e+26,0.966888891596773,9.291727797210783
189.0,1.7020780023590062e+27,9.203746089036969e+26,0.9666027874499893,9.422025756136371
190.0,1.8105766659342913e+27,1.0177156589935893e+27,0.9663078745204642,9.555841667277031
191.0,1.9175027531232427e+27,1.1208000669264142e+27,0.9660038582596424,9.693288711556049
192.0,2.0220023201784801e+27,1.2294295156326598e+27,0.9656904417137889,9.834482040953954
193.0,2.1232455945156282e+27,1.3433466310190852e+27,0.965367326418341,9.979538513380108
194.0,2.220441819893398e+27,1.4622370879085486e+27,0.9650342133640769,10.128576400327534
195.0,2.312852688929698e+27,1.5857329960628571e+27,0.9646908040103463,10.281715075382483
196.0,2.3998044601340768e+27,1.7134173452580194e+27,0.964336801407341,10.439074648546077
197.0,2.480697876240162e+27,1.8448293763694496e+27,0.9639719113318618,10.600775595260258
198.0,2.5550162987237396e+27,1.9794706587305826e+27,0.9635958435249483,10.766938336961532
199.0,2.6223314858122356e+27,2.1168118437925897e+27,0.9632083129579606,10.937682804735216
200.0,2.6823071563939173e+27,2.2562998509871078e+27,0.962809041151281,11.113127973416445
201.0,2.734700300048107e+27,2.397365311891525e+27,0.9623977575286781,11.293391371329284
202.0,2.779360595580408e+27,2.539430093189662e+27,0.9619742008316544,11.478588559933582
203.0,2.816227525980107e+27,2.681914693758452e+27,0.9615381204779935,11.668832618774303
204.0,2.8453261451661196e+27,2.824245391109653e+27,0.9610892780273594,11.86423357927934
205.0,2.866761231738723e+27,2.965860972774208e+27,0.9606274485944246,12.064897865891535
206.0,2.880710133195173e+27,3.1062189004661625e+27,0.9601524222622108,12.270927716999342
207.0,2.887415463389109e+27,3.244800887641834e+27,0.9596640054689182,12.482420628412054
208.0,2.8871759845884563e+27,3.381117702038548e+27,0.9591620223988547,12.69946873639081
209.0,2.8803384202925995e+27,3.514713512580687e+27,0.9586463164265407,12.922158215353921
210.0,2.867287831485051e+27,3.6451686101244484e+27,0.9581167511275128,13.150568773054882
211.0,2.8484394126757064e+27,3.772101943439161e+27,0.9575732115124808,13.384773087490688
212.0,2.824230310460896e+27,3.8951730894091633e+27,0.95701560526132,13.62483623243209
213.0,2.7951114984840477e+27,4.0140834768672017e+27,0.9564438639859552,13.870815055545608
214.0,2.76154036605958e+27,4.1285761339619904e+27,0.9558579439228075,14.122757757755954
215.0,2.7239743590445793e+27,4.2384352445215915e+27,0.9552578267126473,14.38070344547215
216.0,2.682865313107801e+27,4.343485256571678e+27,0.9546435201282863,14.644681691114915
217.0,2.638654316282874e+27,4.443589798361532e+27,0.9540150588773232,14.914712058746684
218.0,2.591767316521498e+27,4.538649943620728e+27,0.9533725053042241,15.190803635434676
219.0,2.542611874998931e+27,4.628601632986071e+27,0.9527159494766638,15.472954805732442
220.0,2.4915745495315983e+27,4.7134132987627965e+27,0.9520455094085716,15.761152975479483
221.0,2.4390188890664292e+27,4.793083366097134e+27,0.9513613312171264,16.055374314751106
222.0,2.3852837433127827e+27,4.867637811781972e+27,0.9506635893709192,16.355583454633248
223.0,2.3306824192014872e+27,4.9371273902804716e+27,0.9499524867470865,16.66173324121757
224.0,2.275502650622715e+27,5.001624603368583e+27,0.9492282541061037,16.973764742036675
225.0,2.220006534564781e+27,5.061221159440434e+27,0.9484911499604948,17.29160708565433
226.0,2.1644312805069476e+27,5.116025171581859e+27,0.947741459665244,17.61517764690153
227.0,2.1089890490099057e+27,5.16615917678234e+27,0.9469794960308816,17.944381537833387
228.0,2.0538683781527757e+27,5.211757416964408e+27,0.9462055985135952,18.279111722250896
229.0,1.9992363246909314e+27,5.252963312123878e+27,0.9454201313129508,18.619249677711785
230.0,1.9452383038208434e+27,5.28992795132879e+27,0.9446234839757418,18.964664876347392
231.0,1.8919992941665064e+27,5.322808123031044e+27,0.9438160716388755,19.315214395617673
232.0,1.8396276785769924e+27,5.351764208225198e+27,0.9429983311033047,19.67074463438279
233.0,1.7882131554802006e+27,5.37695909360978e+27,0.9421707234751752,20.031089691860892
234.0,1.7378310793272258e+27,5.398556600363099e+27,0.9413337320593907,20.396072279670754
235.0,1.688542689325845e+27,5.416720328896548e+27,0.9404878597449345,20.76550472731673
236.0,1.6403957968302358e+27,5.431612488855412e+27,0.9396336334112775,21.139186548874743
