Time,J,A,S,tau
0.0,100.0,100.0,0.9639140432183335,10.0
1.0,169.58638622196443,139.69189063506596,0.9619044108475566,9.776025054716746
2.0,266.40597692950973,178.0034426264975,0.960122056789869,9.57030084287818
3.0,384.922703150081,214.9902664993596,0.958554347739625,9.382773943731722
4.0,520.1870326596476,250.70599913447927,0.9571890476089363,9.213389981151076
5.0,667.8036534716451,285.20074536079187,0.9560144067135687,9.06210955115267
6.0,823.9009699109489,318.5211375314269,0.9550191248155913,8.928911584315731
7.0,985.0993956291703,350.71037267042425,0.954192313962099,8.813797143617215
8.0,1148.4791739362743,381.8082223093138,0.9535234611736215,8.716793729011654
9.0,1296.627493363801,428.0730383773803,0.9536121135535939,8.705829516083407
10.0,1416.0185465135244,519.256824400579,0.9549149241338141,8.836368722984465
11.0,1541.6438741941615,627.3629873038514,0.956175146058822,8.970758496625335
12.0,1676.7968053301267,748.6282184121438,0.957392330408617,9.109347827410815
13.0,1822.264956903377,879.6803264344375,0.9585659397511568,9.252545404526442
14.0,1977.1210982077143,1017.5158293147534,0.9596953346665001,9.400829104674292
15.0,2139.3531327693618,1159.477090508458,0.9607797606280902,9.554756458010543
16.0,2306.3521711437074,1303.2296803693541,0.9618183355495774,9.7149760985005
17.0,2475.2808128075912,1446.7400147544033,0.9628100387326034,9.882240037550856
18.0,2643.340408770482,1588.2532245745622,0.9637537021864014,10.057416349475895
19.0,2807.8585191583684,1726.3692917127262,0.9646480054624772,10.241502009383558
20.0,2957.837766315104,1869.1724340277233,0.9654914750274485,10.435634826948657
21.0,3086.1777736406884,2022.9092514791998,0.9662824898713781,10.641103996938138
22.0,3192.829969419351,2187.0759310049784,0.9670192968487907,10.859359068022986
23.0,3278.754616800777,2360.017842293072,0.9677000343176929,11.092010871981232
24.0,3345.5192965203114,2539.323453842744,0.9683227689068313,11.340831489984337
25.0,3395.0263487398583,2722.164707127162,0.9688855468906314,11.60774195694189
26.0,3429.344287843085,2905.557507665828,0.9693864587808939,11.894792045816223
27.0,3450.594727445975,3086.56645298146,0.9698237217206047,12.204128087370751
28.0,3460.8736808777376,3262.4564152169114,0.970195772548154,12.537947035697359
29.0,3462.1937048278223,3430.8013502067215,0.9705013724513717,12.898438435197354
30.0,3456.4388687563023,3589.5556838373277,0.9707397190067668,13.287713813847775
31.0,3445.330477432603,3737.091493594136,0.9709105521972193,13.707727992383582
32.0,3430.401631873602,3872.210262951269,0.9710142487054365,14.160196755294042
33.0,3412.979714118742,3994.134186576408,0.9710519007328917,14.646515142023357
34.0,3394.1805002312503,4102.4763738454,0.9710253585125677,15.167686607819189
35.0,3374.8791367319586,4197.230448577221,0.9709372356362477,15.724270375932539
36.0,3355.6358886304683,4278.806983977431,0.9707908783904295,16.31634608885712
37.0,3336.8707409033464,4347.819852331468,0.970590284986671,16.943513808262853
38.0,3318.919341529563,4404.994490393453,0.9703400047217805,17.604910976044277
39.0,3302.0293584372102,4451.1417938218665,0.9700449970951891,18.299254813760914
40.0,3286.3645830791775,4487.130321847889,0.9697104758263817,19.02491407022862
41.0,3272.0128024629125,4513.86121863662,0.9693417610151773,19.779984170304505
42.0,3258.996989034771,4532.244395024247,0.9689441380349464,20.562366765908624
43.0,3247.288686930581,4543.175610690788,0.9685227248365607,21.369850519609052
44.0,3236.822761823412,4547.517685179354,0.9680823661787062,22.200187187718594
45.0,3227.5098126951866,4546.0868329993045,0.9676275602393162,23.051154315661762
46.0,3219.246411484007,4539.642920582086,0.9671624079685656,23.920604257910377
47.0,3211.9234629605353,4528.8829106129215,0.9666905817204724,24.806502529447084
48.0,3205.432724470535,4514.437117503009,0.966215310647192,25.70695602987119
49.0,3199.6711253661097,4496.8702236597355,0.9657393955692305,26.62022581062143
50.0,3194.5433045801183,4476.683576484775,0.9652652304525404,27.544732470999634
51.0,3189.9630456124473,4454.318625933721,0.9647948300093669,28.47905544622688
52.0,3185.853953646311,4430.160363852087,0.9643298567024492,29.421930469296115
53.0,3182.1495987323283,4404.541526133788,0.9638716524394366,30.372242801689676
54.0,3178.7920963634315,4377.7516866059905,0.9634212984897271,31.32900444703238
55.0,3175.7321142094506,4350.038325825183,0.9629796261302203,32.29135380977276
56.0,3172.9281324714493,4321.611060519037,0.9625472474799359,33.25854543964589
57.0,3170.3442226571187,4292.652277489654,0.9621246197547534,34.22991863444714
58.0,3167.951221628473,4263.311118815031,0.9617120170288542,35.20491806223009
59.0,3165.723702152829,4233.718058398818,0.9613096137224161,36.183048282278975
60.0,3160.0917205407545,1979.4762743702327,0.9609174657777505,37.16388800015733
61.0,3153.981630372874,731.1603545824571,0.9605355436918379,38.14707288759129
62.0,3148.497384893204,271.57691128391235,0.9601637468060422,39.13228889370901
63.0,3143.5586717753436,102.19638708051659,0.9598019171102019,40.119265419149784
64.0,3139.0962484519087,39.615697370383195,0.9594498509867087,41.10776933771764
65.0,3135.050376671313,16.35969859080406,0.959107309142046,42.097599787122086
66.0,3131.3694732319386,7.600998334765271,0.9587740249558144,43.08858364995126
67.0,3128.008949978306,4.201970786981482,0.9584497114589935,44.08057164724238
68.0,3124.9302184565695,2.797451189062523,0.9581340671326565,45.07343497104876
69.0,3122.099837096287,2.146338234869796,0.9578267806973543,46.06706238795096
70.0,3119.48878127042,1.7893736005391376,0.9575275350429368,47.061357751807066
71.0,3117.0718189985023,1.555303172299096,0.9572360104294496,48.05623787070539
72.0,3114.8269770724046,1.3791467492686729,0.9569518870721666,49.05163067881153
73.0,3112.735084863163,1.2352999746678681,0.9566748472082787,50.047473671434766
74.0,3110.7793842373085,1.1129059796512508,0.9564045767289614,51.043712565038675
75.0,3108.945196197835,1.006725480733767,0.956140766448017,52.04030015095197
76.0,3107.219634022391,0.9137129345450418,0.9558831130615729,53.03719530835452
77.0,3105.591361301909,0.831884138731532,0.9556313198701306,54.03436217137103
78.0,3104.050380093757,0.7596704303630345,0.9553850972711895,55.03176940000191
79.0,3102.5878522123166,0.6958048830012822,0.9551441630924382,56.02938956517921
80.0,3101.1959451022185,0.6392308098065044,0.9549082427807554,57.02719861876201
81.0,3099.867699485602,0.58904972002324,0.9546770694770486,58.025175438810756
82.0,3098.596914921317,0.544479611763094,0.9544503839907774,59.02330143693958
83.0,3097.3780514637774,0.5048456276508959,0.9542279346997156,60.02156022142531
84.0,3096.20614485221,0.46956409738168897,0.9540094773887933,61.01993730721257
85.0,3095.076733183833,0.43813027669601545,0.95379477503986,62.01841986574578
86.0,3093.985793495767,0.4101098770523616,0.9535835975844273,63.016996509151376
87.0,3092.929686507223,0.3851204184229184,0.9533757216219535,64.01565710277276
88.0,3091.9051086083496,0.36282885300660184,0.9531709301146674,65.01439260284012
89.0,3090.9090501090895,0.34294569604532665,0.9529690120662375,66.0131949158264
90.0,3089.93875875683,0.32521928637240616,0.9527697621873386,67.0120567760637
91.0,3088.99170781548,0.3094330830603591,0.9525729805530778,68.01097163914541
92.0,3088.065567954124,0.29539670206716345,0.9523784722526111,69.00993358852857
93.0,3087.1581823990214,0.28294314568474327,0.9521860470328399,70.00893725344257
94.0,3086.2675450583642,0.27192652568488795,0.9519955189433513,71.00797773703027
95.0,3085.3917809511177,0.26222479550656247,0.9518067059767111,72.00705055248245
96.0,3084.529129022398,0.2537322209539795,0.9516194297192404,73.00615156728584
97.0,3083.677926272271,0.2463526513483125,0.9514335149884244,74.00527695214198
98.0,3082.8365936464666,0.240006287696102,0.9512487894797808,75.00442313585958
99.0,3082.0036233158066,0.2346290642466907,0.951065083420865,76.00358676494987
100.0,3081.1775667285215,0.23016253029108885,0.9508822292174909,77.00276466596381
101.0,3080.3570236490586,0.22655937851728986,0.9507000611059957,78.00195381115624
102.0,3079.540631994958,0.22378570810720402,0.9505184148116709,79.00115128681428
103.0,3078.727058072664,0.22181189423477946,0.9503371272035138,80.00035426298132
104.0,3077.9149872621824,0.22061640698443805,0.9501560359521708,80.99955996467148
105.0,3077.1031150188746,0.2201897826812733,0.949974979191353,81.99876564409878
106.0,3076.290137946112,0.22052701221098342,0.9497937951775013,82.9979685531291
107.0,3075.4747449306774,0.22162953670737928,0.9496123219517831,83.997165915882
108.0,3074.655608158536,0.22351039566761305,0.9494303970022872,84.9963549008482
109.0,3073.83137383224,0.22618864694549864,0.9492478569239869,85.99553259192749
110.0,3073.000652633801,0.22968923982194797,0.9490645370825147,86.99469595848001
111.0,3072.162009618694,0.23404902235783562,0.9488802712753127,87.99384182333344
112.0,3071.3139533254484,0.23931417392872897,0.9486948913880499,88.99296682800619
113.0,3070.454924296257,0.24553710689947825,0.9485082270583721,89.992067395711
114.0,3069.5832825049106,0.252783426381031,0.9483201053356659,90.99113969046086
115.0,3068.697293322976,0.26113345768145224,0.9481303503328677,91.9901795710021
116.0,3067.7951124210745,0.2706752881127806,0.9479387828900812,92.98918254076628
117.0,3066.8747689110446,0.2815130446266502,0.9477452202357954,93.9881436915135
118.0,3065.9341460202886,0.2937745970011232,0.9475494756371274,94.98705763822302
119.0,3064.9709600862893,0.3075979840310012,0.9473513580707624,95.98591844767563
120.0,3063.9827364284024,0.3231425344716945,0.9471506718869684,96.98471955587165
121.0,3062.966782026005,0.340595601195283,0.9469472164801669,97.98345367385814
122.0,3061.920154553847,0.3601714927563224,0.9467407859700112,98.98211268028861
123.0,3060.8396270323638,0.3821159281096335,0.9465311688930553,99.98068749803129
124.0,3059.721647400079,0.4067108849565204,0.9463181479095915,100.97916795225623
125.0,3058.562292163352,0.4342801318726199,0.9461014995303327,101.9775426068772
126.0,3057.357213135451,0.46519564203882136,0.9458809938686542,102.97579857568601
127.0,3056.101576102283,0.49988544044033384,0.9456563944252666,103.9739213038611
128.0,3054.7899899221593,0.538852071446434,0.9454274579123586,104.97189431432781
129.0,3053.4164252176183,0.5826472302836767,0.9451939341351016,105.96969891562038
130.0,3051.9741191564062,0.6319278627001225,0.9449555659254135,106.96731385860474
131.0,3050.4554660357726,0.6874509226314829,0.9447120891626936,107.96471494042774
132.0,3048.8518899783385,0.7500906984099381,0.9444632328863283,108.96187454214797
133.0,3047.1536969335016,0.8208524957954841,0.9442087195234931,109.95876108937749
134.0,3045.3499020991057,0.9009008172605485,0.9439482652561803,110.95533842128434
135.0,3043.4280295312037,0.9915901544320573,0.9436815805607991,111.95156505543218
136.0,3041.373878523258,1.0944927461990124,0.9434083709506992,112.94739332792624
137.0,3039.1712510026855,1.2114331280007806,0.9431283379625778,113.94276838679833
138.0,3036.8016329447028,1.3445189258899166,0.942841180435169,114.93762701167901
139.0,3034.243821710425,1.4962288877669503,0.9425465961386402,115.93189622838561
140.0,3031.4734943262974,1.6694243797413777,0.9422442838167014,116.92549169782386
141.0,3028.4626985570726,1.8674226310794702,0.9419339457207966,117.91831580995697
142.0,3025.179262133314,2.0941369982519586,0.9416152907212008,118.91025546187113
143.0,3021.586100352452,2.354086594169402,0.9412880381045509,119.90117944217657
144.0,3017.6404137829113,2.6525719167281157,0.9409519221549926,120.89093538508563
145.0,3013.29274537331,2.995755199388534,0.9406066976864251,121.87934617200364
146.0,3008.4858965004933,3.3908129156017046,0.9402521466102791,122.86620576827191
147.0,3003.1536534436686,3.8461449633368674,0.9398880857910148,123.85127429970554
148.0,2997.2193328165904,4.371458250469697,0.9395143762396889,124.8342723819005
149.0,2990.595634902151,6.142889494401833,0.9391309339828788,125.81487443886344
150.0,2983.188151611466,12.08838378933669,0.9387377425873209,126.79270105118292
151.0,2974.8783397842276,18.843606848508834,0.9383348677250649,127.76731001912187
152.0,2965.5323350942476,26.535864292392986,0.9379224737850195,128.73818610950843
153.0,2954.996091577686,35.31260608829577,0.9375008426391943,129.70472932651026
154.0,2943.092733493285,45.34432237379155,0.9370703945912476,130.66624156013887
155.0,2929.6197477922447,56.82772040144183,0.9366317114696222,131.62191144843825
156.0,2914.3461508704245,69.98909222916932,0.9361855612511458,132.5707975993113
157.0,2897.0096756776634,85.08789215377031,0.93573292423178,133.5118097716765
158.0,2877.3143003736504,102.42027374039836,0.9352750190459734,134.44368866183126
159.0,2854.928261229593,122.32255891499179,0.934813328191088,135.3649838214959
160.0,2829.4830665161558,145.17424141610368,0.9343496203137239,136.27403072843958
161.0,2800.5739279924073,171.40028414849613,0.9338859675659865,137.16892705155638
162.0,2767.7622782771205,201.47225551094357,0.933424755006937,138.04750885672206
163.0,2730.5811875689897,235.9077406785313,0.9329686784970218,138.90732771888145
164.0,2688.5445852814923,275.26743077865495,0.932520727688727,139.74562946379973
165.0,2641.1613334462877,320.1492094183858,0.9320841507917123,140.55933517454596
166.0,2587.9552611230433,371.1785602594821,0.9316623986756014,141.3450245782352
167.0,2528.492207848104,428.9946365249537,0.9312590473461976,142.09892163875386
168.0,2462.41504231959,494.23160516049205,0.9308777012754474,142.81687952285006
169.0,2389.486998205087,567.4951653727744,0.9305218839987818,143.49436154711674
170.0,2309.643934560923,649.334421905161,0.9301949269746251,144.12640887264425
171.0,2223.054252491343,740.2101638486691,0.9298998761060037,144.7075843696436
172.0,2130.186294503358,840.4606313005877,0.9296394387900386,145.23187097932512
173.0,2031.8801647248783,950.2671371729291,0.9294160073241362,145.6924963508534
174.0,1929.4172023942199,1069.6240459143853,0.9292318033344774,146.08164937561133
175.0,1824.594320162633,1198.3113539420667,0.9290891941530168,146.38999172450065
176.0,1719.7845731774655,1335.8796115346925,0.9289912739350181,146.6058790141092
177.0,1617.9874486537376,1481.6473391370519,0.9289428401713444,146.71406361228918
178.0,1522.8615465355135,1634.7160733997225,0.9289520232731394,146.69347574434698
179.0,1438.7326492223583,1794.0085264239297,0.9290331027197302,146.51320941379848
180.0,1370.567513160857,1958.3383896000896,0.9292116663390266,146.1247839210914
181.0,1323.9018501067246,2126.526750966687,0.9295351824415599,145.44539595577803
182.0,1304.671133649711,2297.6216006071163,0.9300980305587851,144.31595321188107
183.0,1318.859778726926,2471.325161115593,0.9311161376635679,142.3671636896076
184.0,1371.6207783517514,2649.0301556194318,0.9332607056738217,138.35763286393401
185.0,1505.7987556084995,2795.3161767717415,0.9501581983791393,80.98842926349212
186.0,1859.9691298658747,2762.9663201527383,0.9674523161565663,23.378909498456483
187.0,2237.7844850768083,2744.628886785661,0.9696757812089306,19.097957194839864
188.0,2642.1614710758613,2742.829086978913,0.9706251182976002,16.843239787076005
189.0,3076.3411676482874,2761.2590975287053,0.9709997619517297,15.369552865490563
190.0,3544.7595809247537,2804.4886265611763,0.9710326179272758,14.305363792998856
191.0,4053.828424498438,2877.9036391234913,0.97083173142312,13.489765452298423
192.0,4612.8425058537805,2987.702202463161,0.9704564996209256,12.838677929373576
193.0,5235.080660867029,3140.9126056671535,0.9699431972305903,12.302802995289658
194.0,5939.124894370073,3345.4541237242,0.9693156160375828,11.850905385015169
195.0,6750.360421679706,3610.334224973073,0.9685901890195471,11.46205439527222
196.0,7702.480854343902,3946.3139329634764,0.9677787073572298,11.121635058717347
197.0,8862.65947714475,4340.085687473133,0.9668898794676758,10.819117306591128
198.0,10298.6289467879,4778.418228899667,0.9659302816196318,10.546725840555732
199.0,12064.325979513233,5270.634594867438,0.9649049649779314,10.298608533331798
200.0,14224.668144325009,5829.307335623906,0.963817860352019,10.070292687353085
201.0,16858.79925816442,6471.618164210233,0.9626720569733915,9.858317939099205
202.0,20064.99109728514,7221.031041626941,0.9614700018133365,9.659979682695678
203.0,23967.91329019029,8109.364119190311,0.9602136450243192,9.473146571685595
204.0,28729.220655370835,9179.341945322003,0.9589045491939882,9.296127186135168
205.0,34562.513199733934,10487.817968616548,0.9575439734597277,9.127570923029761
206.0,41757.26507366424,12106.363301989517,0.9561329391364837,8.96639363839794
207.0,50715.71559725717,14107.082029571402,0.9546722822534973,8.811720596143504
208.0,61964.433655507426,16573.148237270892,0.9531626961187428,8.662842723371352
209.0,76180.90298721782,19609.17407607406,0.9516047663527724,8.519182485301489
210.0,94236.2032068469,23349.492099005613,0.9499990000894728,8.380267188222604
211.0,117252.94360574406,27970.483129261702,0.9483458505966167,8.245707950185382
212.0,146686.29915702023,33708.58160646848,0.9466457382396501,8.115183057977298
213.0,184439.9630355989,40886.09552850849,0.94489906848421,7.9884247444773555
214.0,233035.0625742849,49946.700466603594,0.9431062474770456,7.8652086520561415
215.0,295862.9476389454,61487.957926812654,0.941267695589836,7.745345409954321
216.0,377522.74354868964,76293.37659099612,0.9393838592847065,7.628673895452884
217.0,484249.5335594219,95388.06055373739,0.9374552215533578,7.5150558314478495
218.0,624483.0216302674,120118.24231024414,0.9354823110794407,7.404371443711901
219.0,809631.6521113199,152265.87903780612,0.9334657103602143,7.2965159755561
220.0,1055116.5129298125,194217.29672329276,0.9314060628478121,7.191396882168599
221.0,1381822.8266411214,249214.11880768937,0.9293040792726961,7.088931574227994
222.0,1818169.311987726,321717.03856424225,0.9271605431928567,6.989045601677596
223.0,2403085.7344318763,417887.2941917139,0.9249763158445331,6.89167119043998
224.0,3190222.7210416687,546221.8796983679,0.9227523403702851,6.796746065644269
225.0,4253809.469734712,718417.6421958971,0.9204896454503256,6.70421250359921
226.0,5696768.86884787,950568.0031218058,0.9181893483701773,6.61401656876791
227.0,7661955.53757878,1264856.6190354978,0.915852657561262,6.526107499861828
228.0,10347805.012923567,1692009.4124329835,0.9134808746346851,6.440437216090873
229.0,14030368.244472008,2274881.615186043,0.9110753959266886,6.356959920271114
230.0,19094695.43539693,3073618.759739068,0.9086377135708334,6.275631779999966
231.0,26079668.280021105,4172956.913019999,0.9061694161093982,6.196410671737677
232.0,35741847.301524125,5692490.302614638,0.9036721886546231,6.119255975557634
233.0,49145997.46443672,7801131.37295198,0.9011478126091758,6.044128410685094
234.0,67793008.58968292,10737644.358700443,0.8985981649575687,5.97098990388137
235.0,93800699.4171702,14840167.278499933,0.8960252171227242,5.8998034840637485
236.0,130160265.76875846,20589049.66963864,0.8934310334212852,5.830533198254757
237.0,181101912.530403,28668943.133031126,0.8908177691054622,5.763144044408699
238.0,252617644.31873077,40058339.4662846,0.8881876680076548,5.697601917803066
239.0,353209105.1602802,56158124.764927074,0.8855430598034495,5.633873568306346
240.0,494955133.77524805,78975771.03591846,0.8828863568899282,5.571926566176514
241.0,695032567.483884,111390028.94722205,0.8802200509089957,5.511729274772623
242.0,977882655.810914,157533359.11424288,0.8775467089219172,5.453250828676788
243.0,1378299937.8714983,223346108.28451544,0.874868969242423,5.3964611159977185
244.0,1945844097.3272412,317379803.1664794,0.8721895369597761,5.34133076406751
245.0,2751150495.7447605,451959118.02234393,0.8695111791597226,5.287831127716799
246.0,3894949398.441599,644857954.0073708,0.866836719859303,5.235934279483521
247.0,5520942042.312466,921716261.9457294,0.8641690346868528,5.185613001399065
248.0,7834171499.38654,1319529095.3496537,0.8615110453181044,5.136840777901684
249.0,11127211640.825756,1891689003.1267998,0.8588657136918423,5.0895917895472085
