Time,J,A,S,tau
0.0,100.0,100.0,0.8022306700161549,14.492753623188404
1.0,85.32312869366861,130.32785660424494,0.8048421618968262,14.901260173610016
2.0,75.5459576894793,157.7009532928488,0.8074851013131934,15.320323093416329
3.0,69.36284838563506,182.34660063856225,0.810156600258074,15.749619907753393
4.0,65.69419641822742,204.4780192755504,0.812854184413828,16.188892819438244
5.0,76.12306775457303,211.61445831259624,0.8132311615501988,16.827211311150933
6.0,107.12765436353124,194.88646225328915,0.8092817611587843,17.82667561465731
7.0,133.46935876365288,179.4115743062594,0.8054710063589913,18.82643132036848
8.0,155.79539290251344,165.11766713445093,0.8017956855110171,19.826187026079655
9.0,174.68293321700895,151.91898696356563,0.7982493323651522,20.82594273179083
10.0,190.63033173204028,139.735649647001,0.7948258094314542,21.825698437502
11.0,204.06715065463897,128.49325535604547,0.7915192891659588,22.82545414321317
12.0,215.36300459466554,118.12254298262845,0.7883242365267663,23.82520984892434
13.0,224.83540958948038,108.5590564803974,0.7852353925221089,24.824965554635515
14.0,232.75674444491284,99.74282694939541,0.7822477584595711,25.824721260346685
15.0,239.36020090865205,91.61812518985789,0.7793565820863301,26.82447696605786
16.0,244.84530094813604,84.1330910762728,0.7765573431389633,27.82423267176903
17.0,249.38235171487528,77.23959899387398,0.7738457413525731,28.8239883774802
18.0,253.11669643885185,70.89292050277798,0.7712176833387454,29.823744083191375
19.0,256.1720983189488,65.05152158775064,0.7686692724436329,30.823499788902552
20.0,258.6538267726626,59.676875127593696,0.7661967974922025,31.823255494613726
21.0,258.0705771231102,23.63532105918087,0.7637967218927649,32.82301120032493
22.0,257.26647863030536,8.704643161386207,0.7614656753596283,33.82276690603614
23.0,256.48471596748044,3.212010422912175,0.7592004443937005,34.82252261174736
24.0,255.7242494197197,1.1913866653368383,0.7569979638757053,35.822278317458576
25.0,254.98408695862662,0.4480243327937463,0.7548553090716277,36.82203402316979
26.0,254.2632816762622,0.17453366200968531,0.7527696880806598,37.82178972888101
27.0,253.56092936011623,0.07389715847257974,0.7507384346978043,38.821545434592224
28.0,252.87616620028732,0.036849812227629924,0.7487590016652006,39.82130114030343
29.0,252.20816662063774,0.023195863648183872,0.7468289542879643,40.82105684601461
30.0,251.5561412263037,0.018148383651886035,0.7449459643921369,41.82081255172579
31.0,250.91933486032153,0.016267604997721955,0.7431078046034658,42.82056825743696
32.0,250.2970247626492,0.015552324323977096,0.7413123429272487,43.82032396314813
33.0,249.68851882519488,0.01526633713709463,0.7395575376104646,44.8200796688593
34.0,249.09315393711233,0.015138796250349482,0.7378414322693074,45.819835374570474
35.0,248.5102944125345,0.015070013727113604,0.7361621512591021,46.81959108028165
36.0,247.93933051922565,0.01502331901782679,0.7345178953410126,47.81934678599283
37.0,247.37967699041454,0.014985164866203372,0.7329069372989794,48.81910249170401
38.0,246.8307716015005,0.014950421524756183,0.7313276177474494,49.81885819741518
39.0,246.2920743824632,0.01491778049372166,0.72977834280984,50.818613903126355
40.0,245.76306638527257,0.014886041564674792,0.7282575804870872,51.81836960883753
41.0,245.2432447893878,0.0148549811939461,0.7267638462492193,52.8181253145487
42.0,244.7321332278331,0.01482447785696746,0.7252957334190016,53.817881020259875
43.0,244.2292616310587,0.0147945394191818,0.7238518538549981,54.81763672597105
44.0,243.73417901201904,0.01476506003999359,0.7224308755675357,55.81739243168222
45.0,243.24646626225152,0.014736037769159237,0.7210315603517241,56.817148137393396
46.0,242.76570591533286,0.014707482570510466,0.7196526748329923,57.81690384310457
47.0,242.29147965208378,0.014679386225943045,0.7182929831378804,58.81665954881574
48.0,241.82339078742092,0.01465167202824699,0.7169513130287498,59.816415254526916
49.0,241.36107644096765,0.01462431208214797,0.7156265916325648,60.81617096023809
50.0,240.90417556210656,0.014597285434198085,0.7143177514526848,61.81592666594926
51.0,240.4523271002204,0.014570571130949441,0.7130237249924696,62.815682371660436
52.0,240.00517128657407,0.014544143197446117,0.7117434485221764,63.81543807737161
53.0,239.56237044432396,0.014517962479487992,0.710475923209875,64.81519378308278
54.0,239.12359915559978,0.014492080551301504,0.7092201862082925,65.81494948879394
55.0,238.6885313474603,0.014466527139520666,0.7079752727470667,66.81470519450512
56.0,238.2568528017139,0.014441211590554833,0.7067402528115708,67.81446090021629
57.0,237.82825868828243,0.014416055699180553,0.7055142238901859,68.81421660592746
58.0,237.40244435465442,0.014390982947415837,0.7042962839913215,69.81397231163864
59.0,236.9791105606711,0.014365981968808124,0.703085546959913,70.81372801734982
60.0,236.55796740619073,0.014341204319292164,0.7018811539337853,71.81348372306098
61.0,236.13872609830858,0.014316757836196134,0.7006822492802647,72.81323942877216
62.0,235.72110320605094,0.01429245024420379,0.6994879929748753,73.81299513448333
63.0,235.30481931211912,0.014268097558759513,0.6982975566484668,74.81275084019451
64.0,234.88959585729373,0.014243584083038356,0.6971101144253845,75.81250654590569
65.0,234.4751586627465,0.014219110732002944,0.695924853054103,76.81226225161686
66.0,234.06123509080393,0.014194978938235887,0.694740963687121,77.81201795732804
67.0,233.6475533876967,0.014171113110305519,0.6935576399920769,78.81177366303922
68.0,233.23384367975513,0.01414708670331863,0.6923740808760765,79.81152936875039
69.0,232.81983643285014,0.014122767843098105,0.691189486156535,80.81128507446157
70.0,232.40526237074187,0.014098457817844906,0.6900030561243395,81.81104078017273
71.0,231.98985207630372,0.014074342135600465,0.6888139905006564,82.8107964858839
72.0,231.57333562924225,0.014050244085098699,0.6876214873150095,83.81055219159508
73.0,231.1554413636983,0.014025952435886271,0.6864247391154497,84.81030789730625
74.0,230.73589742259966,0.014001342134089758,0.6852229378292601,85.81006360301743
75.0,230.3144288031707,0.013976592392386947,0.6840152656952664,86.80981930872859
76.0,229.89075804570857,0.013951977150765344,0.6828008974614735,87.80957501443977
77.0,229.46460669711527,0.01392747172596347,0.6815790048300383,88.80933072015094
78.0,229.03569099803872,0.013902677866265848,0.6803487433798477,89.8090864258621
79.0,228.6037252726003,0.01387742549042947,0.6791092628871843,90.80884213157329
80.0,228.16841872196534,0.013851993483648987,0.6778596976221588,91.80859783728445
81.0,227.72947656404133,0.01382656685645534,0.6765991698302456,92.80835354299563
82.0,227.28659994320273,0.013800979128278698,0.6753267894481909,93.8081092487068
83.0,226.83948184208523,0.013775051378286546,0.6740416418275634,94.80786495441798
84.0,226.3878142115512,0.013748663865402296,0.6727428091983727,95.80762066012915
85.0,225.93127887789382,0.013721938979332922,0.6714293433026294,96.80737636584033
86.0,225.46955026844745,0.013695123898401839,0.6701002736482277,97.8071320715515
87.0,225.00230096030413,0.013668267760099778,0.6687546241646299,98.80688777726267
88.0,224.52919131381003,0.013640971698753427,0.6673913820405075,99.80664348297385
89.0,224.04987635778593,0.013613033680970839,0.6660095184566424,100.80639918868502
90.0,223.5640015867692,0.013584677903351694,0.6646079759341648,101.80615489439619
91.0,223.07120265344284,0.013556119318575541,0.6631856674528336,102.80591060010737
92.0,222.57111034279563,0.013527259214947726,0.6617414913472426,103.80566630581853
93.0,222.0633383531771,0.013497871274173614,0.6602742946657513,104.80542201152971
94.0,221.54749715228863,0.013467797204232516,0.6587829147600563,105.80517771724088
95.0,221.02318459775165,0.013437112891506538,0.6572661510942778,106.80493342295206
96.0,220.48998184083112,0.013406092421061866,0.6557227530245198,107.80468912866323
97.0,219.94746752372706,0.013374855751669279,0.6541514623650708,108.80444483437441
98.0,219.39520242629632,0.013342987946160203,0.6525509672900278,109.80420054008557
99.0,218.83273635049662,0.013310238127090616,0.6509199230547184,110.80395624579675
100.0,218.2596071918273,0.013276799467888125,0.6492569491491862,111.80371195150794
101.0,217.67533638306105,0.013242890265275642,0.6475606156811787,112.8034676572191
102.0,217.0794377134023,0.0132083847600394,0.6458294697795205,113.80322336293027
103.0,216.4714007919672,0.013173105361199694,0.6440619860232503,114.80297906864145
104.0,215.85071048921714,0.013136949417329551,0.6422566247672674,115.80273477435261
105.0,215.2168323149045,0.013099963002766175,0.6404117881972156,116.80249048006378
106.0,214.569212050884,0.013062322113960759,0.6385258193299304,117.80224618577496
107.0,213.9072878608788,0.013023930483610828,0.6365970382789615,118.80200189148614
108.0,213.23047729905946,0.012984604955256317,0.6346237032413725,119.80175759719732
109.0,212.53878518788923,0.020763406227579898,0.6326040246730033,120.80151330290848
110.0,211.83185077923105,0.031388369128669345,0.6305361626600754,121.80126900861964
111.0,211.10890723987626,0.041102966010786,0.6284182260208889,122.80102471433082
112.0,210.36935297010908,0.04998637646313567,0.6262482716944999,123.80078042004197
113.0,209.612572930545,0.058110654039132154,0.6240243041817433,124.80053612575315
114.0,208.83793856063593,0.06554137484644254,0.6217442751190874,125.80029183146432
115.0,208.04480779015492,0.07233823199490677,0.6194060832024426,126.80004753717547
116.0,207.23252497570115,0.07855551922683686,0.6170075737842615,127.79980324288664
117.0,206.40042103577412,0.08424267418067968,0.6145465394944416,128.79955894859782
118.0,205.5478134220233,0.08944468193816202,0.6120207202043385,129.799314654309
119.0,204.67400628065926,0.09420245798916654,0.6094278036758735,130.79907036002018
120.0,203.77829063275428,0.09855324325008563,0.6067654266550848,131.79882606573136
121.0,202.859944519642,0.10253090347832028,0.6040311757415534,132.7985817714425
122.0,201.9182332427382,0.10616627710452081,0.6012225891597474,133.7983374771537
123.0,200.95240968893017,0.10948731240929127,0.598337157819205,134.79809318286487
124.0,193.106300360647,7.067129254557429,0.5966544059699395,135.65637434195705
125.0,168.00177855972916,33.13506484951246,0.5986346367136883,136.10077553854535
126.0,147.3504479623249,57.7823759600749,0.6006205112291354,136.53409235167567
127.0,131.61108615441026,81.0942434001133,0.6025989868116768,136.95728052655065
128.0,121.206932564853,103.2044588262622,0.6045678992952513,137.37007565709774
129.0,116.58672578059809,124.2355931112644,0.6065249248927373,137.77220913383832
130.0,118.22416880646296,144.29997090381525,0.608467572853036,138.16340816097042
131.0,126.61701854534186,163.50056587982837,0.610393178060987,138.54339577869305
132.0,142.2857939350024,181.93181295600783,0.6122988935907283,138.91189089302668
133.0,165.77205888761716,199.68034531962812,0.6141816832473228,139.26860831345437
134.0,197.63625253273383,216.82566052133754,0.6160383141280303,139.6132587985631
135.0,238.4550121599349,233.44072550253688,0.6178653492712473,139.94554911048772
136.0,288.81795851191777,249.59252470805882,0.6196591404379935,140.26518207830716
137.0,349.3239198331375,265.3425543019036,0.6214158210260975,140.57185666981258
138.0,420.5765841211737,280.74726773767554,0.6231312993032675,140.86526807408725
139.0,503.1795139645949,295.85848113165355,0.624801251900496,141.14510779304206
140.0,597.7306318649986,310.72373072671996,0.6264211177244267,141.41106374358003
141.0,704.8159121947066,325.3866011935601,0.627986091832744,141.66282036383268
142.0,827.7279506331519,337.07867588802327,0.6291444956965291,141.83131220101367
143.0,973.485570267905,333.93541274586175,0.6278705956058436,141.5087499760872
144.0,1120.6686329191016,336.06366731092544,0.6263752678815596,141.12747777179752
145.0,1273.046578534119,341.79078756052365,0.6246509136995451,140.68297818680836
146.0,1380.7304771254956,450.8786654345801,0.8511394436627745,21.158112174253855
147.0,1629.377027675808,429.17149203199523,0.8484737080121332,20.677554884652668
148.0,1865.1841474450646,418.958958399644,0.8457591969695214,20.20698434029848
149.0,2093.9674090841945,420.3676804953577,0.8429966159899344,19.746485859315907
150.0,2322.3396183174154,433.57652718718373,0.840186714273033,19.29611311854897
151.0,2557.7130171149124,458.8049503827453,0.837330284983762,18.855890669785868
152.0,2808.282856192278,496.3003823051366,0.8344281651570087,18.425816419668045
153.0,3082.9878731856934,546.3248891840867,0.8314812356051974,18.00586401656702
154.0,3391.4416839992095,609.1413556032155,0.8284904209568136,17.595985160933218
155.0,3743.8367742402324,684.9989954552959,0.8254566895404155,17.196111809568638
156.0,4150.8200876018345,774.1184446478668,0.8223810531852348,16.80615824790381
157.0,4623.333414958515,876.6770790878204,0.8192645672657505,16.426023062891918
158.0,5172.495712814814,992.7261177682299,0.8161083303661003,16.055590974946774
159.0,5814.722590078384,1114.3208879341623,0.8129134842886743,15.694734575913223
160.0,6554.051057654471,1238.9239612457482,0.8096812135475444,15.343315907937743
161.0,7357.422825537678,1413.2821694819172,0.8064127452983189,15.001187962234853
162.0,8301.308673235713,1602.986751741333,0.8031093484499676,14.668196005017844
163.0,9400.305759689527,1781.1394889440803,0.7997723339087052,14.344178882175218
164.0,10631.497476306547,1961.6159885388968,0.796403053743664,14.028970142607092
165.0,11982.55977419709,2158.8083360749824,0.7930029006535795,13.722399088580993
166.0,13452.30870312763,2387.4619156465087,0.789573307281343,13.424291726181648
167.0,15050.835483600189,2662.4520862723652,0.7861157455326006,13.134471631488985
168.0,16799.17926472198,2998.5029464094564,0.7826317256880481,12.852760726301693
169.0,18728.491142046933,3409.856154766433,0.7791227955022624,12.578979980921478
170.0,20878.66838932881,3909.9061413267896,0.7755905392444377,12.312950046495311
171.0,23298.000355315788,4509.014458359097,0.7720365763702849,12.054491806279264
172.0,26043.651587309054,5205.7972323342265,0.7684625607391214,11.803426900145073
173.0,29143.30047252887,6024.619511778406,0.7648701789655548,11.559578153006559
174.0,32646.84274364458,6992.32379056935,0.7612611485252196,11.322769947767423
175.0,36638.156734299,8082.086648925033,0.7576372167080865,11.092828598854211
176.0,41154.453968036556,9287.890157524776,0.7540001589810147,10.869582660253126
177.0,46204.46368448968,10624.520783023345,0.7503517775492511,10.652863203924877
178.0,51785.954461841284,12125.080899610248,0.746693897952958,10.442503994353137
179.0,57899.59779961689,13837.585802610072,0.7430283678181907,10.238341726518367
180.0,64558.92316989,15820.778686372398,0.7393570545454548,10.040216198036557
181.0,71796.4085817296,18138.86344969728,0.7356818426820365,9.84797045075871
182.0,79670.25713854501,20848.484260772573,0.7320046311780809,9.661450893802849
183.0,88242.62607181014,24008.613770449378,0.7283273307202508,9.480507418082626
184.0,97575.66761397068,27690.878969473248,0.724651860057191,9.304993464257294
185.0,107766.16900833245,31925.84481714208,0.7209801431772009,9.134766112908894
186.0,118897.82603557073,36726.06039975632,0.7173141055388802,8.969686147722289
187.0,131011.11095840893,42112.82533219059,0.7136556719256963,8.809618150024127
188.0,144101.51482789638,48131.70989438058,0.7100067588846557,8.654430416240906
189.0,158126.56854223157,54858.98349198067,0.7063692732377996,8.503995108348871
190.0,173024.4026388567,62397.72602233272,0.7027451060459368,8.358188209561956
191.0,188733.5699514746,70862.46840773395,0.6991361285249488,8.21688957603556
192.0,205193.37654498382,80376.03595537085,0.695544186831118,8.07998294319546
193.0,222352.6851906802,91057.4141348484,0.6919710965123591,7.947355927701616
194.0,240185.87032975876,102989.61482460993,0.6884186368156254,7.8189000270865865
195.0,258672.59977611282,116218.51657813274,0.6848885455439002,7.694510624406862
196.0,277769.3767044485,130770.29595786553,0.6813825131493858,7.574086979185301
197.0,297388.8781364678,146671.82751149655,0.6779021776221709,7.457532235158381
198.0,317401.8672951494,163962.78274969457,0.6744491159972802,7.344753318923259
199.0,337643.3969837048,182695.63147261503,0.6710248411501265,7.235660985893235
200.0,357927.2236437592,202930.82598178295,0.6676307957094977,7.13016975135285
201.0,378064.5418721199,224722.32231569878,0.6642683470464925,7.028197838526703
202.0,397883.6455531411,248095.18200952222,0.6609387828346243,6.92966711454367
203.0,417234.8561828696,273033.8938632292,0.6576433071676646,6.834503011091438
204.0,435981.8272098922,299485.18294098857,0.6543830378163461,6.742634437119383
205.0,453989.9736277166,327369.0050735867,0.6511590046208566,6.653993665430197
206.0,471119.7863966781,356589.34707632853,0.6479721495303312,6.568516196771773
207.0,487227.89801621466,387041.0014421671,0.6448233273171134,6.486140605299293
208.0,502173.3792193384,418610.55818469735,0.6417133087604628,6.406808365005236
209.0,515829.2064282713,451170.89676193305,0.6386427856000876,6.330463650734
210.0,528091.9973001122,484574.9560716111,0.6356123776243624,6.257053115119926
211.0,538885.942675876,518653.79252312746,0.6326226420384493,6.186525641347462
212.0,548161.5177255212,553219.7335138355,0.6296740852120022,6.118832072189717
213.0,555891.8712747599,588072.5385626995,0.6267671768328229,6.053924916572158
214.0,562069.2707226764,623006.1327609477,0.6239023666109799,5.991758035968746
215.0,566703.3716056584,657813.8348983778,0.6210801032455723,5.932286311416085
216.0,569821.1882056276,692291.4068498915,0.6183008555010493,5.875465296932142
217.0,571467.4871333248,726238.9034119837,0.6155651354491724,5.821250862819072
218.0,571704.2023456283,759462.5052572415,0.6128735231843079,5.7695988345590585
219.0,570608.5689574627,791777.0345675823,0.6102266923906708,5.720464633090028
220.0,568270.4349491663,823008.9035696669,0.607625437509165,5.673802917906764
221.0,564789.3501888241,852998.8552117202,0.6050706998602788,5.629567253715303
222.0,560271.5330508,881604.4193299246,0.6025635938153906,5.587709792335588
223.0,554827.5623833446,908701.4696230171,0.6001054315693702,5.548180987024817
224.0,548570.3246804948,934185.1496502738,0.5976977458270673,5.510929344389592
225.0,541613.2302779877,957970.3029812132,0.5953423097589525,5.475901220783652
226.0,534068.3753209391,979991.5717631379,0.593041153153953,5.443040673806687
227.0,526045.0029777822,1000203.1482764002,0.5907965742406625,5.412289373307161
228.0,517648.2025723079,1018578.2337900762,0.5886111465386314,5.383586577274851
229.0,508977.85326190025,1035108.2036228911,0.5864877200665778,5.356869178291422
230.0,500127.84564761934,1049801.5085945202,0.5844294164454896,5.332071823829435
231.0,491185.56074444344,1062682.3680979863,0.5824396175451646,5.3091271124662125
232.0,482231.5739236595,1073789.3170559085,0.5805219474729975,5.287965866486058
233.0,473339.4677625193,1083173.6731150618,0.5786802477555575,5.268517480307371
234.0,464575.7862394753,1090898.0074312694,0.5769185465654182,5.250710339913226
235.0,456000.9480978199,1097034.3688570254,0.5752410203302007,5.234472308275218
236.0,447668.9488775068,1101662.9030563447,0.5736519514383344,5.219731271215356
237.0,439627.4855564834,1104870.4005908614,0.57215567971124,5.206415740491259
238.0,431919.4960137585,1106748.7319748895,0.570756548754699,5.194455514334368
239.0,424582.1270341394,1107393.7407412478,0.5694588502598182,5.183782339221374
240.0,417648.1905601894,1106903.9377732705,0.5682667673181938,5.174330583036573
241.0,411146.27952137106,1105379.526867261,0.5671843175280383,5.1660379062031305
242.0,405104.29973718344,1102921.0064755178,0.5662152841645968,5.158846082502571
243.0,399544.59890992,1099629.158444648,0.565363164703931,5.152701597479692
244.0,394487.6143693013,1095603.9167343841,0.5646311237502616,5.147556144268284
245.0,389953.2607372478,1090943.6997908554,0.5640219385954373,5.143367253086557
246.0,385961.03283928847,1085744.9396929578,0.563537926216721,5.140099183315132
247.0,382527.2101860897,1080102.2577357055,0.5631809470526307,5.137722769648021
