Time,J,A,S,tau
0.0,100.0,100.0,0.7552638742599681,27.027027027027028
1.0,98.46831621237219,37.63125656380144,0.753922124155989,28.01234459369214
2.0,97.02213889094206,14.63659874095276,0.7526005328053819,28.99853414071665
3.0,95.65381448947777,6.1321176778301325,0.7512984593625898,29.9854920021307
4.0,94.35684713012304,2.9620668799243344,0.7500152229753311,30.973153746341886
5.0,93.125310957469,1.7579281017884485,0.7487501367431014,31.96146051635794
6.0,91.95379432952696,1.2802003286632275,0.7475025103057081,32.950358493025156
7.0,90.8373495186397,1.0726259563078682,0.7462716520500529,33.93979840964179
8.0,89.77144737098689,0.9671092468617575,0.745056870977598,34.92973511299418
9.0,88.75193642178884,0.9015848784448939,0.7438574782708014,35.92012716626444
10.0,87.77500602333063,0.8530192842339245,0.7426727885931013,36.91093648978766
11.0,86.83715304178729,0.8127528188231069,0.7415021211529412,37.90212803556276
12.0,85.93515170109103,0.7774221994191001,0.7403448005576768,38.89366949158333
13.0,85.06602701623977,0.7456856437925946,0.7392001575027137,39.88553102069887
14.0,84.22702913012455,0.7168788047426936,0.7380675292563842,40.87768500728897
15.0,83.41561235540436,0.6906518255336724,0.7369462600734198,41.87010584988277
16.0,82.62941348290921,0.6667591562844085,0.7358357013882678,42.86276974579473
17.0,81.86623498054173,0.645007019301739,0.734735212021188,43.855654523535726
18.0,81.12402709032497,0.6252535718551722,0.7336441581706192,44.848739463972855
19.0,80.40087333691264,0.6073453113229628,0.7325619134180311,45.842005154585706
20.0,79.69497643056012,0.5911794134140461,0.7314878586156369,46.83543334743079
21.0,79.0046452777271,0.5766345776068333,0.7304213817084034,47.829006827575526
22.0,78.32828384310844,0.5636257013336639,0.7293618775614507,48.82270929946261
23.0,77.66437963537562,0.5520660485208965,0.7283087476502482,49.81652526942108
24.0,77.0114944197005,0.5418787643227625,0.7272613998271955,50.810439949472425
25.0,76.368254353666,0.5330077757723739,0.7262192479502029,51.80443915556181
26.0,75.73334165249386,0.5253860890799322,0.7251817115713691,52.79850922006714
27.0,75.10548629490508,0.5189780071478732,0.7241482155599461,53.79263690463201
28.0,74.48345824905071,0.513732986390305,0.7231181897176477,54.78680931765764
29.0,73.86606029369145,0.5096262516026975,0.722091068414083,55.78101383688925
30.0,73.252120756107,0.506628966010501,0.7210662901609707,56.77523803136064
31.0,72.64048689468281,0.504721107475371,0.720043297252175,57.76946958809852
32.0,72.03001812456755,0.5038964736108724,0.7190215353401722,58.76369623782518
33.0,71.41957956403314,0.5041404243494326,0.7180004530693547,59.75790568200349
34.0,70.80803553430128,0.5054639288794807,0.716979501687076,60.752085519369444
35.0,70.19424311610902,0.5078641676269467,0.7159581346772559,61.74622317197966
36.0,69.5770455375074,0.5113627051406374,0.7149358074167388,62.74030580796293
37.0,68.955265666402,0.515975422583672,0.7139119768331432,63.734320265630366
38.0,68.3276989467325,0.5217290722478112,0.7128861011084398,64.72825296868439
39.0,67.69310658142513,0.5286630558621913,0.7118576393883844,65.72208984498361
40.0,67.05020790960091,0.5368092685170571,0.7108260515404875,66.71581623336957
41.0,66.39767277432483,0.5462282276267083,0.7097907979367466,67.70941679037297
42.0,65.73411336908575,0.5569647395186677,0.7087513392844762,68.7028753892395
43.0,65.05807521965592,0.5690950290154252,0.7077071365000736,69.69617500721202
44.0,64.36802838901814,0.5826871348335891,0.7066576506376062,70.68929761523762
45.0,63.66235671831372,0.5978269526938622,0.7056023428763727,71.6822240412862
46.0,62.93934782431626,0.6146161769930851,0.7045406745737478,72.67493384318598
47.0,62.19718061847481,0.6331563810104119,0.703472107397196,73.66740514818284
48.0,61.43391332819031,0.65357109736908,0.7023961035334938,74.659614498617
49.0,60.64746902589132,0.6759884488278274,0.7013121260008948,75.65153666402844
50.0,59.83562110205987,0.700552709662307,0.7002196390563189,76.64314445185639
51.0,58.995976323413615,0.7274388454313956,0.6991181087278439,77.63440848555393
52.0,58.12595682135185,0.7568247636148897,0.6980070034778744,78.62529696747544
53.0,57.22278072133077,0.7889076115986866,0.6968857950007074,79.61577542286571
54.0,56.28343968980487,0.8239232437499484,0.6957539592027377,80.60580640201064
55.0,55.30467534556416,0.8621108579873176,0.6946109773502059,81.59534916564989
56.0,54.28295336054333,0.903741271730398,0.6934563374065179,82.58435933841446
57.0,53.21443351888035,0.9491305727791057,0.6922895356328187,83.5727885068168
58.0,52.09493857099193,0.9986001648312732,0.6911100783938615,84.56058379869029
59.0,50.91991935906793,1.0525214560964418,0.6899174842404666,85.5476874109515
60.0,49.68441490086537,1.1113153856856963,0.6887112863550949,86.53403606709776
61.0,48.383011071371044,1.1754139564212882,0.6874910352438234,87.51956045229245
62.0,47.00979323277791,1.2453439247384188,0.6862563018516268,88.50418456432135
63.0,45.55829454691414,1.3216272885370022,0.6850066810814139,89.48782500121158
64.0,44.021439249919176,1.4048769622156931,0.6837417957442697,90.47039017680706
65.0,42.39148029842845,1.4957647420162465,0.6824613010006714,91.45177945407909
66.0,40.65993088121045,1.5950300169752856,0.6811648893325695,92.43188218879108
67.0,38.81748931565231,1.703487471896334,0.6798522960919184,93.41057667563712
68.0,36.853956807437875,1.8220347850135044,0.6785233056729463,94.38772898832295
69.0,34.758147547467885,1.951660699586544,0.6771777583561259,95.36319170477525
70.0,32.51779062706102,2.0934536077108477,0.6758155578715296,96.33680250850936
71.0,30.11942326579459,2.248611596116646,0.6744366797282164,97.30838265709403
72.0,27.54827482059579,2.418456879795899,0.6730411803575116,98.27773530798152
73.0,24.788141400600278,2.6044373265962824,0.6716292070948724,99.2446436964614
74.0,21.8212506570069,2.808139761221278,0.670201009037313,100.20886915683803
75.0,18.62811658403173,3.0313018962591367,0.6687569487958507,101.17014898101002
76.0,15.18738439973469,3.2758235633663535,0.6672975151433552,102.12819411152401
77.0,11.475665781075477,3.5437779326473975,0.6658233365401036,103.08268666861356
78.0,7.467364863097551,3.8374290270706797,0.6643351955056175,104.03327731214505
79.0,3.1344961950531,4.159300876600042,0.6628340437417061,104.97958245063812
80.0,0.0,4.511981007197606,0.6613210178265333,105.92118132458278
81.0,0.0,4.898270244942505,0.659797455450232,106.85761295895509
82.0,0.0,5.321285577948069,0.6582649119780813,107.78837301534114
83.0,0.0,5.784362839454574,0.6567251767530954,108.71291064490558
84.0,0.0,6.291058707692784,0.6551802892449218,109.6306253031271
85.0,0.0,6.845126799807672,0.6536325539900095,110.54086371531483
86.0,0.0,7.450513300688557,0.6520845542508845,111.44291698404216
87.0,0.0,8.11135636400568,0.6505391635012043,112.33601799014707
88.0,0.0,8.831921886353516,0.6489995539929456,113.21933920653117
89.0,0.0,9.616612527842774,0.647469201529429,114.09199106839439
90.0,0.0,10.469883414072015,0.6459518853056045,114.95302109563852
91.0,0.0,11.396292168482281,0.6444516819621114,115.80141390400405
92.0,0.0,12.400276668291257,0.6429729524755007,116.63609235059744
93.0,0.0,13.486120064861561,0.6415203209374127,117.45591997177868
94.0,0.0,14.657867733460323,0.6400986439787439,118.25970493973216
95.0,0.0,15.919211589297657,0.6387129698878116,119.04620571002378
96.0,0.0,17.273457568176664,0.637368486616438,119.8141385094382
97.0,0.0,34.26019765357235,0.6360704581546097,120.56218679084132
98.0,0.0,54.58883577359497,0.6348241492279623,121.28901265369588
99.0,0.0,76.26674129261623,0.6336347386188538,121.99327021965094
100.0,0.0,99.36307563664796,0.6325072221245198,122.67362081989754
101.0,0.0,123.94340585107419,0.6314463067264718,123.32874973400706
102.0,0.0,150.06845764309728,0.6304562982603574,123.95738411747972
103.0,0.0,177.79284441772717,0.6295409855429069,124.55831162825339
104.0,72.31935492501839,207.16380807769522,0.6287035242382267,125.13039919621332
105.0,172.52936189317577,238.22001882099937,0.6279463244443075,125.67261126899591
106.0,296.18008778108117,270.99047815368493,0.6272709459739224,126.18402685245829
107.0,446.17865349614203,305.4935705519174,0.6266780054350835,126.66385464606518
108.0,625.6556326901989,341.73630349313083,0.6261670987520112,127.1114456443529
109.0,837.962384819493,379.7137709595373,0.6257367423832134,127.52630264701246
110.0,1086.6651223834185,419.4088592372798,0.6253843351923032,127.90808633046113
111.0,1375.5353831955092,460.7922186892318,0.6251061434876264,128.25661748713193
112.0,1708.5370288373426,503.8224811877177,0.624897307532725,128.57187566900285
113.0,2089.8094642046667,548.4467367877943,0.6247518714743888,128.8539939985691
114.0,2523.647421497117,594.6012240230945,0.6246628328529891,129.1032507598245
115.0,3014.4772482131925,642.2122068753105,0.6246222095982178,129.3200581611165
116.0,3566.829959803851,691.1970060264703,0.624621122381112,129.5049486968762
117.0,4185.311212746555,741.4651373578789,0.6246498882635383,129.65855981907907
118.0,4874.5685626755085,792.9195083773918,0.6246981214587131,129.78161764170108
119.0,5639.256244735813,845.4576209739179,0.6247548367828537,129.87492037820397
120.0,6483.99814095394,898.9727923278946,0.6248085584588051,129.9393214395703
121.0,7413.348079143557,953.3552748847227,0.6248474204309113,129.97571389308868
122.0,8431.749866315731,1008.4933453691813,0.6248592686968604,129.98501532657667
123.0,9543.495774770412,1064.2742573910155,0.6248317537947474,129.9681544628499
124.0,10752.683252377996,1120.5851160074824,0.6247524174071099,129.92605913333148
125.0,12063.172491425705,1177.3136221487716,0.6246087719928857,129.859645882157
126.0,13478.544587670416,1234.3486944134834,0.6243883713528096,129.7698113975561
127.0,15002.057398064098,1291.5809972648385,0.6240788744658327,129.65742531360127
128.0,16636.60412502672,1348.9033519878276,0.6236681017062504,129.5233247085958
129.0,18384.66869321381,1406.2110826416783,0.6231440868855246,129.36830962903298
130.0,20276.899078634044,1402.9624220650007,0.7010448907321772,56.30594875295535
131.0,22182.208188121134,1372.1922852924586,0.7260513531602258,41.51053693030485
132.0,24062.368322474664,1341.8027245175463,0.7356168121156614,35.99159570642744
133.0,25882.455947743754,1397.2392190040412,0.740307103433264,32.72282222275389
134.0,27802.92779912767,1559.9550198156683,0.7424736428798314,30.46163695129569
135.0,30013.54785948402,1814.3243621175945,0.7430563265509578,28.76685278567285
136.0,32686.028418805618,2153.5646908555773,0.7425336256231025,27.432043399478406
137.0,35987.16351213369,2574.6449326735124,0.7411854315637979,26.344375749181975
138.0,40084.321030989886,3076.4659643321174,0.7391912949002801,25.435598400640234
139.0,45147.90855554217,3658.9919078395865,0.7366742488934422,24.661396989882245
140.0,51352.51465807314,4322.767869644822,0.7337229879769649,23.991427979883763
141.0,58877.071926638295,5068.631499193238,0.7304040503865642,23.404059290912716
142.0,67904.51888953322,5897.519465448482,0.7267690324396037,22.883361473507456
143.0,78621.03240543028,6810.330707251766,0.7228590568298604,22.417299435176663
144.0,91214.89070082433,7807.824455381396,0.7187076874668035,21.996584553570354
145.0,105875.07935087965,8890.540084798668,0.7143428902375802,21.613920502787703
146.0,122789.68343122124,10058.732656756332,0.7097883941694954,21.26349070861006
147.0,142144.03436123958,11312.321483053393,0.7050646628994512,20.940599756267705
148.0,164118.71245042092,12650.847581508857,0.7001895999760963,20.641417217815828
149.0,188887.4865982491,14073.438861290688,0.6951790739415693,20.36278963719172
150.0,216625.1314790409,15562.531161383884,0.690047320556633,20.10209941597701
151.0,247431.16080619046,17006.731430965694,0.6848072412912237,19.85715900897188
152.0,281127.21270751866,18387.751816953212,0.6794706419382469,19.626130576271084
153.0,317483.7635348119,19824.193621855862,0.6740484219226398,19.407459790242477
154.0,356613.4407571709,21532.016423275945,0.6685507177062057,19.199827288195618
155.0,399137.41502201266,23692.49735202646,0.6629870232454247,19.002107960290097
156.0,446104.9168229602,26469.203361265078,0.6573662848327616,18.813338708878046
157.0,498951.544678491,30016.88978115592,0.65169697828698,18.632692235134055
158.0,559473.3422176389,34485.16079030167,0.6459871717650797,18.459455611561616
159.0,629805.9914317173,40019.8484176436,0.6402445770334979,18.293012616083683
160.0,712403.2279399522,46763.21941826901,0.6344765915579353,18.132829091970017
161.0,810014.0829500746,54853.490364844816,0.6286903326047856,17.978440783199858
162.0,925654.8802581972,64423.93426637042,0.6228926654439549,17.82944311769756
163.0,1062578.267086628,75601.71014984192,0.6170902261454767,17.68548262105602
164.0,1224236.3702528998,88506.53459768338,0.611289440039458,17.54624971262988
165.0,1414239.4744423914,103249.27800453462,0.6054965368477406,17.411472542736345
166.0,1636311.8248182999,119930.52636282687,0.5997175625271335,17.280911795218998
167.0,1894242.3669449692,138638.29789200102,0.5939583887857408,17.15435626386875
168.0,2191843.8704986633,159350.96840135366,0.588224720506014,17.031619054089163
169.0,2532542.522558084,181868.90750958692,0.5825221014305341,16.912534338773597
170.0,2918952.3099675616,206080.0179727301,0.576855918347293,16.796954599598063
171.0,3353254.359830044,232267.09513607656,0.5712314045127947,16.684748218581024
172.0,3838300.951473809,261099.50576049395,0.5656536413263061,16.57579742277939
173.0,4378556.418011398,293556.9705867688,0.5601275601459492,16.46999652683581
174.0,4980825.70974707,330883.81130450696,0.5546579429140791,16.36725040043135
175.0,5654818.502942099,374554.66566065676,0.5492494227434541,16.26747314715593
176.0,6413595.971298705,426244.09619135066,0.5439064839041905,16.17058696612867
177.0,7273894.030735532,487796.9168860964,0.538633461758996,16.076521164236276
178.0,8256335.28311104,561197.7508518277,0.5334345426212501,15.9852112965424
179.0,9385536.00769612,648539.5210857169,0.5283137634861429,15.896598425055867
180.0,10690098.671086567,751990.7540420946,0.5232750118192607,15.810628475921808
181.0,12202498.87540436,873761.8202392418,0.5183220255601354,15.727251676507056
182.0,13958882.00926918,1016070.6612026249,0.5134583931795845,15.646422068369578
183.0,15998762.407242656,1181104.7416506556,0.5086875538846435,15.568097085230631
184.0,18364637.90441007,1370843.5122451573,0.5040127981551961,15.492237182679347
185.0,21101025.067571525,1586760.557318698,0.4994372684560984,15.418805516125243
186.0,24252818.35790618,1830013.1767253077,0.49496396020885014,15.347767661034181
187.0,27864529.363400023,2102149.7909515942,0.4905957230205356,15.279091368000548
188.0,31981481.126029678,2405754.9913707203,0.48633526225506524,15.212746348625302
189.0,36652546.768695936,2744895.584341929,0.4821851407893926,15.148704088933155
190.0,41933807.95097455,3125434.128417983,0.478147781069286,15.086937686210339
191.0,47892767.11374956,3555241.499168189,0.4742254673996027,15.027421706180181
192.0,54612801.07698982,4044323.2043065387,0.4704203485262755,14.970132057523603
193.0,62197602.2148406,4604870.991891279,0.4667344404308597,14.915045882142607
194.0,70775422.63271122,5251246.989613207,0.4631696293279098,14.86214145890491
195.0,80502957.14874871,5999907.543731739,0.4597276748530642,14.811398119105073
196.0,91568734.9610488,6869273.873551793,0.45641021341825416,14.762796172148162
197.0,104195917.90822878,7879557.130732311,0.4532187616933692,14.716316840249796
198.0,118644505.88172081,9052539.881448606,0.4501547202406243,14.671942200716465
199.0,135212823.97987324,10411177.765551504,0.4472193772502617,14.629655134971157
200.0,154237808.83073914,11978825.496675337,0.44441391233031435,14.589439283605008
201.0,176093252.4605165,13778683.739963245,0.4417394003409141,14.551279006588096
202.0,201187069.54570514,15834228.313008163,0.43919681524773735,14.515159347982403
203.0,229960265.2752662,18170552.72837855,0.4367870339580859,14.481066004615862
204.0,262889763.97854966,20816237.27240048,0.4345108401308336,14.448985298238423
205.0,300496031.200271,23805481.99688731,0.4323689279632755,14.41890415049555
206.0,343355732.6953514,27180329.684345227,0.43036190587597684,14.390810060598099
207.0,392119385.83058053,30992850.876382966,0.42849030009927286,14.364691085311472
208.0,447533561.913228,35307197.23153911,0.4267545581404912,14.340535820944504
209.0,510467026.575004,40201454.87770229,0.42515505211006294,14.318333387088744
210.0,581940087.5783026,45769253.043748334,0.42369208187595525,14.29807341194716
211.0,663156687.1073585,52121086.61869981,0.42236587808787757,14.279746018953555
212.0,755538032.1782056,59385344.72540027,0.42117660499374404,14.263341814482214
213.0,860757331.5584843,67709015.90262038,0.42012436305176115,14.248851876666016
214.0,980774894.0440651,77257818.21525817,0.41920919133306406,14.236267745129274
215.0,1117872123.1325746,88215503.19832283,0.4184310697038725,14.2255814115245
216.0,1274682385.6423736,100782935.39647368,0.4177899207661348,14.216785310793213
217.0,1454219438.911784,115178127.66826415,0.41728561157981287,14.209872313127674
218.0,1659906161.0049734,131638065.72696543,0.4169179551615165,14.204835716368677
219.0,1895608143.630515,150422688.26314226,0.41668671171606636,14.201669238950783
220.0,2165678000.810636,171821086.21276784,0.4165915896315249,14.200367013355194
221.0,2475015457.3850126,196159824.48886544,0.416632246231953,14.200923580003199
222.0,2829147828.354995,223813189.9479712,0.4168082882868742,14.20333388156382
223.0,3234334778.932594,255215128.15027097,0.4171192722707639,14.20759325770377
224.0,3697702160.9818144,290872541.31185913,0.4175647044330473,14.213697440209648
225.0,4227404883.5022473,331379689.18470114,0.4181440406140693,14.221642548398576
226.0,4832822133.153858,377433415.85676044,0.41885668584600394,14.231425084984867
227.0,5524785913.762411,429848942.06919634,0.4197019937485583,14.243041932354666
228.0,6315843447.203106,489575919.6031145,0.4206792657281801,14.256490349262414
229.0,7220552449.608567,557714199.6370876,0.4217877499799224,14.271767967982344
230.0,8255810579.787403,635528687.0448085,0.4230266403329791,14.288872792008258
231.0,9441213961.704159,724463443.4863803,0.42439507495056644,14.307803194155667
232.0,10799441711.542328,826156404.191884,0.4258921348660432,14.328557915258347
233.0,12356670706.47975,942456518.256203,0.4275168423986719,14.351136063528953
234.0,14143026503.134914,1075445333.6175437,0.42926815945941305,14.375537114621252
235.0,16193081381.09513,1227464995.9586017,0.4311449857613649,14.401760912472316
236.0,18546414983.717846,1401154524.9304535,0.4331461569418632,14.429807671062889
237.0,21248265751.790085,1599495704.4217043,0.43527044266242704,14.45967797713028
238.0,24350281817.234055,1825870057.8829975,0.4375165446520181,14.491372793880885
239.0,27911405598.38378,2084127932.6877549,0.4398830947304066,14.524893465982112
240.0,31998917775.22497,2378670488.7230144,0.4423686528325812,14.560241725925119
241.0,36689668003.08531,2714545198.929858,0.4449717050515724,14.597419701919254
242.0,42071515612.850365,3097555436.293643,0.44769066170813165,14.636429927524153
243.0,48245024111.05391,3534384170.7088747,0.4505238554805153,14.67727535327217
244.0,55325422508.257576,4032731209.073834,0.45346953962586545,14.71995936031362
245.0,63444851715.47257,4601463680.407722,0.4565258862748473,14.764485776519532
246.0,72754927542.52567,5250778845.551556,0.459690984833001,14.810858895325016
247.0,83429632038.82994,5992379461.131116,0.4629628405018026,14.859083497615233
248.0,95668544402.87317,6839663370.338412,0.4663393729313803,14.90916487702663
249.0,109700425810.68925,7807930914.515697,0.4698184150053209,14.961108869165901
250.0,125787221295.9998,8914613449.65059,0.47339771180389073,15.014921885014553
251.0,144228433619.8267,10179529944.001564,0.47707491973187605,15.070610949052828
252.0,165365957283.5255,11625178602.023218,0.4808476058102217,15.128183742811503
253.0,189589418206.41632,13277071269.687605,0.48471324714397385,15.18764865442237
