Time,J,A,S,tau
0.0,100.0,100.0,0.7338336162572993,9.433962264150944
1.0,98.34499714190626,37.130220170351436,0.7259298866716456,10.42230080685735
2.0,96.75193220452144,13.978540824297024,0.7181571286958391,11.41129969350481
3.0,95.21588767657578,5.441627352449524,0.7105114508474721,12.400877710721572
4.0,93.73250287168233,2.283084596833469,0.7029888307740252,13.390980488325408
5.0,92.29781312135226,1.1048547776374333,0.6955852897936209,14.381558577753568
6.0,90.90820677943154,0.6567093930100998,0.688296903173336,15.372566919075991
7.0,89.56038714267312,0.478564818913826,0.6811198085197822,16.363964363201855
8.0,88.25133870104206,0.4010313567776191,0.6740502125469523,17.355713243212797
9.0,86.97829719821483,0.3616736195592435,0.6670843964533409,18.347778989321796
10.0,85.73872304136479,0.3374150227712439,0.6602187201096286,19.34012978246785
11.0,84.53027766631057,0.3196716882594474,0.6534496252398498,20.332736242195477
12.0,83.35080248356041,0.30519940597403195,0.6467736377387413,21.325571144585865
13.0,82.19830000818233,0.2927251126884653,0.640187369193037,22.318609165705197
14.0,81.07091758773008,0.2817403453206574,0.6336875183235823,23.31182665465479
15.0,79.9669316094593,0.27197936847012627,0.6272708708327458,24.305201413301372
16.0,78.8847346815037,0.26329155052354697,0.6209343000044097,25.298712509034583
17.0,77.82282305752781,0.255584987111756,0.614674766137857,26.29234009069256
18.0,76.77978610194118,0.24877847531394953,0.6084893163410722,27.286065226613605
19.0,75.7542960507456,0.24281583288978997,0.6023750835503746,28.279869746011986
20.0,74.74509930714196,0.23763954646835322,0.5963292859271754,29.273736095449404
21.0,73.75100799286682,0.23321025702052378,0.5903492256526809,30.26764719797298
22.0,72.7708926200446,0.22948542913291792,0.5844322881076301,31.26158632117683
23.0,71.80367498650529,0.2264382554641703,0.5785759406020463,32.25553694713459
24.0,70.84832186570895,0.22403830434217262,0.5727777314794043,33.24948264599624
25.0,69.90383888524974,0.222269505886699,0.5670352889059009,34.24340695036004
26.0,68.9692649406719,0.22111193345404262,0.5613463200129919,35.237293228671135
27.0,68.0436667584252,0.2205592303343527,0.5557086098462752,36.23112455792199
28.0,67.12613378481358,0.2206009803344728,0.5501200206416539,37.22488359112039
29.0,66.21577317774091,0.22124002953827185,0.5445784910184159,38.21855242209622
30.0,65.3117049523754,0.22247494180258845,0.5390820354727252,39.21211244098778
31.0,64.41305717351648,0.22431769917881805,0.5336287438911878,40.20554418445941
32.0,63.51896115735435,0.22677573102695173,0.5282167813397092,41.19882717250061
33.0,62.62854665061257,0.22987051031282418,0.5228443879716186,42.19193973649799
34.0,61.74093689483203,0.23361861662984737,0.5175098791892951,43.18485882961965
35.0,60.85524358125926,0.23805179485477512,0.5122116460239902,44.17755982389132
36.0,59.97056158165977,0.24319646439060044,0.5069481557514133,45.17001628500145
37.0,59.085963460360475,0.24909587522539356,0.5017179528282372,46.162199727742525
38.0,58.2004936646551,0.2557874063457302,0.4965196600505859,47.15407934415985
39.0,57.313162358311125,0.26332754506090106,0.49135198014444237,48.14562170435672
40.0,56.42293882023431,0.2717691234361463,0.4862136976110158,49.13679042288579
41.0,55.52874443206127,0.2811787512333201,0.48110368092443023,50.127545794752216
42.0,54.62944492630201,0.2916273498550979,0.4760208853556875,51.11784437662105
43.0,53.72384221671229,0.3031956668230192,0.47096435595044384,52.10763853655809
44.0,52.81066541331707,0.3159756200149589,0.4659332311588049,53.09687594375091
45.0,51.888560916124746,0.3300724974639419,0.46092674710288556,54.0854989914002
46.0,50.956081852443766,0.345598749082301,0.4559442421417215,55.07344416707472
47.0,50.01167650813716,0.3626790796771162,0.4509851621235284,56.06064134765714
48.0,49.05367551122095,0.3814585710167842,0.4460490664591102,57.0470130009886
49.0,48.08027789851817,0.402094818129333,0.44113563482088786,58.032473297414676
50.0,47.089536170531474,0.42475904255776314,0.4362446743846794,59.016927136107114
51.0,46.079339831869405,0.4496432226161244,0.4313761280245547,60.00026905007495
52.0,45.04739719689188,0.47696710916163404,0.42653008355395433,60.98238196929907
53.0,43.99121613416655,0.5069642888882407,0.42170678347020124,61.963135876299646
54.0,42.908083179057805,0.5398971814387842,0.4169066356610894,62.942386315980926
55.0,41.79504078058003,0.5760514372836375,0.41213022521149534,63.919972730111176
56.0,40.64886308535578,0.6157404628824843,0.4073783270000796,64.89571663364828
57.0,39.46603014149598,0.659313161632566,0.4026519191888363,65.86941961664547
58.0,38.242700637273806,0.7071507280062833,0.3979521975410894,66.84086116088692
59.0,36.97468333833225,0.7596694165283101,0.39328059047973607,67.80979626934138
60.0,35.65740750227001,0.8173228185336019,0.3886387747382004,68.77595290893885
61.0,34.2858926623396,0.8806035246324957,0.384028691398944,69.73902927349687
62.0,32.854718310155405,0.9500445137105742,0.37945256204379224,70.69869088130551
63.0,31.357994182151494,1.0262199438178594,0.37491290464992916,71.65456753227343
64.0,29.78933205295014,1.1097451770371394,0.3704125487634713,72.60625016219768
65.0,28.141820166484212,1.2012758353591617,0.36595464936541716,73.55328764719954
66.0,26.40800168885457,1.301505636828539,0.3615426987145573,74.49518362977715
67.0,24.579858838626738,1.4111627338583377,0.35718053531217026,75.43139345919153
68.0,22.648804629538503,1.5310042571191946,0.3528723489896805,76.36132136270759
69.0,20.605684430473552,1.661808763649651,0.34862268098160576,77.28431798984087
70.0,18.440789784326125,1.8043663030780146,0.34443641772425193,78.19967849800601
71.0,16.143887099846555,1.9594658583656601,0.3403187770317284,79.10664137299185
72.0,13.704263900160877,2.1278799949307956,0.3362752852647473,80.00438819898186
73.0,11.110795233709833,2.3103466714656706,0.3323117441472737,80.89204460715851
74.0,8.352032579892697,2.5075483323140237,0.32843418602601715,81.76868263540484
75.0,5.416317066382493,2.7200886162106404,0.3246488166317947,82.63332471997916
76.0,2.2919180564385924,2.9484853857380178,0.32096194480754064,83.48494950285885
77.0,0.0,3.1931223756152463,0.3173798992349748,84.32249962079506
78.0,0.0,3.4541251696702076,0.31390893287341837,85.14489148159416
79.0,0.0,4.334036202594433,0.3105551167531381,85.95102700584333
80.0,0.0,8.383395756707449,0.3073242256637741,86.7398071800989
81.0,0.0,12.666822203589629,0.30422161863428665,87.51014709951014
82.0,0.0,17.19145447465924,0.30125211940488267,88.26099201789341
83.0,0.0,21.96295417022195,0.29841990101364896,88.99133384373009
84.0,0.0,26.985298312562996,0.29572838005239355,89.70022739066445
85.0,0.0,32.26060217319214,0.2931801257994515,90.3868056322828
86.0,0.0,37.7889815049926,0.2907767889725134,91.05029321771799
87.0,0.0,43.568462449348736,0.2885190542935596,91.69001752847625
88.0,0.0,49.5949439705153,0.28640661936226686,92.30541672513128
89.0,0.0,55.86221516199508,0.2844382010361804,92.89604438887449
90.0,0.0,62.36202657777869,0.28261156889450667,93.46157057171968
91.0,0.0,69.08421159297517,0.28092360376087283,94.00177929557711
92.0,0.0,76.01685097105985,0.27937037782941215,94.5165627619143
93.0,0.0,83.1464720961138,0.27794725203057924,95.00591270319725
94.0,0.0,90.45827337937489,0.2766489857975202,95.46990940394365
95.0,0.0,97.93636147409806,0.27546985303714655,95.90870918443717
96.0,0.0,105.56399386648928,0.2744037603556964,96.3225308522715
97.0,0.0,108.3099976574378,0.4084291629375883,57.99068370806841
98.0,18.632465279294678,105.38286239169811,0.5515964758576738,32.250148371626814
99.0,40.755061859920175,102.47550219172011,0.6026909207228232,25.65550410079674
100.0,63.43917765138438,99.58928946351517,0.6330011634724815,22.123610517075264
101.0,86.08145713226364,97.36016582135908,0.6539159210480862,19.79692009430633
102.0,108.16626431223266,96.6078802478594,0.6694223759397729,18.104006583410936
103.0,130.0578113312761,97.41647665774576,0.6814057750166387,16.797081381426842
104.0,152.15868107515936,99.96049009231604,0.6909159235408984,15.747100079929407
105.0,175.00135198696262,104.44926820408358,0.6986012952751176,14.878668057889248
106.0,199.29011842119422,111.12260094885487,0.7048925094098115,14.144080474169032
107.0,225.94586350253886,120.24832706361379,0.7100908912011377,13.511367188113704
108.0,256.15448686582664,132.1206255775932,0.7144159728283547,12.958134361588105
109.0,291.4193944828831,147.05970301205443,0.7180326949686927,12.468158214715244
110.0,334.9780208141588,163.79579190887557,0.7210681207224574,12.029357478851042
111.0,389.58193454892745,180.82838530323957,0.7236220647671768,11.632539595695446
112.0,456.3095545340463,198.1520233657094,0.7257742091313163,11.270583490695945
113.0,536.0255064834294,216.0880912063206,0.72758900470339,10.937890242650223
114.0,629.5819648443697,235.36176443246686,0.7291191393641323,10.630003572029846
115.0,738.253541061998,256.9092394576556,0.7304080690583236,10.343339099510894
116.0,863.946376497847,281.9401250848094,0.7314918895680615,10.074988562534813
117.0,1009.4977377452987,312.00412597867563,0.7324007599922943,9.822574202525086
118.0,1179.0840078834722,349.06124684894104,0.733160004114567,9.584138617643628
119.0,1378.8002794856827,395.5088329298378,0.7337909656576909,9.35806108594509
120.0,1618.0027813094066,453.2103932958724,0.7343116926341282,9.142992167450782
121.0,1909.0837873447886,523.2504125115767,0.7347374822517113,8.937802779248175
122.0,2266.5295310231177,606.8020317582486,0.7350813259509086,8.741543597423357
123.0,2706.901676121822,705.5887040436003,0.7353542718790267,8.553412773350916
124.0,3249.389803149506,822.2840316820545,0.7355657236160572,8.372729948538613
125.0,3916.879443596591,960.9624205812005,0.7357236893628117,8.198915132205729
126.0,4737.671314034589,1127.711121617496,0.7358349882466054,8.03147162665529
127.0,5748.160937981844,1331.414460652775,0.7359054246742925,7.8699719675093895
128.0,6997.180189712681,1584.1714821892363,0.7359399346105256,7.714046425130942
129.0,8551.715674556297,1900.5765990042921,0.7359427091389283,7.563373539218972
130.0,10501.728607598312,2297.626452596049,0.7359172994403788,7.417672287324505
131.0,12964.875710921431,2795.498823836343,0.7358667059615692,7.2766956057509775
132.0,16092.37063677593,3419.1363286981864,0.7357934544241168,7.14022501426975
133.0,20077.28279324749,4200.839581700323,0.7356996607598171,7.008066148478576
134.0,25167.064196027513,5184.301391148692,0.7355870867104376,6.880045040450686
135.0,31683.23098654552,6430.250469296532,0.7354571875428847,6.756005017672747
136.0,40052.068338229896,8022.163299017474,0.7353111530884097,6.635804114558825
137.0,50846.91718583506,10071.457113029895,0.735149943177781,6.519312905197752
138.0,64841.26978663801,12723.836415644588,0.7349743182302391,6.406412692696408
139.0,83074.39617313714,16168.659427768118,0.7347848658767363,6.296993988149418
140.0,106935.41452217608,20653.827286373955,0.7345820241123486,6.190955233923257
141.0,138275.58293768304,26509.7856702392,0.7343661016145594,6.088201728242991
142.0,179568.3180068438,34185.998700768854,0.7341372955907521,5.9886447193232355
143.0,234142.24972931232,44299.65150504449,0.7338957076286089,5.892200638396005
144.0,306514.26113149064,57696.62496623339,0.7336413578010295,5.798790450568539
145.0,402845.2656532389,75528.84057923887,0.733374197380856,5.7083391017637055
146.0,531553.9764225191,99358.04671316767,0.7330941203432365,5.620775047303095
147.0,704138.4381692861,131304.17209966935,0.7328009739074056,5.536029847178635
148.0,936297.0683042587,174265.50337469165,0.7324945682619604,5.454037818381524
149.0,1249500.7523549397,232238.3875739777,0.7321746856314567,5.374735733436397
150.0,1673222.165712294,310762.33610955847,0.7318410888015042,5.29806255824575
151.0,2248078.069075705,417524.2523840422,0.731493529202395,5.223959222661888
152.0,3030202.0272112046,563179.5624338943,0.7311317546317909,5.152368418498327
153.0,4097277.089162984,762494.6967088109,0.7307555166800844,5.083234420623565
154.0,5556874.253817433,1035978.0740503181,0.730364577906926,5.016502927559997
155.0,7558091.80049502,1412221.832405714,0.7299587188038493,4.952120918664005
156.0,10307938.374701237,1931224.8036303942,0.7295377445657183,4.89003652551049
157.0,14094421.133144414,2649043.43001739,0.729101491682748,4.830198915563239
158.0,19318945.387478106,3644273.605693584,0.7286498343549792,4.772558186595779
159.0,26541565.25728365,5027152.038221218,0.7281826907229974,4.717065270663022
160.0,36544274.954169676,6952464.886121202,0.7277000288978138,4.663671846614865
161.0,50419650.37832184,9637920.43150898,0.72720187276794,4.612330260481972
162.0,69695541.62563913,13390215.385220295,0.7266883075657228,4.5629934532592475
163.0,96510570.64543563,18641774.21374701,0.7261594851409464,4.5156148954849655
164.0,133860498.91796525,26002505.681504782,0.7256156289244754,4.470148528556388
165.0,185943989.0156422,36332880.40153506,0.725057038527858,4.426548712470008
166.0,258647094.56775886,50847447.16346839,0.7244840939385835,4.384770179941585
167.0,360223526.5492183,71261587.7150955,0.7238972592765813,4.344767996884682
168.0,502250776.4324348,99998925.86117022,0.7232970860485084,4.3064975291878955
169.0,700971468.1455103,140484025.11827007,0.7226842158709915,4.269914415875272
170.0,979176290.9544085,197555344.27015045,0.7220593826153627,4.234974548686677
171.0,1368842534.274263,278048056.7232896,0.721423413920973,4.20163405810105
172.0,1914830379.5811415,391617375.9242258,0.7207772320582783,4.1698493058938295
173.0,2680068363.848931,551899776.3966975,0.7201218540893941,4.139576884250701
174.0,3752812745.7151823,778148569.1221708,0.7194583913004551,4.110773621437313
175.0,5256813167.315622,1097536842.3799226,0.7187880478910978,4.083396594067292
176.0,7365543459.06174,1548396517.877465,0.7181121188815953,4.057403145892714
177.0,10322084766.788668,2184775255.1332135,0.7174319872427096,4.032750913057318
178.0,14466949394.104753,3082841635.5636353,0.7167491202366606,4.009397855745152
179.0,20276953647.1135,4349874989.852257,0.716065064961889,3.987302296004273
180.0,28419488295.428135,6136881826.164595,0.7153814431276737,3.9664229616256095
181.0,39828362746.82884,8656280034.101078,0.7146999450605127,3.946719035815253
182.0,55809552312.798225,12206675114.31904,0.7140223229730112,3.9281502123366807
183.0,78188757617.45311,17207565226.614983,0.7133503835334714,3.9106767558959326
184.0,109517309256.22057,24247877035.28074,0.7126859797652778,3.8942595672800646
185.0,153358928829.65805,34153846309.395996,0.7120310023354857,3.878860252896944
186.0,214689809499.74982,48083884062.68418,0.7113873702831476,3.8644411982873543
187.0,300455906634.3194,67661032016.728584,0.7107570212488928,3.8509656449695875
188.0,420348981820.1388,95157954093.46648,0.7101419012786289,3.838397770251196
189.0,587888897465.9155,133754991630.93556,0.7095439542719408,3.8267027693054176
190.0,821929760600.8849,187900068479.82184,0.7089651111580219,3.8158469388901834
191.0,1148758563634.265,263810691319.82135,0.7084072788791217,3.8057977622365606
192.0,1605020288503.4976,370173361300.9681,0.7078723292738994,3.7965239941946622
193.0,2241788590519.04,519118526946.794,0.7073620879463737,3.7879957461556013
194.0,3130244056324.334,727579035708.9954,0.7068783232114749,3.780184570038424
195.0,4369584444351.7617,1019181971897.4337,0.7064227352178821,3.7730635404487733
196.0,6098046473103.424,1426885210037.5457,0.7059969453266848,3.766607334623847
197.0,8508292686825.269,1996649019786.739,0.7056024858499367,3.760792309205299
198.0,11868853474122.31,2792550630007.562,0.7052407902356128,3.7555965732135586
199.0,16554061100819.16,3903912244496.567,0.7049131837737784,3.7510000567717676
200.0,23085863918211.094,5455228165161.166,0.704620874929521,3.7469845745598858
201.0,32192170175909.96,7620003688596.566,0.7043649473594503,3.7435338837350303
202.0,44888479728834.664,10640045546635.574,0.704146352691357,3.740633735658389
203.0,62591978154819.59,14852349544980.123,0.7039659041473539,3.738271920690028
204.0,87281104867936.83,20726617599132.68,0.7038242710424912,3.736438305995592
205.0,121719195148018.14,28917582085129.867,0.7037219742380374,3.735124865573239
206.0,169767451969469.8,40338031203439.68,0.7036593825831755,3.734325702278339
207.0,236823851374225.4,56260798370311.52,0.7036367103665065,3.7340370617734755
208.0,330439062235618.1,78461142157894.34,0.7036540158354422,3.734257337748715
209.0,461180064800652.2,109415752976566.44,0.7037112007684853,3.73498706869459
210.0,643844472376548.4,152580922167339.2,0.7038080111206094,3.736228926009565
211.0,899166266618541.4,212781410165397.38,0.7039440387510433,3.7379876932669682
212.0,1256213733645437.0,296754692465361.94,0.7041187241902314,3.740270237153524
213.0,1755767138464162.8,413912357889079.4,0.7043313604538181,3.7430854698463802
214.0,2455069556628723.5,577406074366304.4,0.7045810978561372,3.7464443032466264
215.0,3434522636600332.0,805620924647742.4,0.7048669497711885,3.750359595554643
216.0,4807127082174546.0,1124266465184044.0,0.7051877993166541,3.7548460901914806
217.0,6731782041713640.0,1569307916656237.2,0.7055424068715513,3.7599203479200254
218.0,9432065941232896.0,2191074481454982.0,0.7059294183733409,3.765600672522855
219.0,1.322272419625137e+16,3060017130872998.0,0.7063473743239007,3.771907030494572
220.0,1.8547047340995876e+16,4274785009621897.5,0.7067947194018819,3.7788609656999594
221.0,2.602968974036452e+16,5973546096784155.0,0.7072698126145851,3.7864855093516785
222.0,3.655117589093958e+16,8349861125309062.0,0.7077709378839088,3.7948050861666425
223.0,5.135315637699821e+16,1.1674946647145574e+16,0.7082963149679657,3.8038454175251464
224.0,7.218705480557069e+16,1.6328870217615192e+16,0.7088441106309907,3.813633422134652
225.0,1.0152372956257566e+17,2.2844284977116052e+16,0.7094124499471944,3.8241971152181806
226.0,1.428496568141354e+17,3.1967699809231976e+16,0.7099994276466339,3.8355655068723604
227.0,2.0108450639657274e+17,4.47452581959327e+16,0.7106031194017874,3.8477685002945425
228.0,2.8316977604187152e+17,6.264284788770232e+16,0.7112215929549909,3.8608367907848535
229.0,3.988988314397871e+17,8.77140371660547e+16,0.7118529189968874,3.8748017660752296
230.0,5.620843600289196e+17,1.2283478763356643e+17,0.7124951817030274,3.8896954087452364
231.0,7.922012171660653e+17,1.720312756743005e+17,0.7131464888493925,3.905550201401846
232.0,1.1166947507782618e+18,2.409369379352878e+17,0.7138049814243522,3.922399035130243
233.0,1.5742170549324995e+18,3.3742942462029536e+17,0.7144688426726388,3.940275121852351
234.0,2.21916538230993e+18,4.725167259065944e+17,0.7151363065082793,3.9592119110585346
235.0,3.128026180508646e+18,6.615678675771812e+17,0.7158056652383027,3.9792430113319432
236.0,4.4082312661468324e+18,9.260205054889261e+17,0.716475276564618,4.0004021170758515
237.0,6.210506458893458e+18,1.29574407734432e+18,0.7171435698167075,4.022722940748671
238.0,8.746023101849415e+18,1.8123050142022461e+18,0.717809051396261,4.046239150848045
239.0,1.231019828835717e+19,2.5334696319667343e+18,0.7184703094229458,4.070984315845579
240.0,1.7315616351890407e+19,3.53939483323046e+18,0.7191260175587346,4.0969918542152035
241.0,2.4337401785159848e+19,4.941124633969858e+18,0.7197749380309545,4.124294990584199
242.0,3.417566348883716e+19,6.892214674972754e+18,0.7204159238541455,4.15292671806252
243.0,4.794100675094424e+19,9.604587445819695e+18,0.7210479202651682,4.182919766697434
244.0,6.717128751971406e+19,1.3370105682817591e+19,0.7216699654131163,4.214306577928329
245.0,9.39905338729424e+19,1.8589805473209827e+19,0.7222811903156922,4.247119284977612
246.0,1.313240219661926e+20,2.5813387723900867e+19,0.7228808181321317,4.2813896989441425
247.0,1.8318855629041458e+20,3.5792379991491068e+19,0.7234681627969727,4.317149300405124
248.0,2.5508217237243822e+20,4.955136717152491e+19,0.7240426270447322,4.35442923634248
249.0,3.54504405272986e+20,6.848311786289947e+19,0.7246036998947087,4.393260322064157
250.0,4.916484700339787e+20,9.447500443742785e+19,0.7251509536335036,4.4336730479150885
