Time,J,A,S,tau
0.0,100.0,100.0,0.25577574140021475,25.0
1.0,593.1214644026991,196.9412469904954,0.25682921712142864,25.181283889205545
2.0,1454.7724791040753,292.74190022311086,0.257876284103751,25.359584102780463
3.0,2668.579205580134,387.42483406879035,0.25891636348946984,25.534845261817157
4.0,4218.66856901702,481.01326435526005,0.25994887968220537,25.707016258182875
5.0,6089.640029959926,573.5296320149323,0.26097324137559175,25.876046726004965
6.0,8266.543428094705,664.9956089526264,0.26198884176669773,26.041887043612572
7.0,10734.856810611136,755.4321037452156,0.2629950587947066,26.204488335944408
8.0,13480.466215637554,844.8592667220528,0.2639912554160056,26.363802476998995
9.0,16489.643482529573,933.2964969119495,0.2649767799378879,26.519782091252907
10.0,19749.036496597648,1020.7624428631651,0.26595096635584237,26.67238055683963
11.0,23245.63573715149,1107.2750147490244,0.2669131347694941,26.82155200696753
12.0,26966.776745901218,1192.8513800659748,0.2678625917817866,26.967251334268244
13.0,30900.11593494808,1277.5079736328673,0.2687986310145533,27.109434191244368
14.0,35033.60629423878,1361.2605058491677,0.26972053362260107,27.248056993201637
15.0,39355.50412929848,1444.1239569011204,0.27062756879715716,27.383076924399052
16.0,43854.33802321614,1526.1125898527364,0.2715189944016667,27.51445193952351
17.0,48518.91331526945,1607.2399490720063,0.2723940576041328,27.64214076713981
18.0,53338.2826280454,1687.518870467817,0.27325199554614693,27.76610291524852
19.0,58301.75687119868,1766.9614790966598,0.2740920360647088,27.886298674438308
20.0,63398.869693354936,1845.5792036163643,0.27491339846957674,28.002689122128576
21.0,68619.40848871076,1923.3827624301377,0.2757152942615706,28.115236133648782
22.0,73953.36062830222,2000.3821893549894,0.2764969280657436,28.22390238162744
23.0,79390.93853462397,2076.5868196654947,0.2772574984226977,28.328651352490866
24.0,84922.55369672045,2152.0053137838254,0.27799619882783677,28.429447336669497
25.0,90538.81177316442,2226.6456594418964,0.27871221862229617,28.52625543859388
26.0,96230.56123517707,2300.515141622533,0.27940474383627634,28.619041611002235
27.0,101988.79764527279,2373.6203915303363,0.2800729584688586,28.707772642826324
28.0,107804.69403099605,2445.967392377851,0.28071604549163864,28.792416150961717
29.0,113668.11965472816,2519.675043095841,0.28115363318811315,28.844706977010897
30.0,119650.95576142115,2685.1783233764577,0.2804440759688916,28.717458619997124
31.0,126259.17234226425,2986.50375372137,0.2797222927113136,28.589767601592836
32.0,134065.21584297885,3419.7181642570404,0.2789885346763238,28.461693879545468
33.0,143600.616877123,3980.9415264212334,0.278243066721041,28.333296239298285
34.0,155356.87157555422,4666.343860453072,0.27748616687343935,28.20463227651535
35.0,169786.42611573913,5472.142121660497,0.27671812585765904,28.075758385483493
36.0,187303.6336531629,6394.597241879278,0.2759392466045684,27.946729750253954
37.0,208285.72044887263,7430.011288221943,0.27514984373343565,27.817600339764702
38.0,233073.63498000396,8574.724972579721,0.2743502430145781,27.68842290604327
39.0,261973.03847197737,9825.115064407531,0.2735407808165891,27.559248984941032
40.0,295255.3683730147,11177.591854222523,0.2727218035185835,27.430128901883688
41.0,333158.4787875158,12628.59754380197,0.27189366694497746,27.301111776102154
42.0,375888.0363758616,14174.603442844076,0.2710567357408662,27.172245532776945
43.0,423618.1267673058,15812.108694313489,0.27021138281053636,27.043576907862967
44.0,476492.33212825254,17537.638616104185,0.26935798866885713,26.91515146638753
45.0,534624.8136580327,19347.74294519224,0.268496940844172,26.787013614158482
46.0,598100.959307708,21238.995233474456,0.26762863330071246,26.65920660679587
47.0,666979.0052543668,23207.990677931346,0.26675346575794306,26.531772578049715
48.0,741290.8577171329,25251.345177163836,0.2658718431376121,26.404752545482154
49.0,821042.9045043242,27365.69591150534,0.26498417492555176,26.278186442177017
50.0,906217.2141146598,29547.699821673,0.26409087463082637,26.15211311965769
51.0,996772.3367474967,31794.033848014682,0.2631923592140946,26.02657035813058
52.0,1092645.3451209117,34101.392677866424,0.2622890484009577,25.90159491485126
53.0,1193752.5239107718,36466.48977014596,0.26138136417678787,25.777222542159333
54.0,1299988.5827976193,38886.06424692455,0.26046973041720556,25.653487952195317
55.0,1411229.2075023646,41364.28401780818,0.2595545720237302,25.53042491545491
56.0,1527474.1934198004,44026.85088996616,0.25863631462973896,25.408066222512545
57.0,1649494.4426872912,47090.3428447446,0.25771538405815964,25.286443722921472
58.0,1779006.1148166973,50761.070687690975,0.25679220582717727,25.165588341725318
59.0,1918557.5479830103,55232.29651754182,0.2558672046843512,25.04553009736819
60.0,2071416.7765763954,60684.43203135177,0.2549408041577346,24.926298120054717
61.0,2241464.0489677107,67285.23050369539,0.254013426125087,24.807920668903403
62.0,2433089.107471222,75189.9966063781,0.25308549040246203,24.690425149555757
63.0,2651093.4801820344,84541.8008310384,0.25215741435213795,24.573838131212387
64.0,2900599.4186582305,95471.69484703656,0.2512296125067916,24.458185362922286
65.0,3186961.695488235,108098.94656688457,0.25030249621682876,24.343491790117067
66.0,3515687.395737246,122531.27482568068,0.2493764733128781,24.229781570331422
67.0,3892360.3868601657,138865.09819211418,0.2484519477889202,24.117078088856825
68.0,4322567.278642225,157185.7880019342,0.2475293195026933,24.005403973368722
69.0,4811838.110999875,177567.9362548214,0.24660898389382904,23.89478110931575
70.0,5365582.775949121,200075.64496879018,0.24569133172839147,23.78523065498822
71.0,5989035.48528487,224762.79393206592,0.24477674884451045,23.67677305428127
72.0,6687213.108736542,251673.35033699215,0.2438656159318537,23.56942805231615
73.0,7464858.937968843,280841.6620855089,0.24295830831117401,23.463214706933556
74.0,8326420.03672631,312292.80911216943,0.2420551957653953,23.35815140628259
75.0,9276002.801912861,346042.8773017846,0.24115664232659337,23.254255877272563
76.0,10317348.648039574,382099.3176318894,0.2402630061295871,23.1515452009344
77.0,11453807.643431906,420461.3015161533,0.23937463927325983,23.05003582595601
78.0,12688313.311030794,461120.58494607214,0.23849188766188928,22.94974357871518
79.0,14023429.235193472,504155.26786193246,0.23761509092769478,22.85068368020367
80.0,15462070.617499873,549938.0641143456,0.23674458229735287,22.752870756462038
81.0,17008921.727644943,599169.5029964404,0.23588068847610297,22.656318848127246
82.0,18671719.43145082,652836.3781333113,0.23502372961163354,22.561041426636702
83.0,20462274.30029033,712175.4254319923,0.23417401919253342,22.467051403534974
84.0,22397230.077200588,778636.4582101646,0.2333318640106732,22.374361144362446
85.0,24498572.44255884,853848.7217167019,0.2324975641095629,22.282982479930045
86.0,26793978.588621676,939588.6257969984,0.23167141273317854,22.192926717307582
87.0,29316947.80647262,1037748.8813513252,0.23085369631975414,22.104204653178876
88.0,32106751.384661816,1150310.275485286,0.2300446944738107,22.016826584601922
89.0,35208318.736688845,1279314.7405505357,0.22924467994792072,21.930802320262355
90.0,38671938.81503306,1426840.3803835073,0.22845391866179351,21.846141193396278
91.0,42552845.37481246,1594978.6368484767,0.2276726696943099,21.762852072157827
92.0,46910824.494708814,1785812.8292289148,0.22690118529481487,21.68094337112615
93.0,51809655.20335635,2001398.9114822035,0.22613971092148133,21.600423063731963
94.0,57316499.90190906,2243747.8487744397,0.22538848525039262,21.521298692328532
95.0,63501382.46078298,2514809.5563159026,0.2246477402125413,21.443577379876594
96.0,70436518.5445795,2816458.994771615,0.22391770104729147,21.367265841899755
97.0,78195619.22529924,3150483.4507328994,0.22319858632053485,21.292370395957235
98.0,86853395.12638566,3518571.69695749,0.22249060799727666,21.21889697425091
99.0,96484780.1943843,3922304.4997563586,0.22179397148079533,21.146851133510665
100.0,107164483.07287465,4363170.157433136,0.2211088756768319,21.076238066395838
101.0,118966554.10937808,4842800.7579215355,0.22043551304090908,21.007062611296536
102.0,131965553.63493322,5363412.045804846,0.21977406967176855,20.939329264564368
103.0,146239638.55904225,5928210.56806976,0.21912472534418267,20.87304218922969
104.0,161874709.18552557,6541712.623850519,0.2184876535913512,20.808205225859965
105.0,178969725.9239907,7209978.187728179,0.21786302179632186,20.744821903818735
106.0,197642596.6992819,7940786.911715755,0.21725099124310518,20.68289545016996
107.0,218036023.52103657,8743747.965616522,0.2166517171944852,20.622428799653264
108.0,240323361.22051936,9630347.59415568,0.21606534899058616,20.563424605462984
109.0,264713747.8388617,10613967.47749264,0.2154920300990253,20.50588524735078
110.0,291457571.5715984,11709839.148673251,0.2149318982251042,20.449812842609624
111.0,320850104.094055,12934987.094678402,0.2143850853663435,20.395209253942316
112.0,353235900.37905693,14308121.06621335,0.2138517179194127,20.342076099820314
113.0,389010610.4586659,15849524.94357258,0.2133319167407675,20.290414762251878
114.0,428624179.0363108,17580908.331205368,0.2128257972494673,20.240226396510923
115.0,472580689.0080626,19525260.707436908,0.21233346949310367,20.191511938762748
116.0,521440411.98606825,21706679.79715559,0.21185503824580224,20.14427211516341
117.0,575817752.5674442,24150207.495711405,0.2113906030786434,20.09850744930108
118.0,636382308.7161056,26881649.184751227,0.21094025845227318,20.05421827067072
119.0,703855143.4917815,29927404.85853321,0.21050409379104082,20.011404721890692
120.0,779009062.1913457,33314295.0027136,0.21008219356975286,19.970066766560475
121.0,862663618.2022145,37069530.86192371,0.20967463739078593,19.93020419621518
122.0,955685867.7307727,41221098.85546634,0.20928150006461224,19.89181663757605
123.0,1058988155.0425073,45798635.7186223,0.20890285168918796,19.85490355920939
124.0,1173535778.6780915,50834658.584033616,0.20853875772395714,19.819464278180742
125.0,1300353915.288787,56366021.39405189,0.2081892790716042,19.7854979664154
126.0,1440546627.8305812,62435518.77998251,0.20785447214540753,19.753003656784713
127.0,1595313119.2311406,69093517.46527697,0.207534388942503,19.721980248752946
128.0,1765979610.8603964,76399541.49275428,0.20722907712930394,19.69242651472962
129.0,1954025609.5799925,84423870.39152122,0.20693858008197938,19.664341104392225
130.0,2161120982.178812,93248849.97465545,0.20666293699309948,19.637722551117967
131.0,2389165082.634061,102970266.39637294,0.20640218290040707,19.612569275872726
132.0,2640321937.113699,113698353.20634808,0.20615634877506386,19.58887959245445
133.0,2917069723.4506764,125558716.85334712,0.20592546158146444,19.566651712133673
134.0,3222234235.5328617,138693116.36630055,0.20570954431854963,19.545883747132994
135.0,3559037434.7470922,153259863.43669394,0.2055086161124328,19.526573715733228
136.0,3931137351.9365973,169434324.67847082,0.2053226922343129,19.50871954500104
137.0,4342662346.081145,187408953.4084387,0.20515178418468769,19.492319075008115
138.0,4798261859.176299,207393350.68667623,0.20499589973444468,19.477370062112698
139.0,5303125587.502978,229614144.96699867,0.20485504296459914,19.463870181507485
140.0,5863032538.034601,254314592.4323667,0.2047292143423996,19.451817031041642
141.0,6484372345.214469,281754483.4829161,0.20461841073011283,19.441208132845087
142.0,7174172284.670194,312210153.8949434,0.2045226254622706,19.432040936528793
143.0,7940142421.539329,345975585.4011313,0.20444184836859708,19.42431282117663
144.0,8790684614.137651,383364549.98595905,0.2043760658121037,19.418021097003596
145.0,9734964936.162493,424713877.68058133,0.2043252607469573,19.41316300794417
146.0,10782948925.956718,470388411.5482992,0.20428941272033896,19.40973573225219
147.0,11945485953.200111,520786672.59912556,0.20426849794051702,19.407736384730484
148.0,13234422706.10121,576348290.5031983,0.20426248928279825,19.407162017494116
149.0,14662695630.396944,637562058.2701982,0.20427135632636503,19.40800962083331
150.0,16244529411.590616,704974891.9297142,0.20429506539296452,19.41027612461415
151.0,17995579742.942883,779202055.9362462,0.20433357954435233,19.413958397961927
152.0,19933173304.725433,860936830.7277846,0.20438685863962439,19.419053250589577
153.0,22076563957.91363,950961990.2018431,0.20445485932606228,19.425557432395827
154.0,24447170829.994457,1050160172.5205504,0.2045375350752775,19.433467633664815
155.0,27068958530.17401,1159525008.3757334,0.20463483620257783,19.44278048531574
156.0,29968701110.842937,1280172537.158899,0.20474670986278626,19.45349255781477
157.0,33176410481.260357,1413350953.6256716,0.20487310009547358,19.46560036166222
158.0,36725716890.81965,1560452408.0222328,0.2050139478038144,19.47910034592463
159.0,40654245656.31052,1723021931.9016616,0.205169190790021,19.49398889790291
160.0,45004164558.257835,1902767720.0931327,0.20533876375637164,19.510262342272625
161.0,49822509814.85644,2101570729.1875274,0.2055225983022974,19.527916939405248
162.0,55161799827.753494,2321492898.3558426,0.20572062295593896,19.546948885032904
163.0,61080462686.23227,2564788967.9226675,0.20593276314609069,19.56735430790072
164.0,67643345134.53485,2833916260.783867,0.2061589412353519,19.589129268974872
165.0,74922407349.92883,3131549976.135169,0.20639907650541972,19.612269759552692
166.0,82997107359.06305,3460600447.556677,0.2066530851578946,19.636771699187804
167.0,91955306385.58731,3824233622.49219,0.2069208803313216,19.66263093453873
168.0,101893811744.69087,4225899991.8388524,0.2072023720713296,19.689843236359813
169.0,112919263349.24191,4669363829.09664,0.20749746736001154,19.718404298303813
170.0,125149209435.09964,5158744036.067892,0.20780607008891672,19.74830973410383
171.0,138712884144.2959,5698557571.606243,0.20812808106541725,19.779555075297537
172.0,153752844934.59595,6293769971.317047,0.2084633980153447,19.812135769263744
173.0,170426011569.08563,6949856877.591571,0.20881191555608697,19.846047175793274
174.0,188905503958.20416,7672864024.773979,0.2091735252208758,19.88128456551831
175.0,209382548249.7002,8469484765.789839,0.20954811542374152,19.91784311630364
176.0,232068199667.78085,9347134508.098711,0.20993557147237168,19.955717910943353
177.0,257196299601.6574,10314036522.592237,0.21033577555758137,19.994903934401584
178.0,285025422363.69305,11379316840.86745,0.21074860673354961,20.035396070217956
179.0,315842330019.7889,12553093635.40538,0.2111739409357113,20.077189098559224
180.0,349965044663.4009,13846590200.403519,0.21161165094309903,20.120277692023027
181.0,387746052281.0876,15272233603.692951,0.21206160639714258,20.164656413415923
182.0,429577056173.5432,16843772752.392925,0.21252367378067152,20.210319712253163
183.0,475892043413.6017,18576398721.205276,0.21299771640856674,20.257261921247107
184.0,527172969931.07404,20486859694.69729,0.21348359443816864,20.305477253935997
185.0,583954056996.2682,22593607562.537964,0.21398116483531937,20.354959800183902
186.0,646826982091.1448,24916921944.52698,0.2144902813971461,20.40570352405233
187.0,716447748380.3749,27479073324.521236,0.21501079472477239,20.457702259673884
188.0,793541067660.6113,30304485783.79034,0.21554255222639573,20.510949708034317
189.0,878909113894.8547,33419909648.11301,0.21608539812026764,20.56543943413359
190.0,973437187357.9541,36854644089.85613,0.21663917340994068,20.621164862470945
191.0,1078102099695.7695,40640737621.85315,0.21720371590924806,20.67811927497923
192.0,1193981914450.5583,44813264886.72303,0.21777886021364518,20.736295806423843
193.0,1322262844993.3481,49410599847.60152,0.21836443771647182,20.795687441630896
194.0,1464252997914.7488,54474730681.72166,0.2189602766059202,20.856287012150347
195.0,1621390566600.5244,60051643809.77151,0.21956620185392464,20.918087191994672
196.0,1795258305041.1682,66191687217.25709,0.22018203524195912,20.98108049556235
197.0,1987597880203.0935,72950061822.06029,0.22080759533658537,21.045259272748748
198.0,2200322286663.2344,80387287346.06604,0.2214426975184194,21.110615706688964
199.0,2435537900610.799,88569760670.71375,0.2220871539759967,21.177141809918275
200.0,2695557583784.918,97570387849.78914,0.2227407737115547,21.244829420586672
201.0,2982925991467.191,107469193574.968,0.22340336256688179,21.31367020024748
202.0,3300440930757.057,118354121829.60693,0.22407472320923646,21.383655628909853
203.0,3651175988978.861,130321757336.44757,0.22475465517139898,21.45477700324268
204.0,4038515068812.1616,143478217192.19244,0.2254429548469139,21.527025432266345
205.0,4466173449090.838,157940087125.0324,0.2261394155147186,21.600391834187256
206.0,4938239913521.5205,173835346830.67532,0.2268438273655044,21.674866933888005
207.0,5459207427097.001,191304548063.81363,0.22755597750384274,21.750441258157714
208.0,6034011755961.804,210501837581.94418,0.22827564999759872,21.827105134185253
209.0,6668082503792.845,231596274889.02985,0.2290026258801748,21.90484868484279
210.0,7367375445119.68,254773125999.38766,0.22973668319472418,21.983661826176
211.0,8138438392397.23,280235210832.5478,0.23047759702324763,22.063534264422152
212.0,8988452632934.021,308204572900.7634,0.23122513950958637,22.144455491581386
213.0,9925295495286.4,338923925032.9332,0.23197907991739256,22.226414783957306
214.0,10957611167603.264,372658594783.1699,0.2327391846456351,22.309401197081538
215.0,12094859851421.7,409698340942.1983,0.23350521729217782,22.39340356377116
216.0,13347416224228.639,450359400408.3699,0.23427693868964367,22.478410490491573
217.0,14726623974362.064,494986914063.6854,0.23505410695268555,22.56441035333248
218.0,16244895805317.006,543957107698.7378,0.23583647754488585,22.651391296283283
219.0,17915807445352.516,597680275087.0747,0.23662380331414756,22.739341225822656
220.0,19754176230884.977,656603466244.5515,0.23741583457473342,22.828247809317816
221.0,21776204782600.285,721213732069.629,0.23821231915559082,22.918098470536226
222.0,23999555386914.547,792041764941.4977,0.23901300247399573,23.008880385976063
223.0,26443509680875.312,869665328060.9991,0.23981762761322997,23.100580482488308
224.0,29129091584797.22,954713881769.242,0.24062593538413665,23.193185431530217
225.0,32079198610219.668,1047872643331.4685,0.24143766442461748,23.286681647531644
226.0,35318808137930.984,1149887744610.9492,0.24225255126725995,23.381055282349337
227.0,38875085769337.58,1261571644292.553,0.24307033044003615,23.476292221780856
228.0,42777636147106.62,1383808490157.1514,0.24389073455843138,23.572378082092364
229.0,47058664905230.23,1517561102301.7603,0.24471349441780646,23.66929820387234
230.0,51753197140206.516,1663876988794.5435,0.24553833911022235,23.76703764988824
231.0,56899367015443.98,1823896255654.2925,0.2463649961183362,23.865581198252425
232.0,62538582917163.62,1998859347882.1948,0.24719319144244578,23.96491333884349
233.0,68715909241990.875,2190115176637.9873,0.24802264971222354,24.065018268274233
234.0,75480278302206.89,2399131177502.4233,0.24885309431230856,24.165879883203452
235.0,82884844733424.11,2627501949107.0317,0.24968424751720486,24.267481777160075
236.0,90987375259716.86,2876960900462.618,0.2505158306175969,24.36980723217088
237.0,99850506786027.33,3149390914126.7134,0.2513475640715818,24.47283921476036
238.0,109542320008741.42,3446836215509.1,0.252179167641199,24.576560368946154
239.0,120136576008573.08,3771516634237.535,0.2530103605523498,24.68095300857706
240.0,131713254409206.39,4125840000818.7324,0.253840861649912,24.78599911248342
241.0,144359148072764.72,4512417356081.942,0.25467038955619214,24.891680316114513
242.0,158168251769186.0,4934080092815.904,0.25549866284589945,24.997977903003786
243.0,173242320403590.7,5393895656480.968,0.25632540021848454,25.104872798877576
244.0,189691625032072.94,5895185676350.042,0.25715032067280574,25.212345562867558
245.0,207635484908637.16,6441547439269.167,0.2579731436992355,25.32037637718529
246.0,227202888893144.44,7036873483423.43,0.25879358946701925,25.428945040299396
247.0,248533404755787.66,7685373492205.96,0.259611379013993,25.538030957658055
