Time,J,A,S,tau
0.0,100.0,100.0,0.6271231522214537,24.390243902439025
1.0,130.93857196764478,121.48847570988941,0.6247217564309929,25.217121628185396
2.0,172.10254421465277,140.74378474955515,0.6221965707413454,26.059744700579323
3.0,221.85320536299025,157.97028026722896,0.6195636760246251,26.916669959102247
4.0,278.76035498679363,173.3588763665544,0.6168378776506417,27.786606698709324
5.0,341.5799975023425,187.08883760607344,0.6140329762825053,28.668336471790678
6.0,409.2351633742209,199.32674077376691,0.6111616713953266,29.560721203642885
7.0,480.7975282762351,210.22602218702912,0.6082355187752079,30.462707301028797
8.0,555.4704117382153,219.9269633155358,0.6052649285117786,31.373326707653145
9.0,632.5731333559892,228.55701143313522,0.6022591938723993,32.29169559278917
10.0,711.526382267343,236.2313950766992,0.5992265469815231,33.21701093917367
11.0,791.8398809681489,243.05378410513453,0.5961742191741595,34.14854670481216
12.0,873.1002560487382,249.1171982134177,0.5931085232554563,35.08564820889685
13.0,954.9610565438535,254.50484823418088,0.5900349300513501,36.02772685880582
14.0,1037.133798223143,259.2910003188543,0.5869581469157052,36.97425463764844
15.0,1119.3799102374905,263.54185115468744,0.5838821969205024,37.924758436475464
16.0,1201.503787552036,267.31635042650095,0.5808104931221221,38.87881466971764
17.0,1283.3468213172532,270.66695497578866,0.5777459066427475,39.836044302042815
18.0,1364.782080544668,273.64035343945426,0.5746908316464552,40.79610801692167
19.0,1445.7100250628246,276.27806730735807,0.5716472396174831,41.75870219849536
20.0,1526.0542872578412,278.61709778782466,0.5686167366185739,42.72355454780696
21.0,1605.758600603192,280.690397220083,0.5656006057910855,43.69042088560642
22.0,1684.7835022785737,282.5274296137114,0.5625998560553174,44.65908130251613
23.0,1763.1041765814905,284.1545303155729,0.5596152543188828,45.62933768277035
24.0,1840.7086851190245,285.59520134151944,0.5566473526765026,46.60101165596797
25.0,1917.5953449191036,286.8706255232545,0.5536965310680555,47.57394099778375
26.0,1993.7714415367996,287.99991713061866,0.5507630190039022,48.54797786783383
27.0,2069.252696988686,289.00019841303174,0.5478469055594116,49.52298822674013
28.0,2144.060952915219,289.88711723065984,0.5449481791050643,50.49884818019786
29.0,2218.2238802046745,290.6749093227903,0.5420667343864324,51.47544350299701
30.0,2291.774556688848,291.3764900624596,0.5392023833026198,52.45266886209054
31.0,2364.74963793889,292.0039074361404,0.5363548854561221,53.43042469856245
32.0,2437.1902669513643,292.56814225389775,0.5335239408521693,54.40861836060974
33.0,2509.1402113107606,293.07957724324746,0.5307092187551739,55.387160930776815
34.0,2580.646839416897,293.54781872780137,0.5279103533975934,56.3659681038779
35.0,2651.7595206603637,293.9820909676855,0.525126964788012,57.34495763509077
36.0,2722.5306281008234,294.3910999967541,0.522358659144567,58.3240497559069
37.0,2793.0142803157596,294.7833241087274,0.5196050407245056,59.30316546682124
38.0,2863.2673544666914,295.166960715887,0.5168657206142978,60.28222607500015
39.0,2933.348137481185,295.55012396601114,0.5141403166893823,61.26115257976644
40.0,3003.3178237875245,295.94088487162753,0.5114284751719893,62.2398638799283
41.0,3073.238895101496,296.34733191921737,0.5087298560597453,63.218277710668886
42.0,3143.177003572741,296.7777682844793,0.5060441687442657,64.19630712269857
43.0,3213.199184875094,297.24062240245337,0.5033711461071346,65.17386285551544
44.0,3283.376039870627,297.74477705521315,0.5007105885008725,66.15084854332633
45.0,3353.7799052888618,298.29940476480544,0.49806233596549715,67.12716357770225
46.0,3424.4871560476263,298.91433398320066,0.4954263101209186,68.10269817875832
47.0,3495.5766088167557,299.59994373753295,0.49280249782449725,69.07733518191539
48.0,3567.131604495635,300.3674190051307,0.49019097702955233,70.05094668868642
49.0,3639.239126426098,301.2288867258939,0.48759192847932253,71.02339265107354
50.0,3711.991117039925,302.1973757078443,0.485005629095008,71.99452127410986
51.0,3785.4850520567006,303.28741014756065,0.4824325107835389,72.96416180544706
52.0,3859.8237700236355,304.5145302463724,0.479873109488315,73.93213043056616
53.0,3935.117607016598,305.8961750589945,0.4773281520988027,74.89821934118036
54.0,4011.4846258576954,307.4514099449018,0.4747985270121388,75.86220003065084
55.0,4089.051076091588,309.20139200956277,0.47228532810788404,76.8238176221477
56.0,4167.954680908867,311.1697011573942,0.46978988530840127,77.78278640827612
57.0,4248.342781909283,313.3822931797491,0.46731375811037296,78.73879065161587
58.0,4330.377814415555,315.8683001631161,0.4648588113850857,79.69147411302177
59.0,4414.2364025560455,318.6598947889532,0.4624272005655394,80.64044176838021
60.0,4500.112316107925,321.79297088537675,0.4600214350487579,81.58525106265746
61.0,4588.220577540205,325.3076093297988,0.45764442098924657,82.52540560297184
62.0,4678.797719782529,329.24803909848,0.4552994562604406,83.4603555170077
63.0,4772.1071291201415,333.663452713607,0.4529903060994527,84.38948667240412
64.0,4868.442927496561,338.608367081321,0.45072123560900373,85.31211563286757
65.0,4968.134101763352,344.1428848333307,0.4484970329782825,86.22748583369773
66.0,5071.5492143476,350.3329972567529,0.44632303655052546,87.13476318516372
67.0,5179.1023225731005,357.25093658595114,0.4442051663144507,88.03303090901981
68.0,5291.2612373933225,364.9754399804145,0.4421499469146703,88.92128527130424
69.0,5408.552862422694,373.59140195594836,0.4401644737194171,89.79843941247903
70.0,5531.572753613857,383.1898799690494,0.43825641130546183,90.66332230715685
71.0,5660.993634501199,393.86750811920507,0.4364339367532737,91.51468544786476
72.0,5797.575330363424,405.72567419737055,0.4347056606382146,92.35121253920086
73.0,5942.175210174544,418.8693146537895,0.4330805122089557,93.17153417246708
74.0,6095.759189212654,433.4052880808429,0.4315675850700911,93.97424801432098
75.0,6259.413009801226,449.44030914136886,0.43017594177297513,94.757944844638
76.0,6434.353006924455,467.07847810962306,0.42891438064299103,95.52124002634551
77.0,6621.936364324603,486.4184690342475,0.42779117075033474,96.26280960083145
78.0,6823.670273780922,507.5504860379041,0.42681376532828985,96.98142961961148
79.0,7041.219443494565,530.5531465402868,0.4259885085274609,97.67601664326635
80.0,7276.411439138151,555.4904905151626,0.42532035415964764,98.34566679141761
81.0,7531.239406232962,582.4093386183979,0.4248126172945113,98.98969039803922
82.0,7807.861881807223,611.3372043604394,0.4244667778917929,99.60763952446072
83.0,8108.5996709781975,642.2809767764529,0.4242823567081809,100.1993254946475
84.0,8435.929180165234,675.2265897693975,0.4242568838219693,100.76482360800743
85.0,8792.473067118717,710.1396107846646,0.4243859533471022,101.3044657854465
86.0,9180.988763123485,746.9667419915561,0.42466336371929864,101.81882131237964
87.0,9604.355377401202,785.6381020189807,0.4250813312215094,102.3086674101005
88.0,10065.559680608298,826.07009399199,0.4256307585798365,102.77495220381488
89.0,10567.68185579071,868.1686279581116,0.4263015369373126,103.2187531459144
90.0,11113.881631371252,911.8324584846073,0.42708285881600133,103.64123403534104
91.0,11707.385331657677,956.9564247160134,0.42796352211995925,104.04360341132897
92.0,12351.473981211251,1003.4344055042699,0.42893220782172187,104.4270767682878
93.0,13049.472726840315,1051.1618459171543,0.42997771768583054,104.79284439084822
94.0,13804.7416866189,1100.037799164475,0.43108916679573256,105.14204551560682
95.0,14620.667973806982,1149.9664742651355,0.4322561299784908,105.47574889516102
96.0,15500.65866690903,1200.858311304515,0.4334687441458466,105.79493943460224
97.0,16448.134450881473,1252.630632023255,0.4347177709988635,106.10051024307487
98.0,17466.52363397013,1305.207928959306,0.43599462599530703,106.39325925301601
99.0,18559.25625284392,1358.5218710852628,0.4372913808061792,106.67388938551368
100.0,19729.757893616683,1412.5110719069871,0.4386007437520008,106.94301163608469
101.0,20981.443112294764,1467.1206869495732,0.439916024316092,107.20115024888871
102.0,22317.70827224437,1522.3019066963977,0.4412310879665505,107.44874912168251
103.0,23741.92329143446,1578.0114431614759,0.4425403102669604,107.68617818099723
104.0,25257.423108097246,1634.210871261399,0.4438385178410678,107.91374157863655
105.0,26867.497696471837,1690.8660852973674,0.4451209399453556,108.13168429708496
106.0,28575.380813338077,1747.9467342754735,0.44638315830411357,108.3401989705194
107.0,30384.236552401348,1805.4257113143506,0.4476210620577015,108.53943193382004
108.0,32297.147095566783,1863.2785537886152,0.44883079532707554,108.72949045406749
109.0,34313.8184095643,1925.0046292900074,0.4508733096538561,108.49277402762581
110.0,36377.67411089752,2124.5325252786092,0.46493255464790684,103.1017168263929
111.0,38525.971012906506,2821.878518494832,0.5062747653787236,88.19968280562978
112.0,41578.1506238323,4488.6864559622845,0.6046661538749994,56.1464192249979
113.0,47383.32390604934,5420.327163815548,0.6440921804301876,45.10660349552678
114.0,54694.77796368968,6046.698842132124,0.6605501556626672,40.47046093747068
115.0,63066.68271019492,6584.165532650463,0.669202464869865,37.75428254972485
116.0,72378.34024425453,7095.882151752366,0.6740535810286573,35.90549938489093
117.0,82606.52564066593,7609.827566152336,0.6766855589926412,34.53527979446779
118.0,93772.71414109298,8142.073817144222,0.677878831436605,33.46091861441009
119.0,105925.39035951692,8703.63944694486,0.6780745391153831,32.58315626555547
120.0,119132.73139457233,9303.078812553134,0.677546117404532,31.842570661328498
121.0,133479.18104591692,9947.62443163154,0.6764745551903422,31.201076439698735
122.0,149063.73768625598,10643.744719461069,0.6749854536055183,30.633054122799283
123.0,165998.9992800469,11397.438580845877,0.6731694501477524,30.12057662374405
124.0,184410.74503714702,12214.390409763986,0.6710936362334551,29.650788467538394
125.0,204437.3702169013,13100.060600334793,0.6688088982758983,29.214254169879023
126.0,226229.7785107386,14059.726869922755,0.6663544371762948,28.803954941362857
127.0,249950.79816529408,15098.507515849647,0.6637608879078191,28.41460833401511
128.0,275774.9811625167,16221.364539799053,0.6610524645036829,28.042206663186462
129.0,303887.88540447433,17433.100341301728,0.6582484576422738,27.68369944693062
130.0,334485.4764440639,18738.347254614833,0.655364385251045,27.33675370578913
131.0,367773.4729250548,20141.551878040897,0.6524128083453702,26.99958621951485
132.0,403966.2651602653,21646.957947683815,0.6494039647368497,26.670835601918125
133.0,443285.80709744775,23258.58753401588,0.6463462673829876,26.349463633325943
134.0,485960.49558949465,24980.219922910692,0.6432466824323212,26.034681641904157
135.0,532221.4389515093,26818.13277571222,0.6401110231246273,25.725894290218793
136.0,582265.0897713482,28945.45506949209,0.6369441944310994,25.422653973597416
137.0,636634.1673392564,32429.280347965912,0.633750375675264,25.12462718682101
138.0,699244.3930366931,38072.344602607875,0.6305331697883817,24.831567824815245
139.0,774957.7087750504,44924.07582601239,0.6272957215962813,24.54329634825634
140.0,866505.4327227051,52736.260519376934,0.6240408114287063,24.25968366664535
141.0,976105.5012195375,61474.39126305741,0.62077092916519,23.980638650933024
142.0,1105890.267857558,71172.15847776823,0.6174883328953492,23.706098446185834
143.0,1258051.276782148,81899.16063194282,0.6141950948537792,23.436021029158642
144.0,1434916.0533612568,93749.88286195397,0.6108931375428888,23.170379488022707
145.0,1639001.2124485013,106838.95741349828,0.6075842617567224,22.90915765167586
146.0,1873053.7253455627,121298.71058653817,0.6042701683087852,22.65234677035886
147.0,2140085.5988066746,137277.600776057,0.6009524746733005,22.399943010927025
148.0,2443402.4008684712,154938.99988833533,0.5976327276242072,22.15194559054978
149.0,2786628.3328289054,174459.99574970096,0.5943124126623495,21.90835538694684
150.0,3173724.7327818023,196030.14224436818,0.5909929609784903,21.66917393456585
151.0,3609003.302872695,219850.06807433645,0.5876757544261196,21.434402705081244
152.0,4097132.812547007,246129.92394314866,0.5843621289482622,21.204042605740668
153.0,4643140.398846975,275087.6171926938,0.5810533768387304,20.97809364140436
154.0,5252402.737146805,306946.9009781516,0.5777507482209648,20.75655470739677
155.0,5930632.324364475,341935.138044025,0.5744554516309239,20.539423464981088
156.0,6683840.467282285,380304.6592631124,0.5711686543643273,20.326696291250183
157.0,7518282.88708162,422985.5775549979,0.567891482448987,20.118368275035348
158.0,8443235.478352677,473877.59499105305,0.5646250201265209,19.91443323406515
159.0,9479460.330939459,536811.7301874092,0.561370309752585,19.71488377097701
160.0,10656357.029953139,614052.7388597168,0.5581283514209984,19.519711330002497
161.0,12008101.376159575,707571.6962353846,0.5549001026704204,19.328906258161048
162.0,13572757.945528755,819347.8139827102,0.5516864784054246,19.142457867305193
163.0,15392082.473339241,951478.7836205435,0.548488351015427,18.960354489991488
164.0,17511574.07056404,1106243.462755212,0.5453065507626036,18.782583527124014
165.0,19980668.787077993,1286144.725625813,0.5421418664868052,18.609131484193384
166.0,22853012.10798377,1493940.8101305526,0.5389950466734181,18.439983994747788
167.0,26186781.756374642,1732667.7527639247,0.5358668009038289,18.275125829326026
168.0,30045025.14267451,2005653.722889686,0.5327578017361417,18.114540889370335
169.0,34495990.98397941,2316525.1465333113,0.5296686870392172,17.95821218546588
170.0,39613438.780961424,2669204.459026553,0.5266000627779341,17.80612179931771
171.0,45476897.92306401,3067899.5048161456,0.5235525062808788,17.658250830144564
172.0,52171816.43697032,3517084.931478174,0.5205265700499557,17.51457932627655
173.0,59789677.42922933,4021474.6116938083,0.5175227859665001,17.375086200780686
174.0,68427914.18313238,4586140.665676035,0.514541670028227,17.239749134255135
175.0,78190012.69265999,5219179.457785679,0.5115837275970352,17.108544464226224
176.0,89195939.98062643,5937286.228568906,0.508649458952534,16.981447064701733
177.0,101604689.07173616,6763307.536923279,0.5057393653570627,16.858430213176618
178.0,115626169.39644374,7723419.664452867,0.5028539554729626,16.739465452440477
179.0,131526158.53148557,8846517.229382312,0.49999375205185853,16.624522444673573
180.0,149629358.59640262,10164102.637953166,0.497159298908075,16.513568821695877
181.0,170321811.09515756,11710357.316589048,0.49435116805905344,16.406570034010343
182.0,194053161.55172467,13522302.048822127,0.49156996697029376,16.303489200330706
183.0,221338983.11434668,15640000.229173427,0.4888163458275491,16.204286960173214
184.0,252763283.95113194,18106773.037169706,0.48609100474230976,16.10892133210166
185.0,288981207.0358483,20969402.88799315,0.4833947008117078,16.017347579786495
186.0,330721821.5719551,24278303.35640512,0.4807282549138056,15.92951808953909
187.0,378791055.7358036,28087639.566404376,0.4780925581404855,15.845382261072182
188.0,434074440.8298279,32455386.444640737,0.47548857778463915,15.764886414283664
189.0,497539926.900506,37443313.82155113,0.47291736275495916,15.687973714279876
190.0,570240089.0463955,43117105.905138046,0.4703800483530117,15.614584117138909
191.0,653314180.9935986,49550192.535465665,0.46787786027911094,15.544654339139116
192.0,748002704.088893,56836378.81901151,0.46541211789246134,15.478117848290612
193.0,855695424.0522877,65099463.264040366,0.46298423642018266,15.414904886687772
194.0,977996822.1979246,74496610.03483447,0.4605957282863445,15.354942517873296
195.0,1116794205.39348,85219950.69243231,0.45824820337190375,15.298154704578256
196.0,1274324545.5554972,97497724.07451317,0.4559433681880414,15.244462416807373
197.0,1453239044.3127193,111595351.13861491,0.4536830239322468,15.193783770854154
198.0,1656665841.2100124,127816604.67829408,0.45146906338707915,15.14603420018732
199.0,1888270968.8842697,146504952.10828218,0.44930346666479776,15.101126657906015
200.0,2152318392.3536787,168045079.53753233,0.4471882958092927,15.05897185030769
201.0,2453729885.2022862,192864574.71842584,0.445125688268687,15.0194785011684
202.0,2798145355.0856442,221435715.0451094,0.4431178492727754,14.982553645770642
203.0,3191984127.2099023,254277298.94232318,0.44116704316173305,14.948102953405405
204.0,3642507560.436737,291956450.835921,0.43927558372501724,14.916031076745275
205.0,4157883137.2861185,335090417.926708,0.4374458236210422,14.886242026159715
206.0,4747249638.331527,384350687.3342931,0.43568014295780205,14.858639566781125
207.0,5420791786.282175,440479149.8210479,0.4339809371228243,14.833127635880409
208.0,6189856099.062716,504318516.45494646,0.43235060396770586,14.809610777395546
209.0,7067138356.015016,576847314.525965,0.4307915304522383,14.787994590679116
210.0,8066947002.407882,659214980.2503623,0.4293060788592432,14.768186190119303
211.0,9205537874.727432,752776191.1520742,0.42789657269716247,14.750094672039879
212.0,10501514707.16713,859124481.7687825,0.4265652824110016,14.73363158508463
213.0,11976290855.191523,980125490.8288217,0.4253144110247096,14.718711400111683
214.0,13654609013.065277,1117950304.7139187,0.42414607983762975,14.70525197552421
215.0,15565117707.804659,1275109384.6894128,0.42306231429252283,14.693175014071063
216.0,17741007509.52515,1454487410.897928,0.42206503016731167,14.6824065059426
217.0,20220704223.00525,1659379465.0374885,0.42115602019010323,14.672877154372118
218.0,23048625210.8713,1893528796.5422888,0.4203369412036011,14.66452277944122
219.0,26276002416.184143,2161166339.521845,0.4196093019984989,14.657284695700309
220.0,29961776757.357586,2467052156.9992466,0.4189744519300996,14.651110059431428
221.0,34173568919.12707,2816521019.2561626,0.41843357042834084,14.645952181539677
222.0,38988738023.02167,3215543116.1058784,0.4179876575061087,14.641770802283235
223.0,44495568812.84854,3670814716.144667,0.4176375253589848,14.638532324488262
224.0,50794664337.54879,4189884095.9733944,0.4173837911449837,14.636210002250488
225.0,58000629549.64279,4781311820.175607,0.4172268710699336,14.634784081013105
226.0,66244110310.52454,5454863856.560677,0.4171669758002901,14.634241888206459
227.0,75674267846.13385,6221736025.562447,0.41720410728625446,14.634577872278918
228.0,86461752538.5795,7094808970.145746,0.4173380570467,14.635793588842754
229.0,98802241188.03902,8088933511.474122,0.4175684059545894,14.637897633333969
230.0,112920602188.69464,9221246880.855915,0.417894525547653,14.640905520219231
231.0,129075755206.76782,10511520843.490917,0.41831558087379783,14.644839509445648
232.0,147566289648.753,11982543301.960342,0.41883053485635047,14.649728381703689
233.0,168736934421.86154,13660535023.86144,0.4194381541661192,14.655607164322996
234.0,192985953486.30115,15575602732.088547,0.4201370165805844,14.662516809752912
235.0,220773533050.63553,17762231313.081875,0.42092551972400233,14.67050383126679
236.0,252631276807.49457,20259818488.175266,0.4218018911324427,14.679619899274977
237.0,289172906162.77155,23113264563.273735,0.42276419954551636,14.68992140268728
238.0,331106306178.82947,26373643532.05655,0.42381036731134103,14.701468980228793
239.0,379247127512.35516,30098987848.114822,0.4249381837753679,14.714327026992917
240.0,434534234121.54877,34355218395.670856,0.4261453195093088,14.728563181807647
241.0,498047336871.1352,39217249651.627144,0.42742934121965204,14.74424780124817
242.0,571027337342.1974,44770296258.759766,0.42878772718397695,14.761453425930876
243.0,654899787564.1415,51111406006.066605,0.4302178830348126,14.780254245029013
244.0,751302022388.5574,58351245712.136696,0.4317171577009001,14.800725565080523
245.0,862114620713.2915,66616163682.43294,0.43328285933707905,14.822943288432743
246.0,989497847437.5084,76050553438.52621,0.4349122710647546,14.846983406576674
247.0,1135933800590.1353,86819543690.25395,0.43660266635110195,14.872921513248375
248.0,1304275043808.8618,99112040019.00711,0.43835132386338743,14.900832341725726
249.0,1497800553951.1846,113144144327.93576,0.44015554164596155,14.930789330233386
