Time,J,A,S,tau
0.0,100.0,100.0,0.8313023177239346,27.027027027027028
1.0,99.87696139246772,36.819905825931045,0.8306969729309189,28.02618287362419
2.0,99.7578899211087,13.574655145634622,0.83010115700144,29.02541454877518
3.0,99.64237376003514,5.021792524876123,0.8295143091366118,30.024685283465676
4.0,99.53011480661313,1.8740366603467637,0.8289358986981897,31.023991383026793
5.0,99.4208384641151,0.7148149715529646,0.8283654104898637,32.02332948976346
6.0,99.31343081978089,0.28787424110593873,0.8278024238160328,33.022682416063056
7.0,99.20692689224363,0.13079635084070182,0.8272465195391142,34.02203534240198
8.0,99.1012670445697,0.07299471081854102,0.8266972087240284,35.021388268740886
9.0,98.99639331536844,0.05171450779841041,0.8261540156128748,36.020741195079786
10.0,98.8922492971199,0.04386979793074811,0.825616476655822,37.0200941214187
11.0,98.78878002097738,0.040967855531214924,0.8250841395735242,38.0194470477576
12.0,98.685931845377,0.03988433375908848,0.8245565624490787,39.01879997409651
13.0,98.58365234810691,0.03946994202792681,0.8240333128467444,40.01815290043542
14.0,98.48189022168445,0.03930176102781701,0.8235139669561589,41.01750582677433
15.0,98.38059517145489,0.039224338432650524,0.8229981087574838,42.01685875311324
16.0,98.2797178168134,0.03918022963073642,0.8224853292103319,43.01621167945215
17.0,98.17920958544171,0.039148206102483214,0.8219752253918026,44.01556460579106
18.0,98.07902266417321,0.03912129724688036,0.821467400052242,45.01491753212997
19.0,97.97910982127308,0.03909687104236222,0.8209614602248924,46.01427045846888
20.0,97.87942436814996,0.03907272855110961,0.8204570168978788,47.01362338480779
21.0,97.7799200890491,0.039048630575109655,0.8199536843325272,48.012976311146694
22.0,97.68055126443055,0.039024630168950365,0.819451080050031,49.0123292374856
23.0,97.58127222211965,0.039000808378344846,0.8189488219398434,50.01168216382451
24.0,97.48203758805573,0.03897713665992529,0.8184465296414951,51.01103509016342
25.0,97.3828021032011,0.038953420570149985,0.8179438224626826,52.010388016502326
26.0,97.28352049936466,0.03892945409969946,0.8174403195357308,53.00974094284124
27.0,97.18414751331052,0.03890511208928276,0.8169356398371519,54.00909386918015
28.0,97.08463767070693,0.03888073745818273,0.8164293993237577,55.008446795519056
29.0,96.98494529187452,0.03885678515564841,0.8159212117863488,56.007799721857964
30.0,96.88502450945352,0.03883304677220636,0.8154106889917389,57.00715264819687
31.0,96.78482873200119,0.038808975328960875,0.8148974355375,58.00650557453578
32.0,96.68431125841768,0.038784134497579885,0.8143810549390464,59.00585850087469
33.0,96.5834247344067,0.03875883942194749,0.8138611444015706,60.005211427213595
34.0,96.4821207993497,0.038733874452957034,0.8133372917036829,61.00456435355251
35.0,96.38035092417232,0.03870962562279651,0.8128090830391426,62.00391727989142
36.0,96.27806535691946,0.03868503927754048,0.8122760932490244,63.00327020623032
37.0,96.17521355593524,0.03865940071034484,0.8117378899462049,64.00262313256923
38.0,96.07174404507357,0.03863333981696557,0.8111940321766794,65.00197605890814
39.0,95.96760396094206,0.03860747606461332,0.8106440663956131,66.00132898524704
40.0,95.86217969991029,0.039018853806848636,0.810087583564656,67.0006725145756
41.0,95.75414465459086,0.040329397960692334,0.8095242272633719,67.99998527410298
42.0,95.64321425326479,0.04210743753570106,0.8089535318443674,68.99926336611848
43.0,95.5291194666918,0.04419351501081011,0.8083750166173873,69.99850316649541
44.0,95.41156842938327,0.0465417031901137,0.8077881884981768,70.9977006808942
45.0,95.29024365222627,0.04915075809746274,0.8071925413125018,71.99685149763494
46.0,95.16479891202069,0.05203741616217223,0.806587555116298,72.9959507348226
47.0,95.03485573501278,0.055227393289777785,0.8059726955166815,73.99499298029828
48.0,94.89999943640083,0.058752151149401216,0.8053474130069618,74.99397222369612
49.0,94.7597746486105,0.06264811667387747,0.8047111423181401,75.9928817793987
50.0,94.6136802558053,0.06695710156622926,0.8040633017894624,76.99171419890688
51.0,94.46116367571243,0.07172611578995187,0.8034032927730913,77.9904611715133
52.0,94.30161437435669,0.07700851828586663,0.8027304990731409,78.98911341122945
53.0,94.13435654743715,0.08286429655960931,0.8020442864386949,79.98766052869522
54.0,93.95864075178964,0.08936057506591705,0.8013440020980835,80.98609088422073
55.0,93.77363443407621,0.09657459909514629,0.8006289743708177,81.98439142087287
56.0,93.57841116194359,0.10459364493309108,0.7998985123625693,82.98254747404138
57.0,93.37193836959808,0.11351635245183152,0.7991519057596204,83.98054255401566
58.0,93.1530633976998,0.12345451840188784,0.7983884247418446,84.97835809748888
59.0,92.92049759988348,0.13453524155782834,0.7976073200396695,85.97597318372064
60.0,92.6727982306444,0.14690288648299338,0.7968078231595341,86.97336421002949
61.0,92.40834778808582,0.16072153771940356,0.795989146807113,87.97050452049487
62.0,92.1253304485184,0.17617780965595228,0.7951504855434549,88.96736398101982
63.0,91.82170517425578,0.19348406467547336,0.7942910167137077,89.9639084928304
64.0,91.495175016633,0.21288209877261252,0.7934099016939099,90.9600994353279
65.0,91.14315207034441,0.23464709934122982,0.7925062875079292,91.9558930279065
66.0,90.7627174415302,0.2590919511884813,0.7915793088736436,92.95123959852864
67.0,90.35057553464603,0.28657404686559484,0.7906280907471935,93.94608274564868
68.0,89.90300184920497,0.31750216050979774,0.7896517514424578,94.94035837780807
69.0,89.41578345035003,0.35234368973636865,0.7886494064121864,95.93399361452302
70.0,88.88415121060223,0.3916248352356137,0.7876201727871395,96.92690553051312
71.0,88.30270176640241,0.4359493089582225,0.7865631747939393,97.91899970433573
72.0,87.66530956205776,0.4860131320834423,0.7854775501607648,98.91016857577483
73.0,86.96502593823577,0.5425984214968959,0.784362457669571,99.90028955397734
74.0,86.19396429756048,0.6066114185041033,0.7832170860048386,100.88922285580124
75.0,85.34317038775055,0.6790716820307134,0.7820406640385403,101.87680905278387
76.0,84.40247320952805,0.761153104469233,0.7808324728375785,102.86286624029152
77.0,83.36031865032926,0.8541894791960859,0.7795918594227781,103.8471868622196
78.0,82.20357809143346,0.9596944556150808,0.7783182527521817,104.82953404204403
79.0,80.91733542057399,1.0794075230771907,0.7770111818729211,105.80963747724991
80.0,79.48464487630096,1.2152796129848125,0.7756702967564557,106.78718874739282
81.0,77.88626007514038,1.369561127444552,0.7742953919061607,107.76183603392226
82.0,76.10033212339293,1.544766846857366,0.7728864329526127,108.73317820045887
83.0,74.10206980815578,1.7437776921960242,0.7714435867763961,109.70075809002208
84.0,71.86336887125518,1.969829883304991,0.7699672547532439,110.66405515684468
85.0,69.35239610556899,2.2265694849596303,0.7684581101691589,111.62247714524943
86.0,66.53314222077832,2.518126991234017,0.7669171388374424,112.57535106460033
87.0,63.36493013082927,2.8490735449836735,0.7653456839138735,113.52191318126697
88.0,59.80189051998628,3.224596027455581,0.7637454939996169,114.46129823621953
89.0,55.79240607233325,3.650370045910837,0.7621187743843564,115.3925278860779
90.0,51.27852499868284,4.1327680267616085,0.7604682413012069,116.3144983552223
91.0,46.195370539968124,4.6787380548248185,0.7587971769571484,117.22596779002615
92.0,40.47053612656426,5.295898111790329,0.7571094860238977,118.12554307915218
93.0,34.023516306093626,5.992559294223259,0.7554097492937231,119.01166710430199
94.0,26.765168799306856,6.7775481089657434,0.7537032746635963,119.88260628734146
95.0,18.59726374053711,7.660427287929723,0.7519961404782551,120.73643953591439
96.0,9.412145167528099,8.65116163661336,0.7502952288391936,121.57104905085323
97.0,0.0,9.760100620543778,0.7486082442035642,122.38411401116728
98.0,0.0,10.997539005473822,0.7469437124581704,123.17310818180373
99.0,0.0,12.373903645799112,0.7453109557754429,123.9353024692751
100.0,0.0,13.899426099786654,0.7437200375028747,124.66777371772967
101.0,0.0,15.583503077360763,0.7421816717353147,125.36742099072292
102.0,0.0,17.434680624301794,0.7407070942594399,126.03099006848919
103.0,0.0,19.459843155331143,0.7393078903727762,126.65510735520503
104.0,0.0,36.01830547453732,0.7379957800215571,127.23632305979761
105.0,0.0,60.47797999329616,0.7367823610934824,127.77116374307161
106.0,0.0,87.17212117187026,0.7356788157386901,128.2561930930817
107.0,0.0,116.22907291248909,0.7346955882695622,128.68807928561773
108.0,0.0,147.76508185903816,0.7338420463127913,129.06366635299935
109.0,10.665352119386544,181.88082623630402,0.7331261402005693,129.38004631603798
110.0,89.90594038086014,218.65814984954332,0.7325540773966543,129.6346283656072
111.0,196.04987317428024,258.15718481198684,0.732130029519956,129.82520118637254
112.0,333.53767786815865,300.41403627477615,0.7318558888138746,129.94998465670912
113.0,507.235752148495,345.4391720141712,0.7317310882830783,130.0076677310653
114.0,722.4286294336574,393.21660920740254,0.7317524951327469,129.9974303223671
115.0,984.8023824497961,443.7039480684624,0.7319143834014652,129.9189479010338
116.0,1300.4191930046443,496.8332193450908,0.7322084838517728,129.77237922822022
117.0,1675.6830631078537,552.5124801089984,0.7326241062306421,129.55833840460508
118.0,2117.297198259913,610.6280334390335,0.7331483235076421,129.27785364178757
119.0,2632.2135172934913,671.0471163376199,0.7337662041912039,128.93231594481625
120.0,3227.5754065188817,733.6208880673621,0.7344610782950357,128.52342106646245
121.0,3910.6543412966753,798.187544158712,0.7352148204862528,128.05310843066817
122.0,4688.78133052542,864.5754208222959,0.7360081386459575,127.52349985332222
123.0,5569.274448932702,932.6059433956414,0.7368208540969053,126.93684109419272
124.0,6559.363084854751,1002.0963283304148,0.7376321646452229,126.2954482113498
125.0,7666.109659962414,1072.861977509306,0.7384208849238367,125.60165997707965
126.0,8932.344857463364,1083.055968752595,0.8152384416808354,32.01573017807583
127.0,10244.568387168794,1060.6513720297648,0.8300489669422576,25.17628479429281
128.0,11526.855712191096,1092.4250390439552,0.8366808272497813,21.999216769652623
129.0,12853.705082720286,1248.3006778244699,0.8401491922838344,19.992877881300934
130.0,14414.456763009443,1509.5932492368422,0.8418518015603024,18.56496392969003
131.0,16383.396576471712,1871.3929577919569,0.8423990008660606,17.4797846906185
132.0,18938.974647538,2333.31974477814,0.842117715378312,16.619544883160014
133.0,22270.10819305382,2897.168420753867,0.841205743163636,15.916969162724133
134.0,26579.117371344266,3565.8643102565647,0.8397930639141546,15.330072159528
135.0,32083.111083998745,4342.908710905455,0.837970386394946,14.8309475521514
136.0,39014.356356840166,5232.043644124989,0.8358040107436313,14.400154123205734
137.0,47619.98648247375,6237.022374437607,0.8333442243016268,14.023646813132498
138.0,58161.10253841247,7361.440046724871,0.8306303487345947,13.690984171169607
139.0,70914.20399456161,8605.329560079323,0.8276939324483503,13.394222740814117
140.0,86180.83932258234,9862.659600791068,0.8245608606458068,13.127201460949115
141.0,103988.4961831995,11107.387250491633,0.8212527718802003,12.885075271785128
142.0,124316.75046544467,12544.542905302787,0.8177881005823135,12.663971386834717
143.0,147602.5888653027,14411.812666201846,0.8141827711417223,12.460768795039803
144.0,174791.9616857983,16926.87582719083,0.8104507487369643,12.272925463322197
145.0,207323.2899668884,20306.12601967301,0.8066044376699811,12.098354442578591
146.0,247141.01300655227,24771.105887323203,0.8026549876536764,11.935330321233138
147.0,296717.41675487283,30550.918762507667,0.798612531063911,11.78241774088716
148.0,359074.37655612594,37882.697465880265,0.7944863689687733,11.63841610805068
149.0,437801.20985655097,47010.90622812739,0.7902851185869345,11.502316264211034
150.0,537065.1051279763,58185.8486245449,0.7860168312743572,11.37326621123516
151.0,661630.203858891,71625.72475648018,0.7816890877003976,11.250543697144622
152.0,816716.0817389574,87322.40502286765,0.777309074920358,11.133534160646672
153.0,1007343.2417040173,105352.46742832226,0.7728836492703407,11.021712817704122
154.0,1238696.9826676687,126327.07265483544,0.7684193877137052,10.914630038471374
155.0,1517472.4594504815,151396.43951708864,0.7639226297539609,10.81189933958309
156.0,1853179.8429096583,182217.69183140888,0.7593995117962253,10.713187447021454
157.0,2259380.045259153,220951.13384946666,0.7548559950697044,10.618206092940092
158.0,2754893.70505575,270262.4066677656,0.7502978883092659,10.526705162354505
159.0,3364977.6562513732,333322.6591855671,0.7457308660080183,10.438466970989078
160.0,4122447.793962434,413802.54260747595,0.7411604829457079,10.35330146806895
161.0,5068719.860996227,515854.96308644634,0.7365921855761558,10.27104220394752
162.0,6254758.638097031,643908.3569667913,0.7320313207590341,10.191542930962715
163.0,7741163.595264957,802199.940068463,0.7274831422419961,10.11467473165114
164.0,9597042.327235915,995339.2057618897,0.7229528152503283,10.040323586327506
165.0,11900843.264146043,1229648.9259421022,0.7184454194700356,9.968388308859769
166.0,14744647.806234049,1514398.2986857598,0.7139659506829884,9.898778792490244
167.0,18241462.733845428,1862916.3491571718,0.7095193212772722,9.831414516125221
168.0,22535099.614108548,2293624.6150848335,0.7051103598234003,9.766223270516006
169.0,27812270.028668743,2830985.239039701,0.7007438098934419,9.703140070113474
170.0,34316501.73345506,3506345.448598163,0.6964243282672141,9.64210622194866
171.0,42363425.470862955,4358645.728585162,0.6921564826540977,9.583068528380105
172.0,52356938.30371253,5434619.402291159,0.6879447490472717,9.525978603342818
173.0,64804298.90116728,6787959.402852908,0.6837935088086831,9.470792285227796
174.0,80327488.1104669,8479581.578928087,0.6797070455767708,9.417469132117999
175.0,99675106.5106428,10580926.369667284,0.6756895420774277,9.365971987043968
176.0,123742856.12998542,13179968.120345127,0.671745076898214,9.31626660344944
177.0,153608987.81219798,16389372.78412679,0.6678776212863341,9.268321322060787
178.0,190589318.87381282,20356362.621412616,0.6640910360186867,9.222106791771607
179.0,236314862.9521697,25273862.600977346,0.6603890683847331,9.177595728306915
180.0,292833698.75624543,31392478.290021997,0.6567753493266968,9.13476270512983
181.0,362737437.0287304,39032682.59392789,0.6532533907556649,9.093583972242557
182.0,449310646.1325395,48595412.725680456,0.6498265830671691,9.054037298955194
183.0,556696111.6951244,60570223.4596754,0.6464981928736608,9.016101837265175
184.0,690068697.1582841,75545709.05442719,0.6432713609618798,8.979758003029499
185.0,855824975.182554,94228510.27441253,0.6401491004935567,8.944987372375598
186.0,1061811826.2180517,117475389.40473448,0.6371342954463718,8.911772591346892
187.0,1317626248.3633082,146341214.99282357,0.63422969929142,8.88009729700277
188.0,1635023613.8482018,182144370.6151889,0.6314379339060404,8.849946048400659
189.0,2028472717.314662,226549964.53501496,0.6287614887112587,8.821304266155693
190.0,2515893064.8496222,281670017.83577025,0.626202720031944,8.794158179370768
191.0,3119606840.8036566,350177203.5507787,0.6237638506703476,8.768494778982927
192.0,3867524352.810548,435426162.627889,0.6214469696704026,8.744301776714156
193.0,4794565872.878298,541582795.2392796,0.6192540322624723,8.721567568870993
194.0,5944329152.680513,673774169.6810544,0.6171868599703506,8.700281204378888
195.0,7371044678.548094,838280238.6143914,0.6152471408649801,8.680432356470282
196.0,9141920320.556822,1042792469.1162777,0.6134364299590397,8.662011297555313
197.0,11340034042.340946,1296765643.914474,0.6117561497107711,8.645008876912266
198.0,14067992140.587687,1611887590.1895344,0.6102075906243222,8.6294165008271
199.0,17452624880.228542,2002688381.159553,0.6087919119295784,8.615226114891012
200.0,21651022323.097004,2487303881.574093,0.6075101423203225,8.602430188177168
201.0,26858244083.515606,3088397313.736219,0.6063631807523289,8.591021699051748
202.0,33317026566.06839,3834242782.8616643,0.6053517972712851,8.58099412247215
203.0,41329809984.63075,4759994356.739916,0.604476633859422,8.572341418590135
204.0,51273478453.03028,5909197989.131899,0.6037382052905048,8.565058022524939
205.0,63617334886.721695,7335642528.759992,0.6031368999746247,8.55913883518208
206.0,78945084949.16606,9105681163.058605,0.6026729808007135,8.554579214983171
207.0,97981945197.41362,11301188657.455257,0.6023465859579062,8.551374970468737
208.0,121628358899.44984,14023344641.062105,0.6021577297274636,8.549522353692673
209.0,151002272949.7534,17397446497.501904,0.6021063032441009,8.54901805435489
210.0,187492366580.31174,21578956192.449726,0.6021920752172252,8.549859194635697
211.0,232825021260.81134,26760980429.85014,0.6024146926223684,8.552043324660715
212.0,289148385255.98846,33183415622.433987,0.6027736813616821,8.555568418618744
213.0,359137291200.59607,41144071917.378685,0.603268446887252,8.560432871518657
214.0,446123607331.12384,51012221698.214806,0.603898274795709,8.566635496584965
215.0,554257709091.1912,63245205592.98464,0.6046623313948799,8.574175523316173
216.0,688708040260.9465,78408944361.43251,0.6055596642539486,8.583052596190175
217.0,855908315459.4896,97203450339.84572,0.6065892027521256,8.593266774079988
218.0,1063864220024.2986,120494708418.01883,0.607749758621836,8.604818530431533
219.0,1322534919850.395,149354538767.44754,0.6090400265018289,8.617708754254716
220.0,1644308733853.4717,185110311567.66782,0.6104585845090453,8.631938752012134
221.0,2044595764691.0786,229406664632.6035,0.6120038948407465,8.647510250460615
222.0,2542566672889.0986,284281719168.5135,0.6136743044319993,8.664425400556063
223.0,3162071819535.2334,352260903063.1481,0.6154680456662076,8.682686782560312
224.0,3932782412653.1284,436472235884.39935,0.6173832371561373,8.702297412477455
225.0,4891605176856.671,540787996387.1058,0.6194178846079382,8.72326074999061
226.0,6084431081025.099,669999079559.8113,0.6215698817775562,8.745580708067346
227.0,7568296281448.791,830029840431.2653,0.6238370115464681,8.76926166442889
228.0,9414050951629.756,1028203357389.6382,0.6262169471141771,8.79430847516076
229.0,11709653791703.094,1273569165066.5896,0.6287072533208294,8.820726490729774
230.0,14564239935856.232,1577307990099.3477,0.6313053881103154,8.848521574731512
231.0,18113137222539.504,1953231050732.7947,0.6340087041379464,8.877700125733249
232.0,22524047011258.168,2418394350162.2524,0.636814450542586,8.908269102581617
233.0,28004653700354.707,2993853001919.802,0.6397197748772478,8.940236053693134
234.0,34811973710524.23,3705585683931.685,0.642721725201078,8.973609150857122
235.0,43263823265253.5,4585625668664.431,0.6458172523347713,9.008397228164535
236.0,53752852028946.85,5673443392827.45,0.6490032122741807,9.044609826784221
237.0,66763668447170.33,7017634277902.866,0.6522763687672002,9.0822572463171
238.0,82893716658391.52,8677977868703.964,0.6556333960401909,9.121350603677836
239.0,102878661671289.38,10727948624881.586,0.6590708816610232,9.16190190054991
240.0,127623202539910.0,13257774055710.055,0.6625853295270622,9.203924100583835
241.0,158238402690460.38,16378155434650.998,0.6661731629585146,9.247431217722553
242.0,196086760349710.56,20224785502714.043,0.6698307278831725,9.29243841711377
243.0,242836562963114.22,24963821127188.305,0.6735542960850093,9.338962130353092
244.0,300527225201141.3,30798499793494.457,0.6773400684849108,9.387020187104334
245.0,371647608858268.44,37977118371671.44,0.6811841784235801,9.436631965333106
246.0,459229643261848.8,46802632194046.914,0.6850826949086258,9.48781856278271
247.0,566959687072474.5,57644174641703.984,0.6890316257904081,9.540602992577375
248.0,699310679274890.0,70950838847001.16,0.6930269208205009,9.595010406174467
249.0,861698296838208.0,87268131915026.69,0.6970644745406606,9.651068347606127
250.0,1060664733315048.2,107257565357729.2,0.7011401289513282,9.708807043261338
251.0,1304094196794931.5,131719914552159.31,0.7052496759009892,9.768259732140367
252.0,1601464279008181.0,161622750850651.06,0.7093888591376489,9.829463042103463
