Time,J,A,S,tau
0.0,100.0,100.0,0.7369108864276758,37.03703703703704
1.0,99.80299269921743,36.81749252706614,0.735794553154137,38.0363449421726
2.0,99.60778433098903,13.57288584469789,0.7346932278456433,39.03567030589856
3.0,99.41463998459314,5.021723506054301,0.7336061178031238,40.03499566962453
4.0,99.22345315783757,1.8759188567908323,0.7325324564033616,41.034321033350494
5.0,99.03412031897038,0.718611854571583,0.7314714975500817,42.03364639707646
6.0,98.84654074448088,0.29282654033022304,0.7304225145227108,43.03297176080242
7.0,98.6606163623773,0.1361501913657806,0.7293847988624406,44.03229712452838
8.0,98.47625160065783,0.07847267718780158,0.7283576592936178,45.03162248825438
9.0,98.29335324070217,0.05721477602521753,0.7273404206785564,46.03094785198036
10.0,98.11183027531172,0.049355100642508615,0.7263324230038728,47.03027321570632
11.0,97.93159377115663,0.04642465027517943,0.725333020396645,48.02959857943231
12.0,97.75255673537438,0.045307823577045804,0.7243415801686092,49.02892394315828
13.0,97.57463398604706,0.044858539938033966,0.7233574818864872,50.028249306884256
14.0,97.3977420261652,0.044655038387510025,0.7223801164657555,51.02757467061023
15.0,97.22179892229023,0.044542253599463795,0.7214088852958456,52.0269000343362
16.0,97.04672418023402,0.04446295455377934,0.7204431993459086,53.026225398062174
17.0,96.87243864134975,0.04439617957100282,0.7194824784065406,54.02555076178815
18.0,96.69886432807448,0.04433373395109686,0.718526150000937,55.024876125514126
19.0,96.52592446305424,0.044274498145116525,0.7175736494210209,56.024201489240106
20.0,96.35354315384518,0.04421609164447205,0.7166244175974456,57.023526852966086
21.0,96.18164539832387,0.044157531496157795,0.7156779010951969,58.02285221669206
22.0,96.01015704576129,0.04409904048558886,0.7147335516646883,59.02217758041803
23.0,95.83900481420443,0.04404080024027496,0.7137908262023065,60.02150294414401
24.0,95.66811551524565,0.043982962100568124,0.7128491822817085,61.020828307869984
25.0,95.49741679800594,0.0439253860242699,0.7119080819878643,62.020153671595956
26.0,95.32683686318995,0.04386771468558165,0.7109669897810419,63.019479035321936
27.0,95.15630391968041,0.04380958694023777,0.7100253701427167,64.01880439904791
28.0,94.98574629289067,0.04375092355002226,0.7090826879681269,65.01812976277388
29.0,94.81509264645078,0.043692483896795566,0.7081384086352716,66.01745512649985
30.0,94.64427161664021,0.043634504282737206,0.7071919968403837,67.01678049022583
31.0,94.47321171216116,0.043576361072481314,0.7062429149882112,68.01610585395181
32.0,94.30184129603093,0.043517774553777915,0.7052906235707249,69.01543121767779
33.0,94.13008870266927,0.04345857595900759,0.704334582324614,70.01475658140376
34.0,93.95788141333976,0.04339916965491695,0.7033742424511631,71.01408194512975
35.0,93.78514671378782,0.043340072169800604,0.7024090533066404,72.01340730885572
36.0,93.61181171708922,0.04328131379426325,0.7014384625097456,73.01273267258169
37.0,93.43780249909703,0.04322188694724485,0.7004619079873712,74.01205803630766
38.0,93.26304473120992,0.043161353832539974,0.6994788240904387,75.01138340003365
39.0,93.08746308369771,0.043100388770166434,0.6984886362782685,76.01070876375962
40.0,92.91098137965145,0.04303949895257609,0.6974907626699131,77.0100341274856
41.0,92.73352294607284,0.04297850244898138,0.6964846169622241,78.00935949121157
42.0,92.55500914666753,0.04291679418588398,0.6954695961233488,79.00868485493754
43.0,92.37536100120326,0.042853853813387965,0.6944450942143929,80.00801021866353
44.0,92.19449841838055,0.04278982901419076,0.6934104957462486,81.0073355823895
45.0,92.01233900161529,0.04272563606059816,0.6923651659582954,82.00666094611547
46.0,91.82880002988578,0.04266194384038318,0.6913084673793378,83.00598630984145
47.0,91.64379695093861,0.042597544291564496,0.6902397471354671,84.00531167356742
48.0,91.4572435130832,0.04253148844158192,0.6891583382906729,85.0046370372934
49.0,91.26905216357608,0.042464349207738304,0.6880635630391556,86.00396240101938
50.0,91.07913296571839,0.04239684826505426,0.6869547239233017,87.00328776474535
51.0,90.88739531108716,0.042328942486458784,0.685831117838929,88.00261312847132
52.0,90.69374522417766,0.04225998891983587,0.6846920139494762,89.0019384921973
53.0,90.49808769665108,0.042189516046212516,0.6835366729754518,90.00126385592327
54.0,90.30032614012894,0.0421175450380565,0.6823643424494545,91.00058921964924
55.0,90.10035992912061,0.04204483662162357,0.681174236873249,91.99991458337523
56.0,89.89808787263027,0.041972068461156774,0.6799655661346343,92.9992399471012
57.0,89.69340628289272,0.04189831580274424,0.6787375194386913,93.99856531082717
58.0,89.48620831877416,0.04182257240738103,0.677489260233421,94.99789067455315
59.0,89.27638567898396,0.04174512052814753,0.6762199398809232,95.99721603827912
60.0,89.06382610382944,0.04166672666561949,0.6749286773643185,96.99654140200509
61.0,88.84841642165493,0.04158756969878431,0.6736145841272243,97.99586676573107
62.0,88.6300391904734,0.041506943500173955,0.6722767365034862,98.99519212945704
63.0,88.40857448425763,0.041424368488475485,0.6709141906211968,99.99451749318301
64.0,88.18357598880795,0.0416316801638816,0.6695260157050655,100.99383755147355
65.0,87.9503591863524,0.04500144032359347,0.6681116332383041,101.99307756066048
66.0,87.70649975619227,0.05079379791563939,0.6666702369723302,102.99219929483405
67.0,87.45063775998825,0.058275730942817884,0.6652008992177377,103.99118173859996
68.0,87.18117892806619,0.06732935362004007,0.6637026875615052,104.98999984037036
69.0,86.8962487161655,0.07809124759332961,0.6621746685682363,105.98862369551824
70.0,86.59363689695014,0.09082865625207871,0.6606159123689443,106.98701755741071
71.0,86.27073073292016,0.1059014269351411,0.6590254983204125,107.98513863988944
72.0,85.92443446721904,0.12375589280988682,0.657402521952812,108.98293566860022
73.0,85.55107226079018,0.14493387132070132,0.6557461034637222,109.98034712711242
74.0,85.14627121703272,0.17008912145164426,0.6540553980681977,110.97729913405396
75.0,84.70482047246189,0.20000941079707182,0.6523296085732425,111.97370287442476
76.0,84.2205016183409,0.23564309249632312,0.650568000610751,112.96945149390433
77.0,83.68588484554714,0.27813170230465484,0.6487699210405853,113.96441634735979
78.0,83.09208427122128,0.32884891801798216,0.6469348201208277,114.95844247347583
79.0,82.42846489337208,0.3894468399046032,0.6450622781339664,115.95134314609582
80.0,81.68229255432662,0.46191070781049703,0.6431520372540775,116.9428933297938
81.0,80.83831725741582,0.548623150550432,0.6412040395339482,117.93282184374053
82.0,79.8782792783709,0.6524389895482829,0.6392184719728573,118.9208020158636
83.0,78.78032691481988,0.7767713986088038,0.6371958196799965,119.90644059166377
84.0,77.51833467859088,0.9256897826047824,0.6351369281522661,120.8892646534736
85.0,76.06111159549077,1.1040300137192849,0.63304307560768,121.8687063127561
86.0,74.48218677423317,1.718012020583834,0.6309160561734856,122.84408495627935
87.0,73.13288444715043,3.380910946181164,0.6287582739239447,123.81458698697686
88.0,71.95116001767228,5.3479546574428,0.6265728480455095,124.77924292003324
89.0,71.01534282104681,7.677157243084959,0.6243637272962033,125.73690213566451
90.0,70.42871972417889,10.436564702658291,0.6221358109520775,126.6862057820614
91.0,70.32666370360006,13.705472147943276,0.6198950716707735,127.625558688191
92.0,70.88553749156148,17.57555990167445,0.6176486725833525,128.55310181689745
93.0,72.33370058026728,22.151832341022367,0.6154050680524017,129.46668741826971
94.0,74.9649457465642,27.553206119732597,0.6131740740332878,130.36385983095045
95.0,79.15465373364637,33.912561195855595,0.6109668907784924,131.24184562540276
96.0,85.37881322647482,41.376027178098916,0.6087960566851559,132.0975577512997
97.0,94.23594638394472,50.10129768518454,0.6066753136865295,132.92761810493153
98.0,106.47179221101675,60.25476746792655,0.6046193646614815,133.728403078419
99.0,123.00594642832642,72.00737169444001,0.6026435103155832,134.49611536147748
100.0,144.9597391873521,85.52914724853795,0.6007631661099255,135.2268824242276
101.0,173.68383394586326,100.98269700866308,0.5989932741784783,135.91687922150382
102.0,210.78372447645216,118.51596342315156,0.5973476453647663,136.5624680630582
103.0,258.1412452495589,138.25490460880266,0.5958382845737359,137.16034461435578
104.0,317.93007938447687,160.29680270903867,0.5944747651037701,137.70767591020845
105.0,392.6236203983528,184.70495199528824,0.5932637202270845,138.20221535546858
106.0,484.9941405384733,211.5053540613817,0.5922085102119198,138.64238152279992
107.0,598.1030275328883,240.6858006655885,0.5913091013655147,139.02729201357363
108.0,735.2826486631012,272.19739161409984,0.5905621638062376,139.35675004639356
109.0,900.1113205386006,305.95822187849325,0.5899613667917026,139.6311876185266
110.0,1096.3829869600083,341.85870706349374,0.5894978256851361,139.8515746430534
111.0,1328.0738768084927,379.7678495745361,0.5891606392191138,140.01930709435328
112.0,1599.3078343499142,419.53980741814695,0.588937460905619,140.1360863652618
113.0,1914.3219034634633,461.02013318841784,0.5888150469510604,140.2038024634211
114.0,2277.4332019726853,504.05129761128336,0.5887797464529718,140.2244287867492
115.0,2693.0077310079537,548.4772254025349,0.5888179080839048,140.19993434155316
116.0,3165.4312024392066,594.1467662820291,0.5889161955113508,140.13221536092286
117.0,3699.0818584750477,640.9161357865119,0.5890618137043557,140.02304607021387
118.0,4298.304744844156,688.6504586398112,0.5892426567679618,139.87404643711648
119.0,4967.387421516134,737.2245385298365,0.5894473885703773,139.68666457832217
120.0,5710.53642737013,786.5230308097302,0.5896654701396314,139.4621708484789
121.0,6531.853554490163,836.4402489297713,0.589887154713884,139.20165907352785
122.0,7435.3133667693355,886.8795724385949,0.59010344736922,138.90605569531164
123.0,8424.739764795382,937.7527504280706,0.590306055076186,138.57613112564417
124.0,9503.781741918594,988.9791050395169,0.5904873271023457,138.21251337940177
125.0,10675.890524004904,1040.4846410566574,0.5906401869161336,137.81570374207388
126.0,11944.294785947846,1092.2012197713677,0.5907580694419863,137.3860914220694
127.0,13311.976239103116,1144.065753694221,0.5908348594124865,136.9239681396114
128.0,14781.646314516873,1196.0194332798003,0.5908648327465466,136.42954220328082
129.0,16355.719225754377,1248.0070785417881,0.5908426082194855,135.90295055067315
130.0,18036.28907407812,1299.976493585645,0.5907630994804639,135.34427084958725
131.0,19825.111071967203,1351.8778988736797,0.5906214730867577,134.75353229237237
132.0,21723.57459137266,1403.663528976954,0.5904131199992455,134.13072383738898
133.0,23732.66011112706,1455.287186393101,0.5901336307721377,133.47580251122304
134.0,25842.693901802675,1503.2858930217196,0.7176918275562152,36.46881650536198
135.0,28045.156271888965,1652.1195978419862,0.7291014140806101,31.87431801284858
136.0,30528.39607859422,1877.9487974732408,0.7332625206889747,29.52077668550668
137.0,33439.94746885157,2179.5330744858898,0.7347927216884188,27.91941190684748
138.0,36932.06582409854,2560.494929489594,0.7349678146665473,26.693117365029554
139.0,41169.80165273764,3025.620702201915,0.7343342691027505,25.689026878660275
140.0,46333.012104170004,3579.875968670271,0.7331778795172552,24.83059138652193
141.0,52616.41389100875,4227.983576099309,0.7316664444434308,24.074485407706838
142.0,60228.76709759373,4974.187123073537,0.7299061365404365,23.394139105553144
143.0,69391.27941404493,5822.106790161978,0.7279676910474864,22.772303837265813
144.0,80335.70439666133,6774.640988319572,0.7258999918614014,22.197294283467876
145.0,93301.8604810827,7833.906685537475,0.7237377497014231,21.66092019846923
146.0,108534.9810018235,9001.202810575567,0.7215061281983272,21.157272716326375
147.0,126282.74682479714,10276.9941616855,0.7192236593031663,20.681980539622767
148.0,146792.19285207507,11660.911014779876,0.7169041657293466,20.231733469357927
149.0,170306.5112539465,13151.761804843329,0.7145580640687105,19.803969074923863
150.0,197061.78142923015,14747.55636800212,0.712193270516387,19.39666162401259
151.0,227283.80803646374,16445.539035200243,0.7098158473778361,19.008176144347143
152.0,261185.57591503224,18241.46633175906,0.7074304646659896,18.637167732873078
153.0,298937.6358962506,20145.114185764705,0.7050407458256146,18.282508281607573
154.0,340776.5646338113,22394.9033382752,0.7026495180989717,17.943235008344388
155.0,387546.7206860497,25219.96995699027,0.7002590048248304,17.61851288858776
156.0,440645.14432332356,28845.524719018376,0.6978709700928528,17.307606791384504
157.0,502024.37791836204,33506.89719807409,0.6954868302792235,17.009860872241436
158.0,574216.6706436923,39448.79726164654,0.6931077406473761,16.724683109600267
159.0,660351.1602710853,46921.58511336164,0.6907346634014909,16.451533587622382
160.0,764157.2110058854,56176.42794020885,0.6883684218099767,16.189915508815943
161.0,889951.4088732281,67460.06860250642,0.6860097437184213,15.939368235786915
162.0,1042607.04059846,81009.61921453955,0.6836592970034377,15.699461842653553
163.0,1227506.4201883732,97047.63931170522,0.6813177188068171,15.469792804712922
164.0,1450478.8491874884,115777.66443862552,0.6789856398226726,15.249980533432122
165.0,1717723.3557404703,137380.34373251468,0.6766637048339835,15.039664573738108
166.0,2035720.8654315358,162010.20321809183,0.6743525901529221,14.838502319396472
167.0,2411139.2649058388,189790.48779410127,0.6720530184827966,14.646167097318832
168.0,2850684.068858355,220863.1397672324,0.6697657716607548,14.462346584110088
169.0,3361248.5496324375,255927.033880777,0.6674917017681438,14.286741465552144
170.0,3951586.628315017,296359.2826013525,0.6652317402649297,14.11906427811465
171.0,4634032.193389589,344142.02594607876,0.6629869060059991,13.959038439249156
172.0,5426013.168347056,401841.2688343363,0.6607583118174652,13.806397397075445
173.0,6351474.671808925,472576.1670551955,0.658547169748377,13.660883899825572
174.0,7442138.462985985,559969.4670198512,0.6563547950935813,13.522249355212686
175.0,8738582.270778155,668079.9890820393,0.6541826092812575,13.39025328319721
176.0,10291048.760902705,801318.968406142,0.6520321414374279,13.264662829018675
177.0,12159984.60651211,964355.5350285502,0.6499050289576536,13.145252354243357
178.0,14416260.886296125,1162014.563679997,0.6478030166849444,13.031803071064164
179.0,17141076.13254116,1399172.4767047453,0.6457279551670495,12.924102741433689
180.0,20425568.570314568,1680652.0865165682,0.6436817975269193,12.82194541115177
181.0,24370064.43648387,2011169.9337716023,0.641666595419343,12.725131196118758
182.0,29083325.88162089,2396241.534212442,0.6396844936945395,12.633466100370168
183.0,34684917.25964695,2843887.5780324396,0.6377377241276198,12.546761874258594
184.0,41312141.57750778,3366016.0576947094,0.635828598010503,12.464835903652544
185.0,49130275.20248442,3979563.351402805,0.6339594978063631,12.387511128264208
186.0,58345546.62104126,4707413.724241143,0.6321328678510847,12.314615990910884
187.0,69219837.25469929,5579063.588688881,0.6303512041661681,12.245984406190022
188.0,82086632.69549464,6631020.787340895,0.628617043503881,12.181455759543274
189.0,97367043.77808416,7906915.238431105,0.6269329516250891,12.120874917669244
190.0,115585473.52233316,9457352.718161378,0.6253015109788882,12.064092267425117
191.0,137383920.5697976,11339507.392944999,0.6237253078081917,12.010963760129085
192.0,163534469.37276065,13616514.51466556,0.6222069188128531,11.961350980340615
193.0,194949545.24307156,16356680.15667822,0.6207488974799298,11.915121216559815
194.0,232689157.22293675,19633552.747069407,0.6193537601362978,11.872147550104721
195.0,277969408.5129733,23529142.177823003,0.6180239719146555,11.832308944591187
196.0,332180329.65716773,28140170.609400593,0.6167619326451532,11.795490345486686
197.0,396921912.5745158,33586326.60603499,0.6155699628734356,11.761582780486577
198.0,474060873.55036867,40019827.05814247,0.6144502900615637,11.730483460770829
199.0,565812906.6551085,47635616.60222114,0.6134050350752457,11.70209588411742
200.0,674848049.2644954,56681548.45938103,0.6124361991602161,11.6763299294842
201.0,804421218.4825158,67468061.04571491,0.611545651313415,11.65310195445147
202.0,958521742.4963355,80376732.15915784,0.610735116472702,11.632334875569045
203.0,1142041699.0099437,95867548.18696882,0.6100061641813326,11.613958251539357
204.0,1360955577.626767,114484343.38336746,0.6093601983765795,11.597908342860821
205.0,1622508191.2899294,136858632.44819945,0.6087984477493634,11.584128172133614
206.0,1935405871.3545156,163712986.5661125,0.6083219574488035,11.572567557676733
207.0,2310009265.5741644,195869626.04159042,0.6079315815114724,11.563183142998154
208.0,2758550274.0476956,234268896.38932022,0.6076279767356133,11.555938399842674
209.0,3295391700.7436094,280000867.8788835,0.607411597494888,11.550803620306407
210.0,3937378592.0932593,334350860.2366019,0.6072826919799605,11.547755885426684
211.0,4704297754.879795,398859127.63384306,0.6072412996272645,11.546779015307084
212.0,5619503468.827119,475393381.95469874,0.6072872498679199,11.547863500151003
213.0,6710709431.2372875,566232068.8238261,0.6074201623006242,11.551006405916176
214.0,8011002585.409392,674156283.0146097,0.6076394480249737,11.556211265662329
215.0,9560057411.536514,802546340.0333304,0.6079443125745524,11.563487940563476
216.0,11405592644.091743,955481516.9261576,0.6083337598414404,11.57285247059417
217.0,13605036146.167284,1137837570.8995223,0.608806597665921,11.584326893069358
218.0,16227408998.528238,1355384633.9581983,0.6093614442818885,11.59793905303035
219.0,19355414357.89076,1614888773.098807,0.6099967363442445,11.613722383545316
220.0,23087726776.383133,1924235466.0939376,0.6107107377294634,11.63171567798162
221.0,27541583368.09468,2292587550.7035303,0.6115015496915202,11.651962837645687
222.0,32855690471.5992,2730599435.6789207,0.6123671217364699,11.674512610362173
223.0,39193712619.14094,3250698716.56394,0.6133052635315724,11.699418311848019
224.0,46748346335.02301,3867451028.5813336,0.614313657461089,11.726737537103055
225.0,55746399135.77473,4598013725.385155,0.6153898718583773,11.756531862516953
226.0,66454815458.20905,5462682085.837402,0.6165313747602306,11.788866538183001
227.0,79188165505.26553,6485528796.02479,0.6177355479888154,11.823810178143901
228.0,94317450210.22543,7695124020.736234,0.618999701562876,11.861434442748083
229.0,112280720210.02083,9125336551.39902,0.620321088128287,11.901813724637238
230.0,133595320075.08107,10816186316.797615,0.6216969174622,11.945024830600502
231.0,158872051460.80096,12814763984.418232,0.6231243707410583,11.991146670906081
232.0,188831209667.52682,15176195098.32102,0.6246006145908541,12.040259949698001
233.0,224320448614.77982,17964706039.54281,0.6261228146910615,12.092446865180765
234.0,266334920264.01578,21254793999.10608,0.6276881488787854,12.147790816479215
235.0,316039264166.3069,25132590554.76067,0.6292938196207029,12.206376121859389
236.0,374792714080.5221,29697440077.388237,0.6309370657590063,12.268287748502644
237.0,444176440291.4265,35063784952.304436,0.6326151734482885,12.333611055167625
238.0,526025357848.3455,41363386863.173904,0.6343254862230367,12.402431549811467
239.0,622462978318.9254,48747940159.33364,0.6360654140899248,12.474834661883218
240.0,735942309284.9469,57392111138.47168,0.6378324416936474,12.550905531265652
241.0,869290998310.9608,67496982133.04708,0.639624135363651,12.630728813960133
242.0,1025763585269.4113,79293952643.71004,0.6414381492570542,12.714388504411708
243.0,1209098762284.8704,93048982748.91086,0.643272230314289,12.801967776052154
244.0,1423585469957.8936,109067178581.56119,0.6451242222445711,12.893548839628947
245.0,1674133396880.5806,127697713336.053,0.646992068535076,12.98921281772118
246.0,1966350657059.8035,149338914230.3907,0.648873814323887,13.08903963887836
247.0,2306628733533.358,174443642672.86115,0.6507676074607711,13.193107947250969
248.0,2702229902366.672,203524899621.46475,0.6526716985945257,13.30149502949392
