Time,J,A,S,tau
0,100,100,0.819716811,2.247191011
1,0,514.1228908,0.829981829,1.941727377
2,290.9673933,804.6204901,0.83746546,1.721401396
3,791.5554387,1066.100736,0.83746218,1.721490996
4,1358.098018,1571.728106,0.837456394,1.721649107
5,2226.502237,2212.42212,0.837448102,1.721875697
6,3396.301327,3160.133761,0.837437306,1.722170719
7,5063.444511,4502.2706,0.83742401,1.722534117
8,7425.752577,6417.177087,0.837408217,1.722965825
9,10790.50641,9155.392095,0.837389932,1.723465764
10,15603.16811,13067.29444,0.837369158,1.724033847
11,22499.48931,18666.41955,0.837345901,1.724669973
12,32406.2517,26686.0651,0.837320167,1.725374033
13,46663.82174,38186.61255,0.837291963,1.726145905
14,67221.2525,54698.67537,0.837261295,1.726985457
15,96915.4928,78436.72402,0.83722817,1.727892545
16,139884.6146,112610.192,0.837192598,1.728867015
17,202177.3534,161878.4586,0.837154586,1.729908702
18,292653.3241,233018.8658,0.837114145,1.731017427
19,424318.5758,335908.404,0.837071283,1.732193004
20,616307.7627,484970.3823,0.837026012,1.733435233
21,896838.8941,701310.6891,0.836978343,1.734743901
22,1307621.555,1015880.598,0.836928287,1.736118786
23,1910460.407,1474169.065,0.836875856,1.737559655
24,2797162.101,2143184.561,0.836821064,1.73906626
25,4104448.681,3121864.35,0.836763923,1.740638343
26,6036465.052,4556642.016,0.836704448,1.742275635
27,8898830.362,6664779.395,0.836642653,1.743977854
28,13150342.95,9769442.044,0.836578553,1.745744704
29,19481624.34,14352560.62,0.836512164,1.747575879
30,28935252.76,21134723.17,0.836443502,1.749471061
31,43089558.02,31196272.23,0.836372584,1.751429917
32,64341027.64,46161338.1,0.836299428,1.753452103
33,96339079.44,68478433.63,0.83622405,1.755537263
34,144657973.9,101849338.1,0.836146471,1.757685026
35,217838079.8,151886923.8,0.836066708,1.759895009
36,329004448.7,227126697.2,0.835984782,1.762166816
37,498392106.8,340587652.4,0.835900713,1.764500038
38,757295187.4,512187470.3,0.83581452,1.766894251
39,1154269519,772491986.6,0.835726227,1.769349019
40,1764894832,1168554406,0.835635854,1.771863893
41,2707207597,1773036715,0.835543424,1.774438407
42,4166155213,2698508050,0.83544896,1.777072084
43,6432503502,4119922534,0.835352485,1.779764431
44,9964921339,6310087387,0.835254023,1.782514943
45,15489390814,9695787183,0.8351536,1.785323098
46,24158929203,14946931724,0.835051239,1.788188361
47,37811191566,23118561974,0.834946967,1.791110183
48,59385063010,35877913817,0.83484081,1.794087997
49,93596992998,55868618922,0.834732794,1.797121225
50,1.48043E+11,87296914278,0.834622947,1.800209272
51,2.34999E+11,1.36878E+11,0.834511297,1.803351528
52,3.74375E+11,2.15372E+11,0.83439787,1.806547367
53,5.98578E+11,3.40077E+11,0.834282698,1.809796149
54,9.60543E+11,5.38899E+11,0.834165807,1.813097217
55,1.54704E+12,8.57022E+11,0.834047229,1.8164499
56,2.50084E+12,1.36786E+12,0.833926993,1.81985351
57,4.05761E+12,2.19111E+12,0.833805131,1.823307343
58,6.60787E+12,3.52263E+12,0.833681673,1.82681068
59,1.0801E+13,5.68403E+12,0.833556651,1.830362785
60,1.77207E+13,9.20534E+12,0.833430097,1.833962906
61,2.91817E+13,1.49631E+13,0.833302043,1.837610275
62,4.82345E+13,2.4412E+13,0.833172524,1.841304108
63,8.0024E+13,3.9975E+13,0.833041572,1.845043603
64,1.33259E+14,6.57021E+13,0.832909221,1.848827944
65,2.22732E+14,1.08387E+14,0.832775506,1.852656296
66,3.73662E+14,1.79464E+14,0.832640462,1.856527808
67,6.29186E+14,2.9825E+14,0.832504123,1.860441615
68,1.06335E+15,4.97492E+14,0.832366526,1.864396831
69,1.80372E+15,8.32891E+14,0.832227707,1.868392556
70,3.07075E+15,1.39953E+15,0.832087701,1.872427873
71,5.24683E+15,2.36028E+15,0.831946546,1.876501847
72,8.9974E+15,3.99507E+15,0.83180428,1.880613528
73,1.55E+16,6.7867E+15,0.83166094,1.884761949
74,2.67E+16,1.16E+16,0.831516563,1.888946123
75,4.64E+16,1.98E+16,0.831371189,1.893165052
76,8.06E+16,3.40E+16,0.831224856,1.897417716
77,1.41E+17,5.86E+16,0.831077603,1.901703081
78,2.46E+17,1.01E+17,0.830929469,1.906020096
79,4.33E+17,1.76E+17,0.830780495,1.910367695
80,7.64E+17,3.06E+17,0.83063072,1.914744791
81,1.35E+18,5.35E+17,0.830480185,1.919150286
82,2.40E+18,9.37E+17,0.83032893,1.923583063
83,4.27E+18,1.65E+18,0.830176997,1.928041989
84,7.63E+18,2.91E+18,0.830024426,1.932525915
85,1.37E+19,5.15E+18,0.829871259,1.937033677
86,2.46E+19,9.15E+18,0.829717537,1.941564094
87,4.43E+19,1.63E+19,0.829563303,1.94611597
88,8.02E+19,2.91E+19,0.8294086,1.950688094
89,1.45E+20,5.23E+19,0.829253468,1.955279239
90,2.65E+20,9.40E+19,0.829097952,1.959888164
91,4.83E+20,1.70E+20,0.828942093,1.964513613
92,8.84E+20,3.07E+20,0.828785935,1.969154313
93,1.62E+21,5.56E+20,0.828629521,1.973808981
94,2.98E+21,1.01E+21,0.828472895,1.978476316
95,5.50E+21,1.85E+21,0.8283161,1.983155005
96,1.02E+22,3.38E+21,0.828159179,1.987843721
97,1.89E+22,6.20E+21,0.828002177,1.992541123
98,3.51E+22,1.14E+22,0.827845138,1.997245859
99,6.54E+22,2.10E+22,0.827688106,2.001956562
100,1.22E+23,3.89E+22,0.827531124,2.006671853
101,2.29E+23,7.20E+22,0.827374237,2.011390341
102,4.29E+23,1.34E+23,0.82721749,2.016110625
103,8.07E+23,2.49E+23,0.827060928,2.02083129
104,1.52E+24,4.65E+23,0.826904594,2.025550912
105,2.87E+24,8.70E+23,0.826748533,2.030268053
106,5.43E+24,1.63E+24,0.826592791,2.034981269
107,1.03E+25,3.06E+24,0.826437411,2.039689102
108,1.96E+25,5.76E+24,0.82628244,2.044390087
109,3.72E+25,1.09E+25,0.82612792,2.04908275
110,7.10E+25,2.05E+25,0.825973899,2.053765605
111,1.35E+26,3.89E+25,0.825820419,2.058437162
112,2.59E+26,7.38E+25,0.825667528,2.063095919
113,4.97E+26,1.40E+26,0.825515268,2.067740368
114,9.53E+26,2.67E+26,0.825363686,2.072368996
115,1.83E+27,5.08E+26,0.825212827,2.076980279
116,3.52E+27,9.71E+26,0.825062734,2.081572691
117,6.79E+27,1.86E+27,0.824913455,2.086144698
118,1.31E+28,3.56E+27,0.824765033,2.090694761
119,2.53E+28,6.82E+27,0.824617513,2.095221336
120,4.90E+28,1.31E+28,0.824470941,2.099722875
121,9.49E+28,2.52E+28,0.824325362,2.104197827
122,1.84E+29,4.85E+28,0.82418082,2.108644636
123,3.57E+29,9.35E+28,0.824037361,2.113061744
124,6.94E+29,1.81E+29,0.823895029,2.117447591
125,1.35E+30,3.49E+29,0.82375387,2.121800615
126,2.63E+30,6.75E+29,0.823613929,2.126119253
127,5.12E+30,1.31E+30,0.82347525,2.130401941
128,9.97E+30,2.53E+30,0.823337879,2.134647115
129,1.95E+31,4.91E+30,0.82320186,2.138853212
130,3.80E+31,9.54E+30,0.823067238,2.143018669
131,7.43E+31,1.85E+31,0.822934058,2.147141927
132,1.45E+32,3.61E+31,0.822802365,2.151221426
133,2.84E+32,7.02E+31,0.822672203,2.155255613
134,5.57E+32,1.37E+32,0.822543618,2.159242935
135,1.09E+33,2.67E+32,0.822416653,2.163181847
136,2.14E+33,5.20E+32,0.822291354,2.167070805
137,4.19E+33,1.02E+33,0.822167765,2.170908275
138,8.22E+33,1.98E+33,0.82204593,2.174692727
139,1.61E+34,3.87E+33,0.821925893,2.17842264
140,3.17E+34,7.57E+33,0.821807699,2.182096499
141,6.22E+34,1.48E+34,0.821691392,2.1857128
142,1.22E+35,2.90E+34,0.821577016,2.189270049
143,2.40E+35,5.67E+34,0.821464613,2.192766762
144,4.72E+35,1.11E+35,0.821354229,2.196201467
145,9.27E+35,2.18E+35,0.821245906,2.199572705
146,1.82E+36,4.26E+35,0.821139688,2.202879029
147,3.59E+36,8.36E+35,0.821035616,2.206119009
148,7.06E+36,1.64E+36,0.820933734,2.20929123
149,1.39E+37,3.21E+36,0.820834084,2.212394293
150,2.73E+37,6.31E+36,0.820736708,2.215426817
151,5.37E+37,1.24E+37,0.820641647,2.218387441
152,1.06E+38,2.43E+37,0.820548943,2.221274823
153,2.08E+38,4.77E+37,0.820458635,2.224087643
154,4.10E+38,9.36E+37,0.820370764,2.226824603
155,8.06E+38,1.84E+38,0.820285369,2.229484428
156,1.59E+39,3.61E+38,0.82020249,2.23206587
157,3.12E+39,7.09E+38,0.820122165,2.234567706
158,6.15E+39,1.39E+39,0.820044431,2.23698874
159,1.21E+40,2.73E+39,0.819969325,2.239327806
160,2.38E+40,5.37E+39,0.819896883,2.241583765
161,4.69E+40,1.06E+40,0.81982714,2.243755514
162,9.23E+40,2.07E+40,0.819760131,2.245841979
163,1.82E+41,4.08E+40,0.819695889,2.24784212
164,3.58E+41,8.01E+40,0.819634447,2.249754935
165,7.04E+41,1.57E+41,0.819575835,2.251579455
166,1.39E+42,3.09E+41,0.819520085,2.253314751
167,2.73E+42,6.08E+41,0.819467224,2.254959932
168,5.36E+42,1.19E+42,0.819417282,2.256514147
169,1.06E+43,2.35E+42,0.819370284,2.257976587
170,2.08E+43,4.62E+42,0.819326256,2.259346485
171,4.09E+43,9.07E+42,0.819285221,2.260623118
172,8.04E+43,1.78E+43,0.819247203,2.261805807
173,1.58E+44,3.51E+43,0.819212222,2.262893919
174,3.11E+44,6.89E+43,0.819180298,2.263886867
175,6.12E+44,1.35E+44,0.819151448,2.264784114
176,1.20E+45,2.66E+44,0.81912569,2.265585167
177,2.37E+45,5.24E+44,0.819103037,2.266289587
178,4.66E+45,1.03E+45,0.819083504,2.266896981
179,9.16E+45,2.02E+45,0.819067101,2.267407008
180,1.80E+46,3.98E+45,0.819053838,2.267819379
181,3.54E+46,7.82E+45,0.819043723,2.268133856
182,6.97E+46,1.54E+46,0.819036763,2.268350251
183,1.37E+47,3.02E+46,0.819032961,2.268468431
184,2.69E+47,5.95E+46,0.819032322,2.268488314
185,5.30E+47,1.17E+47,0.819034845,2.268409871
186,1.04E+48,2.30E+47,0.81904053,2.268233126
187,2.05E+48,4.52E+47,0.819049374,2.267958155
188,4.03E+48,8.90E+47,0.819061373,2.267585087
189,7.91E+48,1.75E+48,0.819076521,2.267114104
190,1.56E+49,3.44E+48,0.819094809,2.266545439
191,3.06E+49,6.77E+48,0.819116229,2.265879376
192,6.01E+49,1.33E+49,0.819140768,2.265116253
193,1.18E+50,2.62E+49,0.819168415,2.264256456
194,2.32E+50,5.16E+49,0.819199153,2.263300423
195,4.57E+50,1.01E+50,0.819232967,2.262248641
196,8.98E+50,2.00E+50,0.819269839,2.261101644
197,1.77E+51,3.93E+50,0.81930975,2.259860016
198,3.47E+51,7.73E+50,0.819352678,2.258524388
199,6.82E+51,1.52E+51,0.819398602,2.257095435
200,1.34E+52,3.00E+51,0.819447497,2.25557388
201,2.64E+52,5.90E+51,0.819499338,2.253960487
202,5.18E+52,1.16E+52,0.819554098,2.252256065
203,1.02E+53,2.28E+52,0.819611751,2.250461465
204,2.00E+53,4.50E+52,0.819672266,2.248577578
205,3.93E+53,8.85E+52,0.819735614,2.246605333
206,7.73E+53,1.74E+53,0.819801763,2.244545699
207,1.52E+54,3.43E+53,0.819870681,2.242399683
208,2.98E+54,6.76E+53,0.819942335,2.240168325
209,5.86E+54,1.33E+54,0.82001669,2.237852702
210,1.15E+55,2.62E+54,0.820093711,2.235453923
211,2.26E+55,5.15E+54,0.820173362,2.232973129
212,4.44E+55,1.01E+55,0.820255606,2.230411491
213,8.72E+55,2.00E+55,0.820340405,2.227770212
214,1.71E+56,3.93E+55,0.820427721,2.225050519
215,3.36E+56,7.74E+55,0.820517516,2.22225367
216,6.60E+56,1.52E+56,0.820609749,2.219380946
217,1.29E+57,3.00E+56,0.82070438,2.216433653
218,2.54E+57,5.90E+56,0.820801368,2.213413121
219,4.98E+57,1.16E+57,0.820900673,2.2103207
220,9.76E+57,2.28E+57,0.821002253,2.207157763
221,1.91E+58,4.49E+57,0.821106066,2.203925701
222,3.75E+58,8.83E+57,0.821212069,2.200625925
223,7.34E+58,1.73E+58,0.821320219,2.197259862
224,1.44E+59,3.41E+58,0.821430474,2.193828957
225,2.81E+59,6.70E+58,0.82154279,2.190334668
226,5.50E+59,1.32E+59,0.821657124,2.18677847
227,1.07E+60,2.58E+59,0.821773432,2.183161849
228,2.10E+60,5.07E+59,0.821891669,2.179486304
229,4.10E+60,9.94E+59,0.822011792,2.175753347
230,8.01E+60,1.95E+60,0.822133757,2.171964499
231,1.56E+61,3.82E+60,0.822257517,2.16812129
232,3.04E+61,7.48E+60,0.82238303,2.164225261
233,5.93E+61,1.47E+61,0.82251025,2.160277958
234,1.15E+62,2.87E+61,0.822639132,2.156280937
235,2.24E+62,5.60E+61,0.822769632,2.152235759
236,4.36E+62,1.10E+62,0.822901703,2.148143991
237,8.47E+62,2.14E+62,0.823035302,2.144007204
238,1.64E+63,4.17E+62,0.823170382,2.139826974
239,3.18E+63,8.13E+62,0.823306899,2.135604881
240,6.16E+63,1.58E+63,0.823444806,2.131342505
241,1.19E+64,3.08E+63,0.82358406,2.127041432
242,2.30E+64,5.99E+63,0.823724613,2.122703247
243,4.44E+64,1.16E+64,0.823866421,2.118329535
244,8.56E+64,2.26E+64,0.824009438,2.113921885
245,1.65E+65,4.38E+64,0.824153619,2.109481881
246,3.17E+65,8.47E+64,0.824298917,2.105011109
247,6.08E+65,1.64E+65,0.824445288,2.100511152
248,1.16E+66,3.16E+65,0.824592685,2.095983592
249,2.23E+66,6.10E+65,0.824741062,2.091430007
250,4.26E+66,1.17E+66,0.824890375,2.086851972
251,8.13E+66,2.26E+66,0.825040576,2.082251059
252,1.55E+67,4.34E+66,0.825191621,2.077628835
253,2.94E+67,8.32E+66,0.825343464,2.072986862
254,5.59E+67,1.59E+67,0.825496058,2.068326698
255,1.06E+68,3.04E+67,0.825649358,2.063649892
256,2.00E+68,5.80E+67,0.825803319,2.058957991
257,3.78E+68,1.11E+68,0.825957893,2.05425253
258,7.12E+68,2.10E+68,0.826113037,2.049535042
259,1.34E+69,3.99E+68,0.826268703,2.044807047
260,2.51E+69,7.55E+68,0.826424846,2.040070061
261,4.70E+69,1.43E+69,0.826581421,2.03532559
262,8.78E+69,2.69E+69,0.826738381,2.030575128
263,1.64E+70,5.06E+69,0.826895681,2.025820164
264,3.04E+70,9.50E+69,0.827053276,2.021062174
265,5.64E+70,1.78E+70,0.827211119,2.016302624
266,1.04E+71,3.33E+70,0.827369166,2.011542969
267,1.93E+71,6.20E+70,0.827527371,2.006784654
268,3.54E+71,1.15E+71,0.827685689,2.002029111
269,6.51E+71,2.14E+71,0.827844074,1.99727776
270,1.19E+72,3.96E+71,0.828002482,1.992532011
271,2.17E+72,7.31E+71,0.828160867,1.987793257
272,3.96E+72,1.35E+72,0.828319185,1.983062882
273,7.19E+72,2.47E+72,0.828477391,1.978342254
274,1.30E+73,4.52E+72,0.82863544,1.973632729
275,2.35E+73,8.26E+72,0.828793289,1.968935647
276,4.23E+73,1.50E+73,0.828950891,1.964252337
277,7.58E+73,2.73E+73,0.829108205,1.959584109
278,1.36E+74,4.94E+73,0.829265185,1.954932261
279,2.42E+74,8.91E+73,0.829421788,1.950298077
280,4.29E+74,1.60E+74,0.829577971,1.945682822
281,7.60E+74,2.87E+74,0.82973369,1.941087749
282,1.34E+75,5.13E+74,0.829888903,1.936514092
283,2.36E+75,9.14E+74,0.830043566,1.931963072
284,4.14E+75,1.62E+75,0.830197637,1.927435891
285,7.23E+75,2.87E+75,0.830351074,1.922933738
286,1.26E+76,5.06E+75,0.830503834,1.918457783
287,2.19E+76,8.90E+75,0.830655877,1.914009179
288,3.78E+76,1.56E+76,0.830807161,1.909589063
289,6.51E+76,2.72E+76,0.830957644,1.905198557
290,1.12E+77,4.73E+76,0.831107286,1.900838762
291,1.91E+77,8.19E+76,0.831256047,1.896510766
292,3.26E+77,1.41E+77,0.831403887,1.892215636
293,5.53E+77,2.43E+77,0.831550765,1.887954424
294,9.36E+77,4.17E+77,0.831696642,1.883728164
295,1.58E+78,7.13E+77,0.83184148,1.879537874
296,2.65E+78,1.21E+78,0.83198524,1.875384551
297,4.43E+78,2.06E+78,0.832127883,1.871269178
298,7.39E+78,3.47E+78,0.832269372,1.86719272
299,1.23E+79,5.84E+78,0.832409669,1.863156122
300,2.03E+79,9.79E+78,0.832548738,1.859160315
301,3.35E+79,1.64E+79,0.832686542,1.855206209
302,5.49E+79,2.72E+79,0.832823044,1.8512947
303,8.99E+79,4.51E+79,0.832958209,1.847426663
304,1.46E+80,7.44E+79,0.833092002,1.843602959
305,2.38E+80,1.22E+80,0.833224388,1.83982443
306,3.84E+80,2.01E+80,0.833355332,1.8360919
307,6.19E+80,3.28E+80,0.833484801,1.832406178
308,9.94E+80,5.33E+80,0.833612761,1.828768053
309,1.59E+81,8.63E+80,0.83373918,1.825178299
310,2.53E+81,1.39E+81,0.833864024,1.821637673
311,4.02E+81,2.24E+81,0.833987263,1.818146914
312,6.36E+81,3.59E+81,0.834108864,1.814706745
313,1.00E+82,5.73E+81,0.834228797,1.811317872
314,1.57E+82,9.11E+81,0.834347031,1.807980985
315,2.46E+82,1.44E+82,0.834463537,1.804696758
316,3.84E+82,2.28E+82,0.834578284,1.801465846
317,5.96E+82,3.58E+82,0.834691245,1.798288891
318,9.23E+82,5.61E+82,0.83480239,1.795166518
319,1.42E+83,8.76E+82,0.834911693,1.792099335
320,2.19E+83,1.36E+83,0.835019125,1.789087934
321,3.36E+83,2.11E+83,0.83512466,1.786132894
322,5.12E+83,3.27E+83,0.835228272,1.783234777
323,7.80E+83,5.03E+83,0.835329935,1.780394127
324,1.18E+84,7.72E+83,0.835429625,1.777611478
325,1.79E+84,1.18E+84,0.835527316,1.774887344
326,2.70E+84,1.80E+84,0.835622984,1.772222228
327,4.06E+84,2.74E+84,0.835716607,1.769616615
328,6.09E+84,4.15E+84,0.835808162,1.767070978
329,9.10E+84,6.27E+84,0.835897625,1.764585774
330,1.36E+85,9.44E+84,0.835984976,1.762161446
331,2.01E+85,1.42E+85,0.836070194,1.759798422
332,2.99E+85,2.12E+85,0.836153256,1.757497118
333,4.41E+85,3.17E+85,0.836234145,1.755257935
334,6.51E+85,4.71E+85,0.83631284,1.75308126
335,9.57E+85,6.99E+85,0.836389323,1.750967467
336,1.40E+86,1.03E+86,0.836463574,1.748916915
337,2.05E+86,1.53E+86,0.836535577,1.746929953
338,3.00E+86,2.25E+86,0.836605315,1.745006913
339,4.37E+86,3.31E+86,0.83667277,1.743148117
340,6.35E+86,4.84E+86,0.836737927,1.741353873
341,9.21E+86,7.08E+86,0.836800771,1.739624475
342,1.33E+87,1.03E+87,0.836861286,1.737960207
343,1.93E+87,1.50E+87,0.836919459,1.736361339
344,2.78E+87,2.18E+87,0.836975276,1.734828127
345,4.00E+87,3.17E+87,0.837028724,1.733360819
346,5.76E+87,4.58E+87,0.837079791,1.731959646
347,8.26E+87,6.62E+87,0.837128464,1.730624831
348,1.18E+88,9.54E+87,0.837174732,1.729356583
349,1.69E+88,1.37E+88,0.837218585,1.7281551
350,2.42E+88,1.97E+88,0.837260013,1.727020567
351,3.46E+88,2.83E+88,0.837299006,1.725953159
352,4.93E+88,4.05E+88,0.837335555,1.724953039
353,7.02E+88,5.80E+88,0.837369652,1.724020358
354,1.00E+89,8.29E+88,0.837401289,1.723155256
355,1.42E+89,1.18E+89,0.837430459,1.722357862
356,2.02E+89,1.69E+89,0.837457156,1.721628294
357,2.87E+89,2.40E+89,0.837481374,1.720966657
358,4.07E+89,3.42E+89,0.837503106,1.720373049
359,5.77E+89,4.86E+89,0.837522349,1.719847552
360,8.18E+89,6.90E+89,0.837539099,1.71939024
361,1.16E+90,9.80E+89,0.837553351,1.719001176
362,1.64E+90,1.39E+90,0.837565102,1.718680412
363,2.33E+90,1.97E+90,0.837574351,1.718427988
364,3.30E+90,2.80E+90,0.837581095,1.718243934
365,4.68E+90,3.97E+90,0.837585334,1.71812827
366,6.63E+90,5.62E+90,0.837587066,1.718081004
367,9.40E+90,7.97E+90,0.837586292,1.718102133
368,1.33E+91,1.13E+91,0.837583012,1.718191645
369,1.89E+91,1.60E+91,0.837577227,1.718349516
370,2.68E+91,2.27E+91,0.837568938,1.718575712
371,3.81E+91,3.22E+91,0.837558149,1.718870187
372,5.42E+91,4.57E+91,0.837544862,1.719232885
373,7.71E+91,6.48E+91,0.837529081,1.719663739
374,1.10E+92,9.21E+91,0.837510809,1.720162673
375,1.56E+92,1.31E+92,0.837490052,1.720729597
376,2.23E+92,1.86E+92,0.837466814,1.721364413
377,3.19E+92,2.65E+92,0.837441102,1.72206701
378,4.56E+92,3.77E+92,0.837412921,1.722837267
379,6.53E+92,5.38E+92,0.837382279,1.723675053
380,9.36E+92,7.68E+92,0.837349183,1.724580223
381,1.34E+93,1.10E+93,0.837313641,1.725552624
382,1.93E+93,1.57E+93,0.837275663,1.726592091
383,2.79E+93,2.25E+93,0.837235258,1.727698446
384,4.02E+93,3.23E+93,0.837192435,1.728871502
385,5.81E+93,4.65E+93,0.837147204,1.73011106
386,8.42E+93,6.69E+93,0.837099578,1.731416908
387,1.22E+94,9.65E+93,0.837049568,1.732788825
388,1.78E+94,1.39E+94,0.836997185,1.734226576
389,2.59E+94,2.02E+94,0.836942443,1.735729915
390,3.79E+94,2.93E+94,0.836885355,1.737298585
391,5.55E+94,4.25E+94,0.836825934,1.738932316
392,8.15E+94,6.19E+94,0.836764197,1.740630827
393,1.20E+95,9.04E+94,0.836700157,1.742393823
394,1.77E+95,1.32E+95,0.83663383,1.744221
395,2.62E+95,1.94E+95,0.836565232,1.746112037
396,3.88E+95,2.85E+95,0.836494381,1.748066604
397,5.77E+95,4.20E+95,0.836421293,1.750084358
398,8.60E+95,6.20E+95,0.836345987,1.752164942
399,1.29E+96,9.19E+95,0.836268482,1.754307987
400,1.93E+96,1.36E+96,0.836188795,1.75651311
401,2.90E+96,2.03E+96,0.836106947,1.758779916
402,4.37E+96,3.03E+96,0.836022957,1.761107996
403,6.62E+96,4.54E+96,0.835936848,1.763496928
404,1.00E+97,6.82E+96,0.835848639,1.765946277
405,1.53E+97,1.03E+97,0.835758353,1.768455592
406,2.34E+97,1.55E+97,0.835666012,1.771024411
407,3.58E+97,2.35E+97,0.83557164,1.773652257
408,5.51E+97,3.58E+97,0.835475258,1.776338637
409,8.50E+97,5.46E+97,0.835376893,1.779083048
410,1.32E+98,8.36E+97,0.835276567,1.781884968
411,2.05E+98,1.28E+98,0.835174306,1.784743863
412,3.19E+98,1.98E+98,0.835070137,1.787659185
413,4.99E+98,3.06E+98,0.834964084,1.790630369
414,7.83E+98,4.74E+98,0.834856174,1.793656837
415,1.23E+99,7.38E+98,0.834746436,1.796737995
416,1.95E+99,1.15E+99,0.834634895,1.799873235
417,3.10E+99,1.81E+99,0.834521582,1.803061931
418,4.93E+99,2.84E+99,0.834406524,1.806303445
419,7.89E+99,4.48E+99,0.83428975,1.809597121
420,1.27E+100,7.10E+99,0.834171291,1.812942289
