Time,J,A,S,tau
0.0,100.0,100.0,0.7531738539114642,9.433962264150944
1.0,314.69794708107503,161.56761585229634,0.7522220627757904,8.443389727319172
2.0,653.0385957119394,219.376593100861,0.7512309480575874,7.4180631532542645
3.0,1101.7317120807916,273.53857276184755,0.7501999471587042,6.3577041542511195
4.0,1647.397032243191,324.17085726431105,0.7491284983274552,5.262024901793962
5.0,2247.7787320310053,424.0847220815288,0.7484263443665351,4.561195998639208
6.0,3084.3032755406325,674.5315606786996,0.748313489333533,4.481513076333215
7.0,4462.300934777545,1018.8667474532798,0.7482019402701598,4.4040496108011
8.0,6562.547617663375,1442.4712515758617,0.7480917191962566,4.32875523045276
9.0,9516.52423228967,1933.457055129739,0.7479828475408619,4.255580444647595
10.0,13389.441604900083,2670.4942870503037,0.7478753461557701,4.184476668840912
11.0,18766.1509469218,3904.671218032153,0.7477692353254646,4.115396243926931
12.0,26721.81856069506,5780.6706317465705,0.7476645347809605,4.048292454799974
13.0,38565.513928034794,8393.500439709302,0.7475612637106052,3.9831195440695457
14.0,55642.36666965588,11949.62228876108,0.7474594407712735,3.9198327233106283
15.0,79720.65238897476,17189.692131969885,0.7473590840988895,3.85838818139162
16.0,114197.67351007622,25176.64167144262,0.7472602113188618,3.798743090547121
17.0,164584.9999544543,37093.09427116379,0.7471628395560962,3.740855610104841
18.0,238414.9358413483,54311.89761378793,0.7470669854446655,3.6846848881572765
19.0,345427.46752407687,79331.94217269054,0.746972665137215,3.630191061417257
20.0,500024.34835642466,116493.0678732695,0.7468798943139663,3.5773352532711975
21.0,724756.2245736182,172021.05872706388,0.7467886881915299,3.5260795704396486
22.0,1053124.9658070905,254168.3157726189,0.7466990615313572,3.476387098147237
23.0,1532191.431382775,375151.25344457873,0.7466110286480125,3.4282218941571427
24.0,2229282.0618619714,554323.6578204072,0.7465246034170733,3.3815489816372044
25.0,3244258.1075354437,820876.9910145928,0.7464397992828916,3.336334341084581
26.0,4724729.747256528,1216678.2301560866,0.7463566292660136,3.292544901395913
27.0,6883899.789910638,1802943.7262484075,0.7462751059704337,3.2501485301402444
28.0,10028892.63987014,2671918.036414091,0.7461952415905877,3.2091140232469675
29.0,14607146.809439972,3961351.0712218,0.7461170479181204,3.1694110940454823
30.0,21271198.897039473,5873039.482333153,0.7460405363484733,3.1310103619048215
31.0,30965131.91951055,8703203.532733286,0.7459657178872097,3.0938833404097665
32.0,45050682.919022284,12890315.068293307,0.7458926031561993,3.058002425240719
33.0,65496233.98848331,19081216.944717187,0.7458212023995405,3.0233408817881875
34.0,95144965.71312115,28223580.14162226,0.745751525489345,2.989872832535905
35.0,138089109.5726581,41704853.5667474,0.7456835819312891,2.957573244351289
36.0,200206652.04753554,61557648.8845577,0.745617380870004,2.92641791561405
37.0,289934143.36995673,90751433.52517974,0.7455529310942736,2.8963834633650163
38.0,419360734.3893666,133610031.07084599,0.7454902410420436,2.867447310395982
39.0,605768875.4363558,196419201.19156578,0.7454291568938797,2.8395898146365184
40.0,874107992.5764303,287627125.6694696,0.7450146542029634,2.817412287197841
41.0,1258564317.4763808,418628612.70623183,0.7439054325805946,2.8051716348412037
42.0,1805561807.053247,605778222.0075188,0.7421338979104425,2.802221326961104
43.0,2578399422.403539,873791269.7104533,0.740183644870339,2.802221326967911
44.0,3668010294.4271483,1256269607.0008597,0.7382847121697245,2.802221326967911
45.0,5200064672.335038,1798553794.5770316,0.736438616480516,2.802221326967911
46.0,7344963849.142237,2564544007.6610165,0.734646836574905,2.802221326967911
47.0,10336548621.295464,3643952106.264837,0.732910811566827,2.802221326967911
48.0,14496853902.41549,5159201660.696257,0.7312319392196581,2.802221326967911
49.0,20264660651.949142,7277850317.956264,0.7296115743224226,2.802221326967911
50.0,28235398940.50905,10230910631.349932,0.728051027134945,2.802221326967911
51.0,39218601493.204155,14334496260.51305,0.7265515619032543,2.802221326967911
52.0,54312694392.927986,20018624154.69074,0.7251143954456573,2.802221326967911
53.0,75002754726.51505,27868428311.91132,0.7237406958081761,2.802221326967911
54.0,103294143378.75519,38679263542.68897,0.7224315809915632,2.802221326967911
55.0,141893105023.75803,53528767463.356384,0.7211881177485108,2.802221326967911
56.0,194446660887.57578,73874188716.30882,0.7200113204504014,2.802221326967911
57.0,265863737487.0799,101684356875.0473,0.7189021500234024,2.802221326967911
58.0,362748156721.84827,139615856227.6918,0.7178615129534919,2.802221326967911
59.0,493980212080.63635,191248461238.66544,0.7168902603595539,2.802221326967911
60.0,671496962041.7488,261401940196.68378,0.715989187133366,2.802221326967911
61.0,911342549114.6151,356561929922.2084,0.7151590311457254,2.802221326967911
62.0,1235084876549.619,485451388886.08325,0.7144004725178762,2.802221326967911
63.0,1671725580244.115,659798999828.5255,0.7137141329571184,2.802221326967911
64.0,2260279883615.0723,895374747307.8569,0.7131005751528112,2.802221326967911
65.0,3053273067493.5063,1213384859329.2625,0.7125603022424281,2.802221326967911
66.0,4121477771597.426,1642356315831.713,0.712093757327371,2.802221326967911
67.0,5560356048513.381,2220682921523.5244,0.7117013230615374,2.802221326967911
68.0,7498819391749.263,3000077573893.595,0.7113833212869776,2.802221326967911
69.0,10111205813592.541,4050251609309.978,0.7111400127405036,2.802221326967911
70.0,13633621999094.912,5465284503252.683,0.7109715968069497,2.802221326967911
71.0,18386411381845.605,7372293396325.763,0.7108782113405155,2.802221326967911
72.0,24804942096614.625,9943284790814.102,0.7108599325341897,2.802221326967911
73.0,33482173103055.277,13411360817826.559,0.7109167748536002,2.802221326967911
74.0,45227276283089.19,18092976002190.15,0.7110486910219123,2.802221326967911
75.0,61147137525535.234,24418531323639.746,0.7112555720651712,2.802221326967911
76.0,82759246414048.6,32974596878950.688,0.7115372474127967,2.802221326967911
77.0,112149519797425.62,44562281735059.88,0.7118934850546685,2.802221326967911
78.0,152192306993915.6,60278211723065.555,0.7123239917581519,2.802221326967911
79.0,206859678000917.34,81627158315497.31,0.7128284133384197,2.802221326967911
80.0,281655577678318.56,110679158910159.47,0.7134063349936941,2.802221326967911
81.0,384229570208445.5,150289454325369.12,0.7140572816914488,2.802221326967911
82.0,525244811502034.1,204407109526930.2,0.7147807186241779,2.802221326967911
83.0,719611937306615.9,278509912876611.3,0.7155760517151228,2.802221326967911
84.0,988247707932857.4,380218428290992.3,0.71644262819729,2.802221326967911
85.0,1360589626868342.2,520167226553718.06,0.717379737243168,2.802221326967911
86.0,1878208185850754.8,713243128316534.1,0.718386610669942,2.802221326967911
87.0,2600004093990833.5,980354225456447.6,0.7194624236980084,2.802221326967911
88.0,3609731931053262.5,1350961612486481.0,0.7206062957855635,2.802221326967911
89.0,5026897024822341.0,1866721643152564.5,0.7218172915205157,2.802221326967911
90.0,7022650042683629.0,2586736366203600.5,0.7230944215876887,2.802221326967911
91.0,9842968936626588.0,3595160308720481.5,0.7244366437981187,2.802221326967911
92.0,1.3842725024747238e+16,5012247956023878.0,0.7258428641918421,2.802221326967911
93.0,1.9535728845482584e+16,7010473098287490.0,0.7273119382076123,2.802221326967911
94.0,2.7668808833469948e+16,9838118025699026.0,0.7288426719236014,2.802221326967911
95.0,3.9331452259813864e+16,1.3853939060106316e+16,0.7304338233692809,2.802221326967911
96.0,5.6119249051230216e+16,1.957828790156484e+16,0.7320841039053523,2.802221326967911
97.0,8.037763928118746e+16,2.7768778059597216e+16,0.7337921796779303,2.802221326967911
98.0,1.1556777001354251e+17,3.953273256959655e+16,0.7355566731376376,2.802221326967911
99.0,1.668159850492812e+17,5.649485694299698e+16,0.7373761646336757,2.802221326967911
100.0,2.4174523238702355e+17,8.104817406864603e+16,0.7392491940727499,2.802221326967911
101.0,3.5173255891596154e+17,1.1673110970911664e+17,0.7411742626467029,2.802221326967911
102.0,5.1385221744438925e+17,1.687581824730368e+17,0.7431147257238381,2.802661754978899
103.0,7.538933048753812e+17,2.4409012691185382e+17,0.7445491034415606,2.810115503039859
104.0,1.1090235151701044e+18,3.528214525567859e+17,0.7453039151186769,2.8269194155514694
105.0,1.633440063146154e+18,5.0985656001462483e+17,0.7454567592838127,2.852288351997209
106.0,2.407106217265432e+18,7.383493052940356e+17,0.74551676059129,2.879840209499606
107.0,3.5513494669025613e+18,1.0706315685513608e+18,0.7455783652977996,2.9083885092129345
108.0,5.245301860197098e+18,1.55308327089397e+18,0.7456415596167879,2.937949793454207
109.0,7.75226247979574e+18,2.254171292048261e+18,0.7457063293595204,2.9685410995088994
110.0,1.1462851657334036e+19,3.274335706453702e+18,0.7457726599316279,3.0001799573707735
111.0,1.6956965145723408e+19,4.75871274916216e+18,0.7458405363297941,3.032884387006291
112.0,2.5091317526088503e+19,6.917521576357522e+18,0.7459099431385998,3.0666728951033653
113.0,3.7129067165895836e+19,1.0057089841197548e+19,0.7459808645275422,3.101564471263056
114.0,5.493367329382586e+19,1.4622499899585352e+19,0.7460532842482427,3.1375785835918606
115.0,8.125060262352067e+19,2.1257868045252633e+19,0.746127185631863,3.1747351736512845
116.0,1.2011413080801339e+20,3.089435494555057e+19,0.7462025515867448,3.2130546507203133
117.0,1.7743876610062323e+20,4.487771559044962e+19,0.7462793645962895,3.252557885325802
118.0,2.6187843776231942e+20,6.514909552720585e+19,0.7463576067170988,3.2932662019948813
119.0,3.860645616940076e+20,9.450079868795566e+19,0.7464372595773884,3.335201371182899
120.0,5.683794023233275e+20,1.36939980669341e+20,0.7465183043756963,3.3783856003296275
121.0,8.354900880964629e+20,1.982044272123808e+20,0.7466007218798898,3.422841523990534
122.0,1.2259537872101303e+21,2.8648847348228096e+20,0.7466844924265568,3.46859219302695
123.0,1.795325234576965e+21,4.134587774943763e+20,0.7467695959206476,3.5156610627432827
124.0,2.623339528475952e+21,5.9567169462287e+20,0.7468560118355599,3.564071979979501
125.0,3.823962253949954e+21,8.56544335708055e+20,0.7469437192135819,3.6138491691094026
126.0,5.559376739260959e+21,1.2290801043394388e+21,0.7470326966667049,3.665017216848649
127.0,8.059316735364152e+21,1.7596154113445748e+21,0.7471229223779021,3.7176010558804684
128.0,1.164761681161017e+22,2.512942774495155e+21,0.7472143741028013,3.7716259472331104
129.0,1.6778419321583612e+22,3.5792753452053907e+21,0.7473070291717838,3.8271174613241463
130.0,2.4085136911040063e+22,5.083664558117233e+21,0.7474008644926491,3.8841014577363366
131.0,3.4446250837703234e+22,7.198645297895358e+21,0.7474958565536323,3.9426040635321473
132.0,4.907294637140124e+22,1.0161108472561043e+22,0.7475919814269586,4.002651650183464
133.0,6.962481215352382e+22,1.429465530995199e+22,0.7476892147729394,4.064270809042759
134.0,9.836130715901977e+22,2.003900237754739e+22,0.7477875318445243,4.127488325284859
135.0,1.3833805279410817e+23,2.7988388689121657e+22,0.7478869074924519,4.192331150356828
136.0,1.9365889632885057e+23,3.89413369452782e+22,0.7479873161708939,4.258826372832105
137.0,2.6979617912800382e+23,5.396461114460127e+22,0.7480887319436355,4.327001187661612
138.0,3.739932212368599e+23,7.447473968791319e+22,0.7481911284908377,4.3968828638189805
139.0,5.1576443025741786e+23,1.0234103090633696e+23,0.7482944791163496,4.468498710294861
140.0,7.075084976484616e+23,1.4001459324879147e+23,0.7483987567557271,4.541876040499704
141.0,9.652530364384832e+23,1.9068841448143462e+23,0.7485039339845304,4.61704213484582
142.0,1.309543547009314e+24,2.5849395498084248e+23,0.7486099830274399,4.694024201754669
143.0,1.7664910641185013e+24,3.487404767989403e+23,0.7487168757679074,4.772849336972926
144.0,2.3689864540408155e+24,4.682028535562804e+23,0.7488245837584269,4.853544481209332
145.0,3.1580884304202755e+24,6.254643021156325e+23,0.7489330782311392,4.936136375965129
146.0,4.1845743189765895e+24,8.313197316612357e+23,0.749042330109261,5.02065151782409
147.0,5.510637201076692e+24,1.0992447331492767e+24,0.7491523100191424,5.107116111129367
148.0,7.211708839300522e+24,1.445933714194702e+24,0.7492629883025753,5.195556018856903
149.0,9.378356193724223e+24,1.8919094374133383e+24,0.7493743350297599,5.285996711941194
150.0,1.2118181411945086e+25,2.462203517739534e+24,0.749486320013076,5.378463217194356
151.0,1.5557661218404967e+25,3.1871039176465425e+24,0.7495989128210642,5.472980063519282
152.0,1.984382598784753e+25,4.102962592000026e+24,0.7497120827927786,5.569571226523992
153.0,2.5145625889030758e+25,5.253050839457161e+24,0.7498257990532311,5.668260072185444
154.0,3.1654921517240513e+25,6.688448348857077e+24,0.7499400305285177,5.769069298478391
155.0,3.958686846974248e+25,8.468940685610505e+24,0.7500547459621502,5.872020876410194
156.0,4.917965949815891e+25,1.0663902135072127e+25,0.7501699139310414,5.977135989173824
157.0,6.0693396471441954e+25,1.3353131193260047e+25,0.7502855028622898,6.0844349704366705
158.0,7.44079518118728e+25,1.6627602208264515e+25,0.7504014810507766,6.193937241971744
159.0,9.061989626123765e+25,2.0590091273111657e+25,0.7505178166757206,6.3056612493186375
160.0,1.096381364843836e+26,2.535564033757557e+25,0.7506344778190893,6.41962439764665
161.0,1.3177852057595692e+26,3.1051807470012807e+25,0.7507514324831595,6.5358429861661165
162.0,1.5735722534933064e+26,3.7818673454588286e+25,0.7508686486089183,6.654332141896368
163.0,1.8668331841002897e+26,4.580853939581918e+25,0.7509860940934402,6.77510575306213
164.0,2.2004996072964787e+26,5.518532828037856e+25,0.751103736810237,6.898176402406101
165.0,2.5772568637306927e+26,6.612359273429591e+25,0.7512215446251909,7.023555299183247
166.0,2.9994446922676743e+26,7.880719411815556e+25,0.7513394854172984,7.151252211879129
167.0,3.468963290642001e+26,9.342756805047694e+25,0.7514575270957462,7.281275400058192
168.0,3.987178528806114e+26,1.1018163568897365e+26,0.7515756376190729,7.413631547528126
169.0,4.554834462130141e+26,1.2926935581823428e+26,0.7516937850134436,7.548325694177012
170.0,5.1719786869954e+26,1.508909444214946e+26,0.7518119373894738,7.685361167968922
171.0,5.837897573570283e+26,1.752438421341856e+26,0.7519300629610504,7.824739520280438
172.0,6.551062925021438e+26,2.0251946364388592e+26,0.7520481300661427,7.966460459116075
173.0,7.309122076071246e+26,2.3289973804644973e+26,0.7521661071751227,8.110521778955567
174.0,8.10886600282761e+26,2.665537323038489e+26,0.7522839629221534,8.256919306902754
175.0,8.946283569314887e+26,3.036340856265164e+26,0.7524016661006621,8.405646824212752
176.0,9.816556084532005e+26,3.4427373626528994e+26,0.7525191857047574,8.556696015325798
177.0,1.0714150163336131e+27,3.885827881021607e+26,0.7526364909283448,8.710056405240074
178.0,1.1632900806221193e+27,4.3664563528688705e+26,0.7527535511777705,8.865715294774327
179.0,1.2566101419804905e+27,4.885183596814358e+26,0.7528703360921934,9.023657696092938
180.0,1.350661627781228e+27,5.442267798675515e+26,0.7529868155607048,9.183866287244996
181.0,1.4447015305920635e+27,6.037649033940257e+26,0.7531029597290732,9.346321355761292
182.0,1.5379712011785035e+27,6.670937795819673e+26,0.7532187390071404,9.511000733597834
183.0,1.6297090904064048e+27,7.341409963226374e+26,0.7533341240897528,9.67787974871037
184.0,1.719164675569605e+27,8.048008504847839e+26,0.7534490859651923,9.846931180305358
185.0,1.805611744177907e+27,8.789350265395568e+26,0.7535635959221338,10.018125210985737
186.0,1.8883611481384066e+27,9.563737439842997e+26,0.753677625550842,10.191429369589798
187.0,1.966771076201064e+27,1.0369174614571899e+27,0.7537911467650299,10.366808494890762
188.0,2.0402575010143345e+27,1.1203390964251238e+27,0.7539041317949637,10.5442246844465
189.0,2.1083014919889063e+27,1.2063866708387961e+27,0.75401655320517,10.723637269519735
190.0,2.170456394377116e+27,1.294786204215224e+27,0.7541283838822797,10.905002753726182
191.0,2.2263513186384378e+27,1.3852450076585139e+27,0.7542395970582276,11.088274805946677
192.0,2.2756945760360207e+27,1.4774550589352024e+27,0.7543501662955209,11.273404202506365
193.0,2.3182743447431997e+27,1.5710965760368312e+27,0.7544600654944902,11.460338802455654
194.0,2.3539579285750569e+27,1.6658416311030447e+27,0.7545692688907017,11.649023516044236
195.0,2.3826894597740073e+27,1.761357744927419e+27,0.7546777510538903,11.839400278176837
196.0,2.4044861918785047e+27,1.8573113783808973e+27,0.7547854868812964,12.031408025187215
197.0,2.4194343058000185e+27,1.9533713124059825e+27,0.7548924516061088,12.224982660457467
198.0,2.4276826609460653e+27,2.0492117999091584e+27,0.7549986207787465,12.420057048180006
199.0,2.4294367448201982e+27,2.1445154647757067e+27,0.7551039702640163,12.616560988813188
200.0,2.4249519057274106e+27,2.238975979632878e+27,0.7552084762287412,12.814421192143897
201.0,2.4145264252507295e+27,2.3323002871403797e+27,0.7553121151545207,13.013561301726593
202.0,2.3984945928225714e+27,2.424210941794134e+27,0.7554148638077652,13.21390180715375
203.0,2.3772189860452558e+27,2.514447631908321e+27,0.7555166992251361,13.415360075189003
204.0,2.3510837801686636e+27,2.602768473983146e+27,0.7556175987080994,13.617850353918868
205.0,2.3204883801487998e+27,2.688951055725038e+27,0.7557175398099126,13.821283765077146
206.0,2.2858414588422045e+27,2.772793325844895e+27,0.7558165003282887,14.025568280911559
207.0,2.2475550444705243e+27,2.8541142056321107e+27,0.7559144582797397,14.230608690056256
208.0,2.206039379493327e+27,2.932753588333473e+27,0.756011391886804,14.436306616321414
209.0,2.0506488842697428e+27,1.2735440646387464e+27,0.7561072795543289,14.642560606977385
210.0,1.8882830901859107e+27,5.50036247194687e+26,0.7562020998504638,14.849265986591037
211.0,1.7316748977709248e+27,2.8220443658851562e+26,0.7562958314986596,15.05631494919467
212.0,1.580785837017467e+27,1.819120546709122e+26,0.7563884533508852,15.263596542832643
213.0,1.4355646212843593e+27,1.4317574271557318e+26,0.7564799443664378,15.470996676165978
214.0,1.2959477142595806e+27,1.2702023191734933e+26,0.7565702835899957,15.67839812699027
215.0,1.1618600279600558e+27,1.1911989285119832e+26,0.7566594501289672,15.885680552763734
216.0,1.0332157174783464e+27,1.1421622822651546e+26,0.7567474231301958,16.092720503184736
217.0,9.099190364701164e+26,1.1038599230839534e+26,0.7568341817560984,16.2993914351681
218.0,7.918652615876578e+26,1.0693207324054733e+26,0.7569197051603043,16.505563729829323
219.0,6.789416433973962e+26,1.0360746133179647e+26,0.7570039724630214,16.711104716285647
220.0,5.710283390174716e+26,1.003298485044296e+26,0.7570869627259642,16.915878688063124
221.0,4.679993858142732e+26,9.707771924662186e+25,0.7571686549256057,17.119746914268475
222.0,3.697236737160334e+26,9.385015519983978e+25,0.757249027928356,17.322567696407422
223.0,2.760658279186072e+26,9.065334253051102e+25,0.7573280604645859,17.52419638903596
224.0,1.868870725020705e+26,8.74953333958895e+25,0.7574057311029043,17.724485422138063
225.0,1.0204610212299611e+26,8.438454615875626e+25,0.7574820182244119,17.923284360865523
226.0,2.1399849237752286e+25,8.13286371634833e+25,0.7575568999969778,18.12043993602843
227.0,4.220907910146946e+21,3.8961189263189715e+25,0.7576303543504299,18.315796096143842
228.0,4.163999492056395e+21,1.4332845220757498e+25,0.7577023589507046,18.50919406068601
229.0,4.108360118050826e+21,5.272693891772363e+24,0.7577728911750704,18.700472377876416
230.0,4.053936641940703e+21,1.939691502100519e+24,0.7578419280884752,18.889466991372817
231.0,4.000678295765223e+21,7.135637890673902e+23,0.7579094464202842,19.076011312583606
232.0,3.9485365642758046e+21,2.625022388334586e+23,0.7579754225418727,19.259936300391445
233.0,3.897465066898482e+21,9.656798056683223e+22,0.758039832445206,19.441070548936743
234.0,3.8474194466914314e+21,3.5524931923811806e+22,0.7581026517225574,19.619240384156978
235.0,3.798357265847937e+21,1.3068730500770894e+22,0.758163855547511,19.794269969822036
236.0,3.7502379073291126e+21,4.807658495896716e+21,0.7582234186574078,19.965981423845708
