Time,J,A,S,tau
0.0,100.0,100.0,0.7047905930855021,10.1010101010101
1.0,201.948939041814,106.24022811356394,0.6990081574772792,11.060716103464811
2.0,308.8051949698037,112.0471298286143,0.69329637245215,12.02182706249231
3.0,420.02380811054144,117.45812571304478,0.6876538438381405,12.984183682275857
4.0,535.1232227779886,122.50556772712565,0.6820788107570392,13.947679904971055
5.0,653.6759425533635,127.21922316737597,0.676569450651329,14.91221628718219
6.0,775.3031815133638,131.6265139012383,0.6711238934614553,15.877699373238432
7.0,899.6698053094831,135.75273869708923,0.6657402341181454,16.844041106992172
8.0,1026.4801968079635,139.6212635113246,0.660416543522944,17.811158311636383
9.0,1155.4743282255504,143.25370610119705,0.6551508784434392,18.778972175952973
10.0,1286.4242173586267,146.67010383687813,0.6499412901483672,19.747407777765375
11.0,1419.1309240442476,149.88906344498548,0.6447858320486352,20.71639364385272
12.0,1553.4219789470599,152.92789037556048,0.6396825665724929,21.685861354073165
13.0,1689.1489215003662,155.80271273180657,0.634629571485605,22.655745150952665
14.0,1826.1843931164722,158.5286314681399,0.6296249443799687,23.625981495407164
15.0,1964.4208668010083,161.11980139436582,0.6246668075522672,24.596508771538588
16.0,2103.769821597734,163.5894910635667,0.6197533143092517,25.567267001981918
17.0,2244.158242896212,165.95024702105323,0.6148826500025049,26.538197391675546
18.0,2385.5282193530084,168.2139528358742,0.6100530353195688,27.50924207566327
19.0,2527.837215793465,170.39184737373807,0.605262734583179,28.480343841965453
20.0,2671.0542872798287,172.49469382796337,0.6005100517113366,29.451445740520658
21.0,2815.1612828317857,174.53278648104052,0.595793336557539,30.422490858143036
22.0,2960.1517705624246,176.5160135384447,0.5911109903998796,31.393421928340427
23.0,3106.0290215669925,178.45396530647602,0.5864614600315555,32.36418114330379
24.0,3252.8079572583842,180.3559266628701,0.5818432518264234,33.33470968404839
25.0,3400.512276812329,182.23098959752667,0.5772549243670175,34.304947522724966
26.0,3549.175381665519,184.08807456242187,0.572695094321897,35.274833128686254
27.0,3698.8404837628404,185.93598998558133,0.568162445141313,36.24430283282469
28.0,3849.558756656111,187.78348479594362,0.5636557148557714,37.21329106941984
29.0,4001.3917631856184,189.63929937063253,0.5591737205608137,38.18172914962289
30.0,4154.408997416032,191.51220342830223,0.5547153383572436,39.14954581065686
31.0,4308.689668168728,193.4110634201309,0.550279526097136,40.11666600629248
32.0,4464.322518064687,195.34487733027495,0.5458653162892609,41.08301086288724
33.0,4621.404979966993,197.3228182365519,0.5414718188469907,42.04849741291556
34.0,4780.045914686566,199.3543254780285,0.5370982393904042,43.01303718334239
35.0,4940.36306649277,201.44907265957016,0.5327438587267014,43.97653721126854
36.0,5102.486345162562,203.61714122634996,0.5284080694790031,44.938897499356756
37.0,5266.5568548588535,205.86894064355013,0.5240903505103858,45.90001232499597
38.0,5432.727424718135,208.21537835231,0.5197902953154561,46.85976818343024
39.0,5601.1657425688645,210.66786030739073,0.5155076102323519,47.81804345975379
40.0,5772.051191310145,213.2383243772107,0.5112421112920099,48.77470854477257
41.0,5945.581117394322,215.9394310340588,0.5069937595272601,49.729622765001864
42.0,6121.967149665736,218.78441024674115,0.5027626271627561,50.682636751114565
43.0,6301.439675099718,221.7874074573686,0.4985489532573312,51.633587759556846
44.0,6484.249116061479,224.96328206750619,0.49435311083715566,52.58230188671106
45.0,6670.664296857001,228.3278809559957,0.4901756418738979,53.528591050506044
46.0,6860.980964972391,231.89805078770007,0.4860172659847911,54.47225163909786
47.0,7055.514739928326,235.69161025579294,0.4818788648492026,55.413065770833605
48.0,7254.612907436033,239.72771936809238,0.4777615447147406,56.35079516493792
49.0,7458.649328625606,244.02654015236595,0.47366658073273243,57.28518585442203
50.0,7668.030001007265,248.60980400232162,0.46959549775408144,58.21596039180384
51.0,7883.199061628614,253.500469656548,0.4655500282693035,59.142821074757144
52.0,8104.632259545539,258.723106350111,0.4615321535995997,60.065445918346335
53.0,8332.85371820283,264.30384361643553,0.4575441131453657,60.983486768682184
54.0,8568.429496019671,270.2703983301684,0.453588398318638,61.89656962148168
55.0,8811.973106719724,276.65233701005485,0.44966779021985387,62.80429018797706
56.0,9064.155148289297,283.4810346796506,0.4457853616656821,63.70621273743253
57.0,9325.701164329954,290.78963239338486,0.4419444672040958,64.60187062449474
58.0,9597.397121485963,298.61331701413036,0.43814878223719445,65.4907612859517
59.0,9880.101351822386,306.98921172953794,0.4344022981269835,66.37234551284268
60.0,10174.741309647563,315.95628973764804,0.4307093057865458,67.24604859277251
61.0,10482.31978097034,325.5556080672423,0.4270744290607518,68.11125531914988
62.0,10803.929440005772,335.830091220752,0.42350260818617325,68.96731018958516
63.0,11140.747876810123,346.82437999011336,0.4199990739165018,69.81351953840435
64.0,11494.044052454889,358.58494882016294,0.4165693659919951,70.64914742043149
65.0,11865.195298964247,371.15973383269016,0.4132192986009451,71.47341749229776
66.0,12255.679705093546,384.5978954056485,0.409954921876579,72.28551657987065
67.0,12667.08180898995,398.9497232514031,0.4067825129099885,73.0845927404256
68.0,13101.111278107408,414.26606199988845,0.4037085168051894,73.86975971114393
69.0,13559.591421107874,430.5979765255694,0.4007394936302262,74.64010227986495
70.0,14044.462381135207,447.99633752149055,0.397882067759506,75.39467813523929
71.0,14557.7998752066,466.5110236878457,0.3951428409713071,76.13252557663434
72.0,15101.798366783496,486.19050762723134,0.392528326583919,76.85267068408868
73.0,15678.76917404016,507.0810378438041,0.39004484557942654,77.55413440680826
74.0,16291.156649207016,529.225658191226,0.3876984155274446,78.23594346874381
75.0,16941.514624864278,552.663782758722,0.38549468019509514,78.89713856071201
76.0,17632.49613320221,577.4299663419343,0.3834387503244223,79.53678714771112
77.0,18366.86359053528,603.5528760207305,0.38153508378053047,80.15399611116092
78.0,19147.45782432428,631.0549842115981,0.3797874270483001,80.74791914605531
79.0,19977.175932270373,659.9510448502008,0.3781986144056288,81.31777395653087
80.0,20858.971895940223,690.2472447257663,0.37677046658765295,81.86285359607301
81.0,21795.819030056326,721.9411814340613,0.3755037661446785,82.38253047925464
82.0,22790.673342992282,755.0202918619256,0.3743980456437944,82.87627462826019
83.0,23846.46052173545,789.4613845899463,0.373451529124478,83.34366051373115
84.0,24809.164594755188,1073.30501139626,0.39064910615785425,78.22389565284594
85.0,26462.01813377138,2354.7480592238953,0.45491046289378634,59.806991567454
86.0,31031.137203475846,3978.2272149991777,0.5205169732570323,44.07005758314693
87.0,39117.38670818682,5426.275040817171,0.5680120626977103,34.755561786476214
88.0,50320.24899775536,6710.935333476179,0.6015672835551468,29.053525854311616
89.0,64305.118089087286,7906.000252744793,0.6263339445781537,25.214365957168717
90.0,80890.71629497579,9057.769661068613,0.6452940677966565,22.437340431275445
91.0,99989.98351416469,10193.810466058198,0.6601651231847386,20.325750490619782
92.0,121571.5392849565,11331.506856379123,0.672001202819589,18.661954770115603
93.0,145638.48633323787,12482.51382670818,0.6814907455295266,17.316045020044914
94.0,172216.19143106174,13655.03419878774,0.6891074011192562,16.205160506791938
95.0,201344.61562924218,14855.037712682659,0.6951911990735509,15.273604966609478
96.0,233073.1296622317,16086.942018059635,0.6999949012105945,14.482338470116183
97.0,267456.61680755625,17354.01375384567,0.7037119060844366,13.80304519310697
98.0,304204.4899203167,19505.840021936725,0.7064937966028358,13.21460526082417
99.0,346940.74134520977,26254.54422340287,0.708461945198487,12.700875847964602
100.0,408831.23235266504,37621.14566586386,0.709715179722738,12.249283866641798
101.0,501773.7210471563,52432.4291933567,0.7103352403939176,11.84986508732475
102.0,634717.1740843797,70065.88522635237,0.7103906409882527,11.49460764752283
103.0,815020.9912757387,90189.8029000494,0.7099394864129716,11.176988432828715
104.0,1049119.025545067,112610.84323631601,0.7090315656855528,10.891638953401758
105.0,1342829.960677113,137209.64729219506,0.7077099370597237,10.634099297668243
106.0,1701513.1566579584,163909.6790186015,0.7060121457593046,10.400634099684533
107.0,2130150.4571098145,192660.0091616269,0.7039711716118356,10.18809269268336
108.0,2633180.744030573,223785.1841543577,0.701616178462375,9.993801309941071
109.0,3216929.963564405,264729.70019566506,0.6989731154906061,9.815478226723688
110.0,3917386.2903018896,329258.6960584171,0.696065197856581,9.65116760377045
111.0,4811292.043770339,427058.02399353933,0.6929133034751133,9.499186027979876
112.0,6002445.78940482,564680.6581869588,0.6895362985588357,9.358079469552848
113.0,7612599.535504573,747061.4165903898,0.6859513086222007,9.226588201682
114.0,9776196.429851457,978155.7230790326,0.6821739458141555,9.10361798226377
115.0,12636726.554692743,1261243.4795737702,0.6782185012035263,8.98821616451105
116.0,16343827.119682442,1599088.0519083827,0.6740981085199814,8.879551769502743
117.0,21050562.36179497,1994418.5540619842,0.6698248843728589,8.77689876136369
118.0,26914218.53051833,2462291.0168046006,0.6654100493909338,8.679621901132002
119.0,34158719.73100765,3053115.617238372,0.6608640331733963,8.587164719856435
120.0,43195289.695215024,3845037.3468097867,0.6561965655950598,8.499039281581931
121.0,54701755.970754385,4931100.4673887985,0.651416756807845,8.414817380447252
122.0,69660068.58685257,6412490.9358333,0.6465331673836988,8.334122969616354
123.0,89369951.80248703,8394483.382172802,0.6415538700480099,8.256625619375397
124.0,115446443.64211841,10983594.375100888,0.6364865041156624,8.182034847222145
125.0,149804963.93512592,14285406.714170525,0.6313383235591441,8.110095190406764
126.0,194635842.45607188,18411541.056303583,0.6261162394826701,8.040581913356775
127.0,252435034.36410156,23542624.62518684,0.6208268576492592,7.973297261497453
128.0,326316211.4008759,30020281.887888364,0.6154765116447817,7.908067182950154
129.0,420616555.19271934,38395232.96007816,0.6100712920760396,7.844738461442194
130.0,541615036.5061088,49440814.10517401,0.6046170723289447,7.783176196849689
131.0,698240871.3821589,64148049.67271552,0.5991195311367911,7.72326159748628
132.0,902703869.6880134,83709104.08341378,0.5935841723064246,7.6648900396934225
133.0,1170998141.6175303,109492837.39117517,0.5880163419223673,7.6079693594651845
134.0,1523249957.6122732,143036163.74771246,0.5824212432001192,7.552418352666447
135.0,1984061462.9061365,186185644.26682612,0.576803949259847,7.49816545329144
136.0,2583573987.80466,241476906.94084933,0.5711694140271248,7.445147569559744
137.0,3360034330.740339,312622398.4345719,0.5655224813976819,7.393309060853654
138.0,4364040839.374807,404984249.41025305,0.5598678928816069,7.342600834954968
139.0,5664189776.501568,525970670.05985546,0.5542102938666217,7.292979553726791
140.0,7353653642.343266,685323552.9966269,0.5485542386180006,7.244406934291912
141.0,9557099493.269098,895284913.0283383,0.5429041941912509,7.196849132406931
142.0,12437372233.268528,1170769015.204678,0.5372645433526863,7.150276200551117
143.0,16202325710.85274,1530046558.1284664,0.5316395866141711,7.10466161085786
144.0,21114306926.046288,1996441358.9706092,0.5260335435271974,7.059981834694176
145.0,27506146633.507126,2601080283.9423466,0.5204505532982673,7.016215973569169
146.0,35806993114.48624,3386421234.570515,0.5148946748285896,6.973345434163127
147.0,46579474492.2556,4410161421.057572,0.509369886290647,6.9313536425369575
148.0,60567913604.67632,5749109180.625258,0.5038800842817655,6.890225793457758
149.0,78755590265.63771,7502752274.848913,0.49842908265792063,6.849948629816132
150.0,102428243196.138,9797191313.686735,0.4930206111236292,6.8105102491298855
151.0,133245906122.09633,12791465570.217825,0.487658313607247,6.771899933963515
152.0,173333454423.01114,16688540507.691488,0.48234574652424106,6.734108002931438
153.0,225406848800.97,21752387744.639206,0.47708637696404643,6.697125680357822
154.0,292955646939.3482,28331301556.324234,0.47188358083185805,6.660944982154894
155.0,380497172748.62854,36886352745.71886,0.4667406410379759,6.625558615827854
156.0,493909779701.4975,48023274720.351364,0.4616607457336301,6.590959893243488
157.0,640846456115.268,62527291590.58219,0.4566469866383481,6.5571426543767375
158.0,831226432961.9203,81404776183.06104,0.45170235752370874,6.524101200755342
159.0,1077825522238.0956,105940380654.58794,0.4468297528322785,6.491830237576725
160.0,1397022181498.8596,137779902364.84476,0.44203196649019405,6.460324823250783
161.0,1809779079131.933,179047776027.81235,0.437311690939109,6.429580325580892
162.0,2342968697150.7544,232503731621.6601,0.43267151636397894,6.399592383798899
163.0,3031143128608.6963,301737541085.2519,0.4281139301802976,6.370356875621231
164.0,3918808617769.9775,391400747253.3493,0.4236413167653887,6.341869888822389
165.0,5063279771317.599,507482742707.9599,0.4192559574233971,6.314127696733701
166.0,6538191897216.126,657654920203.628,0.4149600306373535,6.28712673713376
167.0,8437841940384.805,851724590499.7943,0.41075561256167964,6.2608635941854
168.0,10882722752908.617,1102246855488.753,0.40664467776699065,6.235334982987902
169.0,14026665330683.584,1425339608020.3926,0.40262910026157905,6.210537736409395
170.0,18066136385770.414,1841735717313.335,0.3987106547335618,6.186468793951954
171.0,23252317094153.465,2378093915674.683,0.3948910180424071,6.163125192344804
172.0,29906393688053.47,3068609908485.863,0.3911717709480051,6.140504057655606
173.0,38438769977286.195,3957016138058.578,0.3875544000309004,6.118602598740862
174.0,49373180434978.68,5099115298674.289,0.3840402998368348,6.0974181018228
175.0,63376860826372.44,6566064513688.459,0.38063077520214145,6.0769479260622905
176.0,81299076239999.02,8448651105908.957,0.3773270437354167,6.057189499998209
177.0,104220473763892.97,10862794087223.826,0.3741302384770835,6.038140318704642
178.0,133516003508205.48,13956528610002.639,0.3710414106769757,6.0197979415884815
179.0,170935559000246.25,17918751670728.945,0.36806153268951236,6.002159990730723
180.0,218705672735648.44,22990157300039.14,0.3651915009831809,5.985224149669249
181.0,279657379783700.28,29477043996327.844,0.3624321392087695,5.9689881625809065
182.0,357388518750132.0,37768871049320.48,0.3597842013404199,5.953449833785817
183.0,456468137817328.44,48360741985022.63,0.3572483748605201,5.938607027508452
184.0,582696536524487.2,61882184801208.086,0.35482528395093976,5.924457667874808
185.0,743437955111792.6,79133665312321.27,0.3525154927060438,5.910999739079194
186.0,948040990664684.5,101132767241906.1,0.3503195083215786,5.8982312856867605
187.0,1208374209692889.5,129172434726256.73,0.348237784245493,5.886150413061021
188.0,1539505198393946.2,164894429938478.34,0.3462707232942722,5.874755287856071
189.0,1960555583045223.0,210382645028577.03,0.3444186806873878,5.864044138568113
190.0,2495792618440653.5,268281758326097.25,0.34268196700559606,5.8540152561334065
191.0,3176012172106202.0,341948189441682.06,0.3410608510575554,5.8446669945224885
192.0,4040292860061175.5,435642308561373.94,0.3395555626211499,5.8359977713458315
193.0,5138243964282573.0,554771927404992.6,0.33816629507318824,5.828006068448339
194.0,6532849399080734.0,706200881360115.4,0.33689320787723365,5.82069043246009
195.0,8304084091330910.0,898640814248105.6,0.33573642891551086,5.814049475327223
196.0,1.0553537725039808e+16,1143147869907879.0,0.33469605667595537,5.808081874789778
197.0,1.3410260643395762e+16,1453755179566122.0,0.3337721622588072,5.8027863747958826
198.0,1.7038239083257406e+16,1848278684860489.5,0.3329647912079011,5.798161785874507
199.0,2.164594754630439e+16,2349341593795647.5,0.3322739651663936,5.794206985425963
200.0,2.7498466849555036e+16,2985680548751754.0,0.3316996833279217,5.79092091794282
201.0,3.4933055928814628e+16,3793807437855116.0,0.33124192370147537,5.7883025951720475
202.0,4.437899516084971e+16,4820123805844638.0,0.3309006441751039,5.786351096178656
203.0,5.6382854820620424e+16,6123620473325860.0,0.33067578336600517,5.785065567341642
204.0,7.164102852855827e+16,7779317772197745.0,0.3305672612775106,5.784445222275351
205.0,9.104116588585666e+16,9882658758962390.0,0.3305749797403494,5.784489341650012
206.0,1.1571521936806352e+17,1.2555130575208656e+16,0.3306988226420871,5.785197272948093
207.0,1.471078156544761e+17,1.595143780335548e+16,0.3309386559613892,5.78656843013421
208.0,1.8706342565904592e+17,2.026868326791147e+16,0.3312943275840762,5.788602293232217
209.0,2.37938565397567e+17,2.5758124240621828e+16,0.331765666918506,5.79129840784206
210.0,3.027462613869432e+17,3.274020189542975e+16,0.3323524843186602,5.7946563845640755
211.0,3.8534067544883354e+17,4.162383047511534e+16,0.3330545702987105,5.798675898346111
212.0,4.906559381571948e+17,5.29311314980473e+16,0.33387169456603877,5.803356687774161
213.0,6.250131603068124e+17,6.73291485042397e+16,0.3348036048706541,5.808698554273153
214.0,7.965146080851517e+17,8.567064342471051e+16,0.33585002566783817,5.814701361251434
215.0,1.015555078727217e+18,1.090464711068108e+17,0.3370106566231215,5.821365033192452
216.0,1.2954790309164603e+18,1.3885291605099307e+17,0.3382851709522301,5.828689554672313
217.0,1.6534283601320297e+18,1.7687846749003357e+17,0.3396732136040786,5.8366749693436635
218.0,2.1114433390885594e+18,2.2541539995521018e+17,0.34117439931574667,5.84532137887566
219.0,2.697878706215985e+18,2.8740364684476605e+17,0.3427883105300236,5.8546289418476345
220.0,3.449239598914081e+18,3.666165068789583e+17,0.3445144951932663,5.864597872635248
221.0,4.4125648902004357e+18,4.6789991583043104e+17,0.34635246446021295,5.87522844027137
222.0,5.648499460865739e+18,5.974817769820485e+17,0.34830169029657243,5.886520967300561
223.0,7.23529561839981e+18,7.633716629097254e+17,0.35036160300657465,5.89847582865902
224.0,9.273999818366263e+18,9.758770246354593e+17,0.3525315887060579,5.91109345056287
225.0,1.1895163492489685e+19,1.2482719624657385e+18,0.35481098673572375,5.9243743094440084
226.0,1.526760545353678e+19,1.5976623189429947e+18,0.3571990870488277,5.938318930954712
227.0,1.9609762884232753e+19,2.0461056870904392e+18,0.35969512758682826,5.95292788903744
228.0,2.5204436141365973e+19,2.622064882513603e+18,0.3622982916419848,5.9682018051116525
229.0,3.241805633839608e+19,3.36229019243739e+18,0.3650077052474637,5.984141347392457
230.0,4.172565513050453e+19,4.3142618329851776e+18,0.36782243459916664,6.000747230359732
231.0,5.3743422408781505e+19,5.539363240103699e+18,0.370741483514528,6.018020214436965
232.0,6.927122419671133e+19,7.11699549716124e+18,0.373763790972387,6.035961105895524
233.0,8.934776868012024e+19,9.149927141115862e+18,0.3768882287269422,6.054570757031203
234.0,1.1532277830303269e+20,1.1771248530666183e+19,0.3801135990109647,6.073850066677878
235.0,1.4895106942608795e+20,1.5153402236231862e+19,0.38343863236904113,6.093799981084819
236.0,1.9251489999518535e+20,1.9519941583047037e+19,0.38686198560437424,6.114421495237902
237.0,2.489842916297688e+20,2.5160819551854715e+19,0.3903822398663709,6.135715654694464
238.0,3.222257055891817e+20,3.245227026813583e+19,0.3939978989078871,6.15768355798613
239.0,4.172740901055345e+20,4.188271729572168e+19,0.3977073874911355,6.180326359704061
240.0,5.406893104975515e+20,5.4086463822973256e+19,0.40150904998024567,6.203645274347458
241.0,7.010197247352901e+20,6.9887553160316576e+19,0.40540114913028347,6.227641581036253
242.0,9.094078039932581e+20,9.035693582511419e+19,0.40938186505354923,6.252316629238972
243.0,1.1803823862168431e+21,1.168868053197955e+20,0.4134492944067937,6.277671845619595
244.0,1.532888795033029e+21,1.512874511073048e+20,0.4176014497864049,6.303708742173263
245.0,1.9916367315655496e+21,1.9591342616828405e+20,0.4218362593204661,6.330428925841571
