Time,J,A,S,tau
0.0,100.0,100.0,0.893215943878429,10.309278350515463
1.0,255.04568785210506,576.4850241838462,0.8687905382387286,9.582270950505297
2.0,1209.2582212132838,1010.0075273237435,0.8432869190248456,8.821884605434864
3.0,2775.005356899302,1402.8714377012657,0.8167546748337366,8.02770159217354
4.0,4784.1636196766985,1757.201735403033,0.7892536951654928,7.199307422257295
5.0,7087.58198914403,2074.9624416267366,0.7608545608487239,6.33629774663584
6.0,9590.479601481507,2308.3323416747844,0.7381391927718892,5.672386694650497
7.0,11850.097073284993,2906.444286442018,0.7307192945269275,5.561077241266803
8.0,14337.851965433538,4092.2475476970467,0.7231997232293861,5.452934399447507
9.0,17672.762227736708,5666.567145652671,0.7155856593757574,5.34788121936536
10.0,22092.408904676184,7468.1150617277835,0.7078825824337179,5.2458421199910115
11.0,27574.00490749235,9365.195276846836,0.7000962612344523,5.146742923075532
12.0,33863.07913566172,11306.573794109267,0.6922327428274563,5.0505108824804035
13.0,40369.27260967819,13871.014744194606,0.6842983394082574,4.957074706456044
14.0,47181.521514188105,17423.505517096626,0.6762996143913111,4.866364579391616
15.0,54723.64488884733,21988.45491350197,0.6682433668477255,4.778312177814965
16.0,63358.2678483915,27389.106840424898,0.6601366142871997,4.692850680877117
17.0,73180.48497080724,33385.250630049995,0.6519865742761981,4.6099147777323655
18.0,83763.86039177606,40136.357328856575,0.6438006452899113,4.529440673459464
19.0,94638.2052476295,48042.16954217766,0.6355863859434316,4.451366088912213
20.0,105628.91485024629,57359.48604987868,0.6273514932169898,4.3756302576707355
21.0,116782.52429472315,68075.36085643293,0.6191037818059992,4.302173928216315
22.0,128136.51861704692,79990.57944261181,0.6108511589691373,4.23093934714246
23.0,139461.44756760442,93010.53930047753,0.602601600369281,4.161870289774876
24.0,150445.4805720733,107088.64511445598,0.5940806633759441,4.098993200466938
25.0,160928.17880755395,121940.37201175503,0.584490983142296,4.053196816046686
26.0,170627.76499501424,137330.5639895059,0.5737546500455143,4.0244063675161685
27.0,179313.5312541595,152936.23979688407,0.5618567113832517,4.011854453502693
28.0,186644.0622682286,168542.520460591,0.5490802549553933,4.011073189853726
29.0,192195.3746102633,184157.1904731915,0.5362448450395929,4.011073189853726
30.0,195923.2116392626,199495.99257387788,0.5234296020873379,4.011073189853726
31.0,197843.30618374888,214241.6023216459,0.5106555294353152,4.011073189853726
32.0,198003.6724857676,228084.0302852527,0.4979435274231177,4.011073189853726
33.0,196444.54714854047,240783.621336098,0.48531427356496915,4.011073189853726
34.0,193243.5346013797,252148.7284084172,0.4727881048869364,4.011073189853726
35.0,188536.8783175322,262010.03998684807,0.4603849053872572,4.011073189853726
36.0,182503.58003226208,270227.9229577362,0.4481239933679012,4.011073189853726
37.0,175346.87822369198,276701.85161830724,0.43602402389545114,4.011073189853726
38.0,167277.47892322246,281378.45220620563,0.4241028894123661,4.011073189853726
39.0,158507.67252173318,284249.1197577292,0.412377634769582,4.011073189853726
40.0,149244.8256046689,285345.50954606815,0.40086437872937847,4.011073189853726
41.0,139685.88490109946,284734.4851559515,0.38957825106396604,4.011073189853726
42.0,130011.04438760286,282513.4165149293,0.37853333118789334,4.011073189853726
43.0,120379.35977903067,278804.61889750947,0.367742607982699,4.011073189853726
44.0,110927.53923928383,273749.3050000394,0.3572179452230363,4.011073189853726
45.0,101767.70902713912,267501.6424705659,0.3469700579711366,4.011073189853726
46.0,92989.07163422868,260222.8764424676,0.3370085076408338,4.011073189853726
47.0,84658.2851086936,252076.27201257762,0.3273416965314738,4.011073189853726
48.0,76821.64692816748,243222.63888454644,0.31797688648304184,4.011073189853726
49.0,69507.75543415561,233816.58712157875,0.3089202142241033,4.011073189853726
50.0,62729.665404478794,224003.73114582643,0.30017673098224684,4.011073189853726
51.0,56487.26562211815,213918.49964777273,0.29175043413138785,4.011073189853726
52.0,50770.52775288231,203682.69830823163,0.2836443194699715,4.011073189853726
53.0,45561.44568482291,193404.79117339358,0.27586043723018755,4.011073189853726
54.0,42281.67771848138,181673.9489556868,0.2489601303847121,4.251041779677598
55.0,42225.12800496315,166094.5436305885,0.1763936918203614,5.250992352892818
56.0,40433.70580719954,151842.35099761758,0.12418476592853836,6.250942928531512
57.0,37649.29221374686,138805.41908635036,0.08688771560287026,7.2508935041702065
58.0,34379.30735883179,126881.11237297373,0.0604271354553994,8.250844079808903
59.0,30959.89776583027,115975.35046114169,0.04178054607626017,9.250794655447601
60.0,27604.374322117532,106001.90722301322,0.028726030202466668,10.2507452310863
61.0,24439.74971635185,96881.76603993356,0.01964415307210289,11.250695806725
62.0,21533.84891083313,88542.52680217008,0.013364408048278821,12.250646382363698
63.0,18915.079954284756,80917.86064075766,0.009047590456633009,13.250596958002397
64.0,16586.586958571348,73947.00866324322,0.006096721203669334,14.250547533641098
65.0,14536.175967069214,67574.32124320779,0.004090330954231814,15.250498109279832
66.0,12743.114875047053,61748.834672274344,0.0027330189789345352,16.250448684918563
67.0,11182.662843737067,56423.88222899039,0.0018191851712287407,17.250399260557298
68.0,9828.983375545207,51556.73729456927,0.0012066877769540741,18.250349836195966
69.0,8656.919332521053,47108.28411676276,0.0007978691554246022,19.250300411834637
70.0,7643.011025124254,43042.71772673144,0.0005260499041552113,20.250250987473308
71.0,6765.993268600101,39327.267011986165,0.00034595827703573837,21.250201563111975
72.0,6006.967314592854,35931.94099342744,0.00022702227447632918,22.250152138750646
73.0,5349.370976862807,32829.295669356536,0.00014869954514931563,23.250102714389318
74.0,4778.835896319696,29994.220412683535,9.725187028399517e-05,24.25005329002799
75.0,4282.986161174465,27403.74193040083,6.353109820436765e-05,25.25000386566666
76.0,3851.214942905161,25036.844261544502,4.146947314018599e-05,26.249954441305327
77.0,3474.462391125615,22874.303954449315,2.7056980072072933e-05,27.249905016944
78.0,3145.005768202245,20898.538806991528,1.7652021481668088e-05,28.24985559258267
79.0,2856.2688088979007,19093.46909611026,1.1519374361363448e-05,29.249806168221347
80.0,2602.653159113826,17444.390578995874,0.0,30.249756743860075
81.0,2379.390991636808,15937.857874372163,0.0,31.24970731949876
82.0,2182.4186357446683,14561.577878247053,0.0,32.24965789513746
83.0,2008.2680729399556,13304.311722294651,0.0,33.249608470776174
84.0,1853.9753581088203,12155.785186550993,0.0,34.24955904641488
85.0,1717.003161826708,11106.606819737894,0.0,35.249509622053594
86.0,1595.1751899793157,10148.192226892967,0.0,36.24946019769229
87.0,1486.621390534911,9272.696090363277,0.0,37.24941077333097
88.0,1389.7315555986456,8472.947775417293,0.0,38.249361348969686
89.0,1303.1169884207561,7742.394322088992,0.0,39.24931192460838
90.0,1225.5768114202285,7075.047965950318,0.0,40.24926250024708
91.0,1156.0690270427426,6465.440085528644,0.0,41.24921307588579
92.0,1093.6903882402635,5908.571147262697,0.0,42.2491636515245
93.0,1037.654819122174,5399.87533956162,0.0,43.249114227163204
94.0,987.2780716998028,4935.179201367218,0.0,44.24906480280192
95.0,941.9627983076771,4510.671556307814,0.0,45.249015378440625
96.0,901.1869135953037,4122.869319061997,0.0,46.24896595407933
97.0,864.4929096979258,3768.5920913068658,0.0,47.24891652971804
98.0,831.474584846204,3444.9360825671915,0.0,48.24886710535674
99.0,801.7828522314808,3149.2456372132287,0.0,49.248817680995444
100.0,775.1048043866174,2879.0979977596076,0.0,50.24876825663415
101.0,751.1570303441763,2632.2820100873078,0.0,50.951401910116836
102.0,729.7126712684607,2406.771136881401,0.0,50.951401914823876
103.0,710.5537488469402,2200.7193694857415,0.0,50.951401914823876
104.0,693.4872893536206,2012.4413142045037,0.0,50.951401914823876
105.0,484.3057710416308,2052.978570385041,0.26619933016606667,4.011158477526076
106.0,491.7544625991478,1936.0169352403084,0.27365837487799033,4.011158482389185
107.0,500.07985358127786,1828.3431045553812,0.28143294425066717,4.011158482389185
108.0,509.5885421840535,1729.2717387422763,0.2895214495158212,4.011158482389185
109.0,518.834245451434,1639.9385178946218,0.2979214088271605,4.011158482389185
110.0,525.7366396861917,1563.4476046911127,0.30662937331787965,4.011158482389185
111.0,535.1109655959067,1495.108056560641,0.31564089292182645,4.011158482389185
112.0,547.1298241309862,1434.445065053749,0.3249504747897172,4.011158482389185
113.0,562.0116938530047,1381.055142174394,0.33455154378154944,4.011158482389185
114.0,579.8873377373857,1334.7711488265636,0.3444364151407976,4.011158482389185
115.0,601.0439782900002,1295.4455310912565,0.35459627985049047,4.011158482389185
116.0,625.9345814431082,1262.9197282853204,0.3650212001228912,4.011158482389185
117.0,655.1049442560184,1237.107413213877,0.3757001100304552,4.011158482389185
118.0,689.2094691032187,1218.0039469807418,0.38662083406462666,4.011158482389185
119.0,729.0347333404806,1205.7012229520165,0.39777011114946054,4.011158482389185
120.0,775.5357330212886,1200.3926542658,0.4091336400615778,4.011158482389185
121.0,829.8819872545196,1202.3861084601333,0.42069612037399556,4.011158482389185
122.0,893.5095819198447,1212.1209847125865,0.43244131861171825,4.011158482389185
123.0,968.1861941735991,1230.1937347662565,0.4443521357615755,4.011158482389185
124.0,1056.099152630683,1257.387386982763,0.45641068951368413,4.011158482389185
125.0,1159.9683492701151,1294.7108542600506,0.46859840194960045,4.011158482389185
126.0,1283.1906848067572,1343.4492431493588,0.4808960973879981,4.011158482389185
127.0,1430.030344047208,1405.228373294167,0.49328410596315553,4.011158482389185
128.0,1605.8755473704546,1482.0969566939402,0.5057423720800096,4.011158482389185
129.0,1817.565800510671,1576.635333256922,0.5182505684846153,4.011158482389185
130.0,2073.8346067693888,1692.0955624888047,0.5307882121428414,4.011158482389185
131.0,2385.9000985913126,1832.584099977922,0.5433347182924303,4.011159221293958
132.0,2769.855939148149,2001.4114091393265,0.5554317194013089,4.0163377924833705
133.0,3246.939648024573,2200.017926186883,0.5662644537985031,4.036536012542652
134.0,3839.891483246442,2433.2194138517257,0.5758689772620545,4.071984986424775
135.0,4577.327268940122,2706.9307129895546,0.5843137075125141,4.122646130508571
136.0,5493.781983802189,3030.2432066573683,0.5919119595975751,4.1853985559677325
137.0,6631.922262416638,3419.303543151341,0.5994502589314339,4.250560765592186
138.0,8055.058751688142,3888.288519880443,0.6069748903455091,4.31749731988679
139.0,9845.53702825139,4454.076165367905,0.6144792888483253,4.3862406822029625
140.0,12109.921698791919,5137.34404725137,0.6219570163524046,4.456823626510635
141.0,14985.543982728046,5964.432071612472,0.6294017785048786,4.529279208092762
142.0,18650.337854407295,6970.064711884872,0.6368074405310433,4.603640732016386
143.0,23338.396230249422,8197.964722537667,0.6441680423505172,4.679941720485811
144.0,29358.282919110097,9702.907305357372,0.6514778126228975,4.758215878287884
145.0,37116.919009525205,11553.524399172376,0.6587311817011781,4.838497056364725
146.0,47150.79681137345,13836.050789999714,0.6659227935396397,4.920819213983539
147.0,60167.02170653674,16659.781655342806,0.6730475163453948,5.00521637904082
148.0,77098.80659519936,20163.676154308832,0.6801004520416815,5.091722606755839
149.0,99179.48854790602,24524.446777488105,0.6870769445396622,5.180371936866466
150.0,128040.31034311677,29966.77779877163,0.6939725867522718,5.271198349478375
151.0,165839.42847809326,36776.21136367876,0.7007832262999572,5.364235719315831
152.0,215431.43913178728,45315.60225019366,0.7075049700208411,5.459517768785196
153.0,280589.94732429704,56046.34097339027,0.7141341872177162,5.557078019769542
154.0,366299.3757041934,69555.3923972246,0.7206675116862064,5.65694974454051
155.0,479136.9235112637,86589.54658003492,0.7271018426136925,5.759165916000908
156.0,627771.1547453759,108098.63813982022,0.733434344301473,5.863759157142352
157.0,823610.4917491261,135289.89048985072,0.7396624447883726,5.970761690082504
158.0,1081642.5843156024,169696.0519346467,0.74578383342827,6.080205285090798
159.0,1421516.047380729,213260.78809601397,0.7517964574961078,6.1921212098533305
160.0,1868928.4038822048,268445.51616619475,0.7576985178751394,6.306540179302091
161.0,2457399.7200629325,338362.65397045546,0.7634884638800804,6.423492306310711
162.0,3230527.4699535426,426941.1079707316,0.769164987269895,6.543007053793757
163.0,4244837.671789433,539131.0453483731,0.7747270155595911,6.66511318878334
164.0,5573370.85484461,681156.1610156894,0.7801737046813798,6.789838738906994
165.0,7310166.413052796,860823.0637577088,0.7855044310702219,6.917210951867487
166.0,9575836.031123584,1087898.7285612808,0.7907187832144382,7.047256258565411
167.0,12524439.861589925,1374569.1820017018,0.7958165527878416,7.180000240841767
168.0,16351915.890060226,1735994.236856773,0.8007977254108251,7.3154676044485125
169.0,21306338.83577888,2190975.3496405804,0.8056624711149708,7.453682158209623
170.0,27700320.89992588,2762754.792878941,0.8104111345441856,7.5946668002261335
171.0,35925868.004627496,3479967.252242465,0.8150442249926648,7.7384435125454605
172.0,46472045.89027596,4377766.419558262,0.8195624063249489,7.885033365224754
173.0,59945805.17877696,5499151.138255643,0.823966486838352,8.03445653116383
174.0,77096339.7400171,6896515.530563154,0.8282574090944119,8.186732312897911
175.0,98843295.69360681,8633449.335308919,0.8324362397885224,8.341879183091834
176.0,126308989.13543127,10786818.207617652,0.8365041597396075,8.499914840984045
177.0,160855237.30329844,13449145.610542329,0.8404624539421909,8.660856284468464
178.0,204124427.33580786,16731321.65213062,0.8443125018091165,8.824719902337854
179.0,258085374.59825075,20765668.55538013,0.848055767610477,8.991521586447021
180.0,325083276.86837983,25709374.6628681,0.8516937911444602,9.161276867762195
181.0,407894163.94928986,31748304.286768157,0.8552281786150213,9.334001076248706
182.0,509783054.81284875,39101202.46324626,0.8586605938146668,9.509709528430905
183.0,634564382.5088793,48024300.26109562,0.861992749640208,9.688417745693178
184.0,786665440.3336821,58816267.89128483,0.8652263998425259,9.87014170247625
185.0,971190309.3074875,71823529.17175356,0.8683633311531211,10.054898109632983
186.0,1193982466.7972424,87445897.30850738,0.8714053557756749,10.242704734771007
187.0,1461686452.1815615,106142432.08039103,0.8743543041816321,10.43358075961788
188.0,1781804465.8616147,128437500.65135475,0.8772120183088851,10.627547179059176
189.0,2162747068.9718785,154926892.7029497,0.8799803451258941,10.82462724162038
190.0,2613874955.2511353,186283888.86639228,0.8826611305880975,11.024846932610107
191.0,3145530986.244277,223265224.92462027,0.8852562139700575,11.22823550415826
192.0,3769057216.134887,266716582.79211015,0.8877674226307162,11.43482604443576
193.0,4496799417.6813345,317577703.35425895,0.8901965671395129,11.644656097379734
194.0,5342089757.993782,376886650.3974411,0.8925454368793525,11.857768317141701
195.0,6319216105.022419,445783147.20347166,0.8948157960041608,12.074211167455907
196.0,7443365372.705928,525510746.1385136,0.8970093798794807,12.2940396550257
197.0,8730543747.35013,617417576.0524638,0.8991278919632423,12.517316092614294
198.0,10197482059.77201,722955107.5654625,0.9011730010951982,12.744110881495567
199.0,11861510174.190575,843675230.6558491,0.9031463392784047,12.974503313370708
200.0,13740410757.277857,981224943.4233389,0.9050494999297027,13.208582371401524
201.0,15852262354.21665,1137338116.1619968,0.9068840365695354,13.44644751295935
202.0,18215236539.15679,1313825559.3320086,0.9086514620666591,13.68820944336911
203.0,20847417971.152737,1512560552.577855,0.9103532482831742,13.93399081465933
204.0,23766575231.391644,1735462631.7370985,0.9119908263052999,14.18392687712337
205.0,26989932280.7664,1984477816.5094407,0.9135655871603932,14.438166026225183
206.0,30533935758.616203,2261555438.3117375,0.915078882900266,14.696870270418291
207.0,34414060856.814674,2568620584.375287,0.9165320283876932,14.960215438032327
208.0,38644508305.31475,2907547485.989515,0.9179263033638719,15.22839140502055
209.0,43238023278.50248,3280127011.6275525,0.919262955241527,15.501601883860339
210.0,48205746171.39451,3688029116.3906794,0.9205432017663957,15.780064167035595
211.0,53556901738.53219,4132773563.75903,0.921768234847998,16.064008524045285
212.0,59298723689.59432,4615689537.010206,0.9229392240994418,16.353677292492094
213.0,65436281684.36921,5137881413.775863,0.9240573209583999,16.649323697660666
214.0,71972384254.31073,5700192978.617188,0.9251236628966221,16.951210340619
215.0,78907484286.84927,6303175061.467048,0.9261393778374893,17.25960735887972
216.0,86239720566.89796,6947047012.408981,0.9271055884528581,17.574790168043705
217.0,93964950936.42131,7631691104.780016,0.9280234164595096,17.897037006567427
218.0,102075847098.77686,8356654352.79159,0.9288939890665397,18.226626306985604
219.0,110563946159.25456,9121039490.048746,0.9297184384387456,18.563832936414883
220.0,119418306274.44846,9923605398.989311,0.9304979079666095,18.908925954759084
221.0,128625269246.29584,10762750760.748026,0.9312335578175641,19.26216402144149
222.0,138170403529.81195,11636452158.456223,0.9319265616482297,19.623792451784027
223.0,148037369520.3498,12542355083.234497,0.9325781124903563,19.9940394329309
224.0,158208357841.6335,13477795728.451727,0.9331894233124743,20.373112624634103
225.0,168664336766.24185,14439835868.821198,0.9337617278795716,20.76119527799425
226.0,179385581338.8856,15425291272.441816,0.9342962794518236,21.158443016079154
227.0,190351794262.49133,16430797461.064196,0.9347943500117184,21.564981101708728
228.0,201542355668.09503,17452866067.53401,0.9352572285824488,21.980901863308283
229.0,212936539251.6126,18487948363.575787,0.9356862191027936,22.40626233439348
230.0,224513832460.7258,19532495479.1067,0.9360826372796891,22.841081911260375
231.0,236254284166.2981,20583011552.838417,0.9364478063298951,23.28534142056065
232.0,248138628202.68732,21636121928.592056,0.9367830533697659,23.738982452819283
233.0,260148488475.19818,22688629563.425484,0.9370897052443975,24.20190697550067
234.0,272266538631.49594,23737572983.33473,0.9373690842437397,24.673977119477414
235.0,284476780294.2399,24780264901.371063,0.9376225029178901,25.155015496324854
236.0,296764642705.08936,25814342788.42185,0.9378512595235912,25.64480594958384
237.0,309117094423.62274,26837780786.857357,0.9380566341824507,26.143096161644785
238.0,321522552006.30396,27848949558.02964,0.9382398857993222,26.649598048928453
239.0,333971442801.53796,28846632676.727802,0.9384022437048962,27.16398715888441
240.0,346455666487.3926,29829955265.835434,0.9385449127683163,27.68591181035768
241.0,358969212247.18536,30798598148.746468,0.9386690571869101,28.214982366219242
242.0,371507462685.7981,31752461336.46918,0.9387758188678414,28.75079130872921
243.0,384068490900.8595,32692110336.328884,0.9388662823353624,29.29289068599829
244.0,396650977908.79803,33618362278.09159,0.9389415140445644,29.840820000116462
245.0,409256571469.6043,34532435592.37916,0.9390025286159214,30.39408957025529
246.0,421888235642.8483,35435973608.059586,0.9390503044363502,30.952189287287233
247.0,434551198467.9958,36330985800.73381,0.9390857748475826,31.514586378084736
248.0,447252094173.2324,37219843582.064865,0.9391098379688033,32.08073058961076
249.0,459999859240.44244,38105280042.45938,0.9391233468890218,32.650049925819616
250.0,472805076999.597,38990323310.6511,0.9391271203017597,33.22195564681435
251.0,485680404137.2252,39878383854.96777,0.939121934555399,33.79583786484935
252.0,498640510060.07623,40773152863.10022,0.9391085319271572,34.37106845725764
253.0,511701942779.66364,41678652285.17593,0.9390876200833193,34.94699981873249
254.0,524883679065.5511,42599223878.98924,0.9390598707986737,35.52296142345411
