Time,J,A,S,tau
0.0,100.0,100.0,0.6277638455156117,31.25
1.0,11798.224767071744,1507.1122274569925,0.6290109555862639,31.055800831619255
2.0,45594.63223517507,2878.6073618286987,0.6302409661621774,30.861600590918393
3.0,100211.00593286901,4215.184721120172,0.6314537182213684,30.66740035021753
4.0,174404.3291150982,5517.537359550347,0.6326490662647467,30.473200109516664
5.0,266966.8034216563,6786.346742414568,0.6338268717396206,30.278999868815802
6.0,376725.8144054769,8022.283043887008,0.6349870031556889,30.08479962811494
7.0,502543.9309860915,9226.005377632711,0.6361293361976778,29.890599387414078
8.0,643318.7869943158,10398.162105799476,0.6372537538328478,29.696399146713215
9.0,797983.0351590401,11539.391043867328,0.6383601464164814,29.502198906012353
10.0,965504.250688161,12650.31967994605,0.6394484117947034,29.30799866531149
11.0,1144884.6802937766,13731.565515097725,0.6405184554011584,29.113798424610625
12.0,1335161.1443772814,14783.736128466608,0.6415701903302721,28.919598183909763
13.0,1535404.8053227304,15807.429545818673,0.6426035374620274,28.7253979432089
14.0,1744721.0915014562,16803.23413951463,0.6436184255158222,28.531197702508035
15.0,1962248.9029239495,17771.729381809517,0.6446147911151143,28.336997461807172
16.0,2187160.9333106796,18713.48546008102,0.6455925789045057,28.14279722110631
17.0,2418663.0090103215,19629.06375137071,0.64655174159686,27.948596980405448
18.0,2655993.735061688,20519.01689450169,0.6474922400141426,27.754396739704585
19.0,2898424.195484404,21383.888982237135,0.6484140431872137,27.560196499003723
20.0,3145257.319889421,22224.215796092158,0.6493171283595517,27.36599625830286
21.0,3395827.723020717,23040.524808442326,0.6502014810992011,27.171796017601995
22.0,3649500.9270434356,23833.335433786204,0.6510670952688692,26.977595776901133
23.0,3905672.917670009,24603.15935327403,0.6519139731331178,26.78339553620027
24.0,4163769.7284463863,25350.5001327162,0.6527421253034732,26.589195295499408
25.0,4423246.551216862,26075.853996265054,0.6535515708083058,26.394995054798546
26.0,4683589.349738926,26779.707472583566,0.6543423373380328,26.200794814097684
27.0,4955762.358146462,32310.272693992258,0.6540283672631708,26.168736398926967
28.0,5360110.005595083,51962.4579834725,0.6534993096341669,26.168736398926967
29.0,6060544.006402634,84969.19490631328,0.6529717016905839,26.168736398926967
30.0,7200295.795766658,130316.53074922251,0.6524457041760409,26.168736398926967
31.0,8902894.414292483,187030.3084854728,0.6519214776474277,26.168736398926967
32.0,11273606.425032241,254175.56249677745,0.6513991824205533,26.168736398926967
33.0,14400813.647091152,330855.91077290464,0.6508789785154863,26.168736398926967
34.0,18357342.910804465,416212.91027899284,0.6503610256018276,26.168736398926967
35.0,23201723.697758295,509425.42775782815,0.6498454829436202,26.168736398926967
36.0,28979404.011872776,609708.9558832487,0.6493325093444349,26.168736398926967
37.0,35723878.26799743,716314.9979197975,0.6488222630913025,26.168736398926967
38.0,43457826.66255538,828530.2408515008,0.6483149019009099,26.168736398926967
39.0,52194088.58740667,945676.0185902878,0.6478105828621759,26.168736398926967
40.0,61936713.33991616,1067107.3732397556,0.6473094623835794,26.168736398926967
41.0,72681807.73187108,1192212.5800840685,0.6468116961329514,26.168736398926967
42.0,84418472.34226127,1320412.122260063,0.6463174389878104,26.168736398926967
43.0,97129585.338912,1451158.062233847,0.6458268449767992,26.168736398926967
44.0,110792575.95752849,1583933.2338075957,0.6453400672244146,26.168736398926967
45.0,125380126.40897608,1718250.4823489927,0.6448572578958083,26.168736398926967
46.0,140860852.45604253,1853651.8189359857,0.6443785681415086,26.168736398926967
47.0,157199919.2195533,1989707.5878811898,0.6439041480441994,26.168736398926967
48.0,174359611.5531785,2126015.6640264946,0.6434341465627186,26.168736398926967
49.0,192299861.6848938,2262200.617005955,0.6429687114782344,26.168736398926967
50.0,210978728.23205858,2397912.90561816,0.6425079893388859,26.168736398926967
51.0,230352861.50000444,2532827.964883513,0.6420521254080623,26.168736398926967
52.0,250377895.3218321,2666645.4280052637,0.6416012636086142,26.168736398926967
53.0,271011238.8621635,2804251.357825161,0.6411555464607727,26.168736398926967
54.0,292436123.38116765,3015347.2175146136,0.6407151150565956,26.168736398926967
55.0,315643977.8643254,3404105.7081770636,0.6402801089809823,26.168736398926967
56.0,342451446.677081,4060321.4105374333,0.6398506662688618,26.168736398926967
57.0,375322558.99863863,5059653.060959456,0.6394269233530768,26.168736398926967
58.0,417211671.7824592,6464804.69721922,0.6390090150134466,26.168736398926967
59.0,471427034.0169892,8326645.294551409,0.6385970743258288,26.168736398926967
60.0,541513205.942442,10685274.784918536,0.6381912326124332,26.168736398926967
61.0,631150330.0050162,13571029.62351028,0.6377916193920612,26.168736398926967
62.0,744068754.6063542,17005434.34991278,0.6373983623313254,26.168736398926967
63.0,883977309.4920356,21002097.687913477,0.6370115871963544,26.168736398926967
64.0,1054503622.0763189,25567555.04672372,0.6366314178049349,26.168736398926967
65.0,1259146192.8176956,30702057.942241993,0.6362579759799074,26.168736398926967
66.0,1501234924.844409,36400312.900544524,0.6358913815021546,26.168736398926967
67.0,1783901292.3009279,42652171.509672426,0.6355317520656978,26.168736398926967
68.0,2110055558.14357,49443270.60479925,0.6351792032322038,26.168736398926967
69.0,2482370996.090737,56755629.082011014,0.6348338483885695,26.168736398926967
70.0,2903271919.0565,64568197.14993064,0.634495798700598,26.168736398926967
71.0,3374931408.6112895,72857359.77732521,0.6341651630735655,26.168736398926967
72.0,3899265283.978566,81597410.47907628,0.633842048105506,26.168736398926967
73.0,4477938261.620077,90760976.1373805,0.6335265580551156,26.168736398926967
74.0,5112367733.7553,100319402.30111675,0.6332187947944184,26.168736398926967
75.0,5803729669.514891,110243113.72267589,0.6329188577685126,26.168736398926967
76.0,6552971229.482116,120501928.55906126,0.6326268439629483,26.168736398926967
77.0,7360821534.878743,131065346.72607304,0.6323428478655739,26.168736398926967
78.0,8227801051.364171,141902816.23604405,0.6320669614254631,26.168736398926967
79.0,9154237479.541273,152983904.57183933,0.6317992740216196,26.168736398926967
80.0,10140423807.31033,164408948.31371143,0.631539872414975,26.168736398926967
81.0,11188577855.0287,176765705.88403964,0.6312888407524617,26.168736398926967
82.0,12306587159.877192,191160976.29249674,0.6310462604962478,26.168736398926967
83.0,13511233708.136826,209098471.71992323,0.6308122104063694,26.168736398926967
84.0,14830471911.812254,232372858.39101753,0.6305867665093325,26.168736398926967
85.0,16304941494.011162,262978619.6295555,0.6303700020681461,26.168736398926967
86.0,17988844629.69122,303032402.8691111,0.6301619875549487,26.168736398926967
87.0,19950315627.540592,354707650.87732327,0.6299627906236436,26.168736398926967
88.0,22271395974.13442,420180030.90837777,0.6297724760827844,26.168736398926967
89.0,25047696919.013317,501582500.0295182,0.6295911058714402,26.168736398926967
90.0,28387814141.28644,600969023.19312,0.629418739035395,26.168736398926967
91.0,32412588388.954998,720285692.1342237,0.6292554317024087,26.168736398926967
92.0,37254232762.330284,861348652.4721739,0.6291012370634256,26.168736398926967
93.0,43055404041.838104,1025827543.1712945,0.6289562053487959,26.168736398926967
94.0,49968214822.37962,1215234247.2455184,0.6288203838119302,26.168736398926967
95.0,58153250733.425255,1430915642.5623248,0.6286938167081447,26.168736398926967
96.0,67778601810.76607,1674050228.842405,0.6285765452791084,26.168736398926967
97.0,79018913789.00032,1945647804.5641658,0.6284686077363063,26.168736398926967
98.0,92054524509.96516,2246551678.849406,0.6283700392471739,26.168736398926967
99.0,107070602453.7576,2577443102.3122478,0.6282808719197975,26.168736398926967
100.0,124256400082.57536,2938847385.6650705,0.6282011347913288,26.168736398926967
101.0,143804562519.8678,3331141419.344759,0.6281308538167434,26.168736398926967
102.0,165910497947.036,3754562273.4723845,0.6280700518580432,26.168736398926967
103.0,190771854944.578,4209216652.384677,0.6280187486797141,26.168736398926967
104.0,218587971461.0452,4695090797.767612,0.627976960930268,26.168736398926967
105.0,249559652605.14047,5212055601.455021,0.6279447021504335,26.168736398926967
106.0,283888590301.3558,5759985604.883257,0.6279219827529393,26.168736398926967
107.0,321780178148.17957,6339904529.906751,0.6279088100354273,26.168736398926967
108.0,363457915885.9129,6956339258.424847,0.627905188151867,26.168736398926967
109.0,409194926773.34906,7619254548.506365,0.6279111181447438,26.168736398926967
110.0,459358420206.0743,8345468803.494705,0.6279265979173578,26.168736398926967
111.0,514463101291.30396,9159496346.424416,0.6279516222463016,26.168736398926967
112.0,575230606739.2412,10094007565.685907,0.6279861827814673,26.168736398926967
113.0,642652705939.8694,11189962040.678736,0.6280302680495625,26.168736398926967
114.0,718055940770.0077,12496495940.29415,0.6280838634570488,26.168736398926967
115.0,803166495196.0979,14070610892.058556,0.6281469512970452,26.168736398926967
116.0,900174270807.6509,15976726168.203058,0.6282195107563203,26.168736398926967
117.0,1011795553660.6086,18286133811.461227,0.6283015179232401,26.168736398926967
118.0,1141333670928.1973,21076392629.32993,0.628392945796096,26.168736398926967
119.0,1292736955616.811,24430684855.24031,0.6284937642941605,26.168736398926967
120.0,1470654506086.3757,28437161832.313705,0.6286039402697403,26.168736398926967
121.0,1680489590015.6667,33188297696.610123,0.6287234375209929,26.168736398926967
122.0,1928451009087.0144,38780264780.76026,0.628852216805233,26.168736398926967
123.0,2221601508344.2,45312341759.976204,0.6289902358540695,26.168736398926967
124.0,2567904675388.2295,52886360021.10813,0.6291374493905023,26.168736398926967
125.0,2976270200875.7524,61606197243.752846,0.6292938091464694,26.168736398926967
126.0,3456598251321.848,71577320038.31233,0.6294592638811687,26.168736398926967
127.0,4019821803203.8237,82906381098.69618,0.6296337594002418,26.168736398926967
128.0,4677948423564.949,95700866039.68227,0.6298172385775964,26.168736398926967
129.0,5444101816549.287,110068793633.52936,0.6300096413776346,26.168736398926967
130.0,6332564212445.648,126118463930.56984,0.6302109048784877,26.168736398926967
131.0,7358815688104.747,143958263868.92722,0.6304209632951306,26.168736398926967
132.0,8539577447681.143,163696521555.71967,0.630639748006057,26.168736398926967
133.0,9892857400984.477,185443072566.56314,0.6308671875793462,26.168736398926967
134.0,11438029253742.71,209318244059.3935,0.6311032078003705,26.168736398926967
135.0,13196037092161.777,235472184840.87466,0.6313477317004547,26.168736398926967
136.0,15189809968343.324,264112130492.17807,0.6316006795868352,26.168736398926967
137.0,17444960636011.389,295535246077.62134,0.6318619690729327,26.168736398926967
138.0,19990834636756.21,330164959301.57117,0.6321315151096132,26.168736398926967
139.0,22861947935226.184,368589060260.52094,0.6324092300191971,26.168736398926967
140.0,26099844146742.21,411598565228.0565,0.6326950235290933,26.168736398926967
141.0,29755401384071.996,460226405373.5782,0.6329888028065239,26.168736398926967
142.0,33891599833551.668,515785581273.00024,0.6332904724925237,26.168736398926967
143.0,38586815298304.875,579905388776.9662,0.6335999347416502,26.168736398926967
144.0,43938548119859.08,654566948015.869,0.6339170892572662,26.168736398926967
145.0,50067697083636.055,742136632176.4183,0.634241833330778,26.168736398926967
146.0,57123340095660.83,845397929239.6381,0.6345740618810536,26.168736398926967
147.0,65288038358667.22,967581675300.6925,0.6349136674947067,26.168736398926967
148.0,74783672116553.94,1112394758881.6538,0.6352605404672362,26.168736398926967
149.0,85877816068764.98,1284047439016.281,0.6356145688450001,26.168736398926967
150.0,98890662974107.16,1487279449931.0,0.6359756384680026,26.168736398926967
151.0,114202504547371.02,1727385084914.711,0.6363436330134754,26.168736398926967
152.0,132261779428953.23,2010237463488.8013,0.6367184340402285,26.168736398926967
153.0,153593699051646.7,2342312189240.569,0.6370999210337532,26.168736398926967
154.0,178809467759048.56,2730710598786.7925,0.637487971452043,26.168736398926967
155.0,208616093676906.62,3183182859463.1533,0.6378824607720683,26.168736398926967
156.0,243826815809172.78,3708151011933.0264,0.6382832625370407,26.168736398926967
157.0,285372159101060.94,4314732212824.7095,0.6386902484042889,26.168736398926967
158.0,334311627556893.94,5012762297823.258,0.6391032881937551,26.168736398926967
159.0,391846051730444.7,5812821493679.417,0.639522249937097,26.168736398926967
160.0,459330689665855.44,6726281644578.943,0.6399469999273688,26.168736398926967
161.0,538289588128411.25,7765426290444.154,0.6403774027692573,26.168736398926967
162.0,630432444934392.5,8943701862443.137,0.640813321429847,26.168736398926967
163.0,737675960527867.2,10276146880681.693,0.6412546172898853,26.168736398926967
164.0,862172324386210.4,11780035273031.602,0.6417011501955238,26.168736398926967
165.0,1006348065783797.2,13475760702987.594,0.6421527785105045,26.168736398926967
166.0,1172956927794503.2,15387983206184.264,0.642609359168728,26.168736398926967
167.0,1365150951082376.0,17547052497862.326,0.6430707477272891,26.168736398926967
168.0,1586574305494833.0,19990719636610.61,0.6435367984198518,26.168736398926967
169.0,1841484747856032.8,22766146366409.367,0.6440073642103472,26.168736398926967
170.0,2134907915702458.2,25932218113333.508,0.6444822968469789,26.168736398926967
171.0,2472829975717123.5,29562167565796.074,0.6449614469165047,26.168736398926967
172.0,2862434409718565.5,33746512770506.723,0.6454446638987689,26.168736398926967
173.0,3312388974989204.0,38596314682787.375,0.6459317962214526,26.168736398926967
174.0,3833189112929535.5,44246758825938.58,0.6464226913150152,26.168736398926967
175.0,4437564300339930.5,50861065944570.49,0.6469171956677968,26.168736398926967
176.0,5140954176161019.0,58634736637521.76,0.6474151548812525,26.168736398926967
177.0,5962061075121710.0,67800137948446.42,0.6479164137252669,26.168736398926967
178.0,6923486041563101.0,78631434631168.23,0.6484208161935855,26.168736398926967
179.0,8052455726819459.0,91449873330460.61,0.6489282055592756,26.168736398926967
180.0,9381647333672052.0,106629427804338.73,0.6494384244301926,26.168736398926967
181.0,1.0950119064954992e+16,124602812575916.67,0.6499513148044339,26.168736398926967
182.0,1.2804353578988882e+16,145867873295872.25,0.6504667181257454,26.168736398926967
183.0,1.499942200723113e+16,170994362392190.12,0.6509844753388576,26.168736398926967
184.0,1.7600276114169714e+16,200631108887583.28,0.651504426944718,26.168736398926967
185.0,2.0683176172677496e+16,235513592102613.97,0.6520264130555954,26.168736398926967
186.0,2.4337262275734108e+16,276471974020060.38,0.6525502734500233,26.168736398926967
187.0,2.86662795253485e+16,324439884844943.2,0.6530758476275574,26.168736398926967
188.0,3.379047313380011e+16,380464727344798.56,0.6536029748633172,26.168736398926967
189.0,3.9848686604916664e+16,445720733547164.5,0.6541314942622972,26.168736398926967
190.0,4.700072234059481e+16,521526332209027.5,0.6546612327587469,26.168737509081375
191.0,5.542971216407718e+16,609231414691702.2,0.6551786186221451,26.169975616925086
192.0,6.5339177702722504e+16,709898998648884.0,0.655635780900022,26.176856161005755
193.0,7.695446199593133e+16,825072038038808.4,0.6560284590756801,26.189776882992053
194.0,9.052958642423186e+16,956546361247304.4,0.656357232066972,26.208691717446435
195.0,1.0635143587335557e+17,1106379523212047.2,0.656622711509326,26.233553216723394
196.0,1.2474478305952275e+17,1276954031718710.8,0.6568255402375758,26.264312591504574
197.0,1.460785181579386e+17,1471053372350650.0,0.6569663907706644,26.30091975100275
198.0,1.7077332555505898e+17,1691951445919441.0,0.6570459638024677,26.343323342805565
199.0,1.9931105380495766e+17,1943515872693905.0,0.6570649867021743,26.391470792291752
200.0,2.3224603171495862e+17,2230325359017334.8,0.6570242120256021,26.445308341664642
201.0,2.7021860099767443e+17,2557801143628865.0,0.6569244160413175,26.504781088542234
202.0,3.139711147069975e+17,2932352442290232.5,0.6567663972742279,26.56983302404563
203.0,3.643666548032435e+17,3361535606423082.0,0.6565509750686762,26.640407070381723
204.0,4.224107108351998e+17,3854226597351410.5,0.6562789881732111,26.71644511789594
205.0,4.892760485158687e+17,4420806256844911.0,0.655951293349045,26.797888061572383
206.0,5.663309811326768e+17,5073357736198165.0,0.6555687640040491,26.884675836960177
207.0,6.551712376693394e+17,5825875370736053.0,0.6551322888539673,26.9767474555061
208.0,7.576556001562218e+17,6694484215208746.0,0.654642770612382,27.074041039275127
209.0,8.759454713102141e+17,7697669389892158.0,0.654101124710848,27.17649385504361
210.0,1.012548489300164e+18,8856514527737647.0,0.6535082780505274,27.28404234772838
211.0,1.1703662475669046e+18,1.019494835257965e+16,0.6528651677858027,27.396622173177114
212.0,1.352746270959015e+18,1.1739998269520372e+16,0.6521727401414158,27.514168230300275
213.0,1.563538249447624e+18,1.3522050222993302e+16,0.6514319492639361,27.63661469250211
214.0,1.8071545629788767e+18,1.5575114307233032e+16,0.6506437561081014,27.76389503841693
215.0,2.0886351110648753e+18,1.7937096648100294e+16,0.6498091273585933,27.895942081941612
216.0,2.4137164801191173e+18,2.0650080176180344e+16,0.6489290343876872,28.032688001556284
217.0,2.788905552697821e+18,2.3760620538371824e+16,0.6480044522491087,28.17406436892621
218.0,3.221557809334431e+18,2.7320067853997024e+16,0.6470363587083189,28.320002176779226
219.0,3.7199600551910994e+18,3.138524229836479e+16,0.6460262748182313,28.470378705131655
220.0,4.293546118003396e+18,3.60372509333675e+16,0.6450047662355372,28.622209000034328
221.0,4.953266244507071e+18,4.135915835223245e+16,0.6439866605659531,28.774024633513935
222.0,5.711478286168851e+18,4.743408832614096e+16,0.6429722268496917,28.925781429371177
223.0,6.582041376582326e+18,5.4354036873392984e+16,0.6419617381185959,29.077434254843904
224.0,7.580472238571697e+18,6.2220981908199784e+16,0.6409554680465248,29.228937351204728
225.0,8.724123215024091e+18,7.114822747316819e+16,0.6399536909168346,29.38024433939584
226.0,1.003238193335275e+19,8.126204072099573e+16,0.6389566815901363,29.531308225903203
227.0,1.1526905903451236e+19,9.270360119407989e+16,0.6379647154722285,29.682081409549074
228.0,1.3231890848821076e+19,1.056313387872816e+17,0.636978068482277,29.832515688518964
229.0,1.5174383397399816e+19,1.2022369983000357e+17,0.6359970170211217,29.982562267993913
230.0,1.7384645479948673e+19,1.3668239849003606e+17,0.6350218379396774,30.132171768330853
231.0,1.989657935736055e+19,1.5523620976175773e+17,0.6340528085073682,30.28129423380827
232.0,2.2748223132112536e+19,1.7614535956251354e+17,0.6330902063805319,30.429879141954096
233.0,2.5982328488357024e+19,1.9970656398515616e+17,0.632134309570695,30.577875413525444
234.0,2.964702814604227e+19,2.2625880071925677e+17,0.6311853964127648,30.72523142293866
235.0,3.3796611627303678e+19,2.5618984541252576e+17,0.6302437455328946,30.87189500946585
236.0,3.849242141675054e+19,2.899436245897665e+17,0.629309635815943,31.017813489193315
237.0,4.380387906885696e+19,3.280284801865482e+17,0.6283833463725896,31.162933667497892
238.0,4.980966117820588e+19,3.7102638242833594e+17,0.6274651565058906,31.30720185226717
239.0,5.659903992636355e+19,4.196031571110865e+17,0.6265553456771926,31.45056386784153
240.0,6.427340381894331e+19,4.7451980362214906e+17,0.6256541934713193,31.59296506965445
241.0,7.294798393644188e+19,5.366449394121366e+17,0.6247619795608146,31.73435035969648
242.0,8.2753793583372e+19,6.069684278965162e+17,0.6238789836692016,31.874664202830026
243.0,9.383980496945444e+19,6.866162793413325e+17,0.6230054855331559,32.01385064386117
