Time,J,A,S,tau
0.0,100.0,100.0,0.6831781476503646,17.52906018529992
1.0,3388.662544670968,681.9237941206882,0.6833288916443374,17.60265438973991
2.0,12217.65630423797,1235.2348336373325,0.6834852642333457,17.679221797834558
3.0,26219.22962529365,1761.447579896466,0.6836470795335241,17.758682552816122
4.0,45046.18539432976,2261.9936303584914,0.6838141552937697,17.840957143160097
5.0,68370.72918713829,2738.2236323622556,0.6839863116026006,17.92596578752997
6.0,95883.39790030972,3191.4121364349453,0.6841633708619929,18.013628446314403
7.0,127292.01214369352,3622.7622637322,0.6843451577557349,18.103864833012015
8.0,162320.7446624677,4033.409885115614,0.6845314992170266,18.19659442496869
9.0,200709.18700933806,4424.427714833328,0.6847222243899301,18.291736474061818
10.0,242211.49150501756,4796.8290769966525,0.68491716458717,18.389210017059554
11.0,286595.63540506474,5151.571171319053,0.6851161532510875,18.488933885050752
12.0,333642.44228229043,5489.559063710478,0.6853190258965063,18.59082671397108
13.0,383145.16109632736,5811.6478159156,0.6855256200713635,18.694806952867065
14.0,434908.60437970294,6118.645986991458,0.6857357752906409,18.800792874051528
15.0,488748.3652906395,6411.3187182686825,0.6859493329844012,18.908702581408118
16.0,544490.5586542551,6690.389244635581,0.6861661364393629,19.01845401878295
17.0,601970.9646053661,6956.542124318825,0.6863860307325875,19.12996497855967
18.0,661034.6101258101,7210.425141271524,0.6866088626596033,19.24315311019065
19.0,721535.298881273,7452.651198065593,0.6868344806797868,19.35793592689288
20.0,784073.2431269307,8372.535959605737,0.6869769592831987,19.432613527780326
21.0,866863.5623281145,12517.684833189298,0.6870600939575815,19.47857164404506
22.0,1002687.6764906707,19868.96560550492,0.6871402384541807,19.523094216329977
23.0,1221502.8854401577,30150.571755000223,0.6872173809705757,19.56615333118534
24.0,1550059.11487324,43105.11299905222,0.6872915101414814,19.607721564125598
25.0,2012131.4412902475,58492.42325882163,0.6873626150041194,19.647772011299633
26.0,2628737.316715337,76088.44579787807,0.6874306849635032,19.68627832135905
27.0,3418339.6209338442,95684.19129818381,0.6874957097579127,19.723214727617584
28.0,4397034.758495648,117084.76715257621,0.6875576794244287,19.75855608018368
29.0,5578730.6066390565,140108.4633705349,0.6876165842651825,19.792277878418975
30.0,6975308.809116327,164585.90873293887,0.6876724148137954,19.82435630322368
31.0,8596779.485080589,190359.27148487727,0.6877251618029183,19.854768249556063
32.0,10451425.154032309,217281.50307773822,0.6877748161320884,19.88349135702656
33.0,12545926.868706204,245215.68935454564,0.687821368837726,19.910504046140762
34.0,14885496.02130932,274034.3432166446,0.6878648110626215,19.93578554481977
35.0,17473987.306792695,303618.8172925932,0.68790513402858,19.959315922058515
36.0,20314006.72883754,333858.73352600506,0.6879423290108988,19.98107612068572
37.0,23407005.218622424,364651.46922794566,0.6879763873111586,20.001047985655433
38.0,26753378.149033263,395901.63289768546,0.6880073002367106,20.019214296440865
39.0,30352546.24918577,427520.62148411875,0.6880350590769844,20.035558795204775
40.0,34203386.14621945,460186.9632688439,0.6880596550862121,20.050066211056738
41.0,38348368.6309536,506828.24575451383,0.6880810794727238,20.062722295270476
42.0,43008553.46664686,588757.7910247399,0.6880993233774394,20.073513844738777
43.0,48606250.54655842,725058.1667315541,0.688114377865611,20.082428728557357
44.0,55737071.54061854,932455.7000788249,0.6881262339185018,20.089455913064654
45.0,65143708.60918796,1225502.8139882933,0.6881348824279369,20.09458548586728
46.0,77691890.85899642,1616747.9398751366,0.6881403141938464,20.097808678495092
47.0,94348452.23212136,2116893.1031821375,0.6881425199249469,20.09911788796511
48.0,116161231.3233859,2734940.7329619667,0.6881414902425367,20.09850669689113
49.0,144240728.20944327,3478330.128057266,0.6881372156875485,20.095969892171567
50.0,179743429.40365943,4353064.1770978235,0.6881296867309569,20.091503482166846
51.0,223856553.64452863,5363827.256015663,0.6881188937874423,20.085104712421064
52.0,277784208.2441521,6514094.880915813,0.6881048272324741,20.076772079600147
53.0,342734891.4679556,7806235.131781951,0.6880874774228435,20.06650534401654
54.0,419910028.64470893,9241604.038261002,0.6880668347204127,20.054305539593898
55.0,510493831.7106772,10820632.339136964,0.6880428895194814,20.04017498336451
56.0,615643835.5396821,12542907.938315425,0.6880156322771362,20.024117281988563
57.0,736482694.2282689,14407251.33882886,0.6879850535471849,20.006137336768912
58.0,874090760.2282515,16411785.899980605,0.6879511440171184,19.986241346293998
59.0,1029499018.9522542,18554004.268036895,0.6879138945478549,19.96443680793787
60.0,1203683481.442615,20831898.117003728,0.6878732962176191,19.940732519000598
61.0,1397675216.6396213,23289983.750945132,0.6878293403666964,19.9151385683307
62.0,1613444050.0272324,26115449.885870956,0.6877820186477256,19.88766633629041
63.0,1855370864.9469242,29641965.934299618,0.6877313230757074,19.858328485929697
64.0,2131551264.1816056,34326501.91648392,0.6876772460819198,19.827138953930366
65.0,2454843809.9847007,40727972.760508806,0.6876197805698157,19.794112939560826
66.0,2843683783.7851133,49487689.59183005,0.6875589199727894,19.759266891477694
67.0,3322687736.018953,61311485.37596665,0.6874946583138796,19.722618492623727
68.0,3923063544.348027,76953402.8949095,0.6874269902667911,19.68418664285268
69.0,4682850646.0438795,97200849.31456062,0.6873559112185359,19.643991440081294
70.0,5646999275.677631,122861096.38274969,0.6872814173327416,19.602054158939477
71.0,6867316981.997439,154749034.54296276,0.6872035056141547,19.558397228065818
72.0,8402284146.084548,193676111.00184634,0.6871221739734078,19.51304420527097
73.0,10316758716.0644,240440363.86018842,0.6870374212921272,19.466019751036967
74.0,12681588715.096869,295817453.66887903,0.686949247487996,19.41734960024794
75.0,15573129614.685478,360552676.70648694,0.6868576535796527,19.36706053247818
76.0,19072698527.780922,435353824.670585,0.6867626417509142,19.315180340524204
77.0,23265954334.71558,520884920.14401966,0.6866642154137993,19.261737797292113
78.0,28242226004.587452,617760686.5700303,0.6865623792715515,19.2067626220763
79.0,34093804829.79915,726541753.2679325,0.6864571393783602,19.15028544417383
80.0,40915309791.21224,847814848.6742978,0.686348503199784,19.092337766882757
81.0,48805790406.991936,982920600.9100624,0.6862364796691863,19.0329519290351
82.0,57880668610.83876,1135253533.7885265,0.6861210792433191,18.97216106627458
83.0,68295503307.15196,1311408102.1566825,0.686002313953953,18.909999070686577
84.0,80278971821.27774,1522074954.285981,0.6858801974595334,18.84650055080257
85.0,94172301109.76543,1782693738.0240896,0.6857547450911682,18.781700789593007
86.0,110472622122.79143,2113898163.6030755,0.6856259738972649,18.715635702589637
87.0,129878099169.14674,2541766560.951978,0.6854939026843654,18.648341795242622
88.0,153332830993.98907,3097900409.8243475,0.6853585520546722,18.579856119896665
89.0,182069830370.2857,3819349025.4889007,0.685219944440027,18.510216232452475
90.0,217650610360.70938,4748397944.909703,0.6850781041322098,18.43946014881573
91.0,262000128192.33188,5932237666.105059,0.6849330573094466,18.367626301234463
92.0,317436048830.5522,7422528643.992293,0.6847848320590277,18.294753494624196
93.0,386691491250.4229,9274877363.427132,0.6846334583959649,18.220880862978063
94.0,472930609388.79156,11548237782.92396,0.6844789682776287,18.146047825956835
95.0,579756539077.4945,14304251536.546835,0.6843213956143298,18.07029404575113
96.0,711211411483.1997,17606539663.800266,0.6841607762758258,17.99365938430506
97.0,871768443437.032,21519956994.560074,0.6839971480936546,17.916183860988774
98.0,1066315593310.5498,26110077681.13449,0.6838305508598149,17.83790761079874
99.0,1300143543062.9402,31446600224.01795,0.6836610263209135,17.758870843170108
100.0,1578997957715.7622,37617846004.69738,0.6834886181681149,17.679113801462442
101.0,1909304456340.1953,44756986471.323944,0.6833133720249689,17.59867672320971
102.0,2298646975503.411,53076479013.0764,0.6831353354282187,17.51759980121888
103.0,2756552380520.9946,62907719811.25706,0.6829545578089491,17.43592314544325
104.0,3295594699669.278,74742514152.50514,0.6827710904657867,17.353686746017537
105.0,3932808000528.9946,89274464172.97339,0.6825849865382966,17.270930437049245
106.0,4691375826936.81,107437654589.43556,0.682396300975145,17.187693861582826
107.0,5602546324718.037,130441037625.08786,0.6822050904996364,17.10401643761204
108.0,6707713888427.901,159796819552.00327,0.6820114135715794,17.019937325332545
109.0,8060583260322.682,197342127652.2275,0.6818153303474324,16.93549539537082
110.0,9729343846644.695,245252613017.6746,0.6816169026368426,16.85072919835823
111.0,11798773058845.701,306047622524.7125,0.6814161938568746,16.765676935712985
112.0,14372190235854.693,382586615636.5126,0.6812132689840653,16.68037643163329
113.0,17573173301695.021,478056744967.38275,0.6810081945043168,16.59486510635328
114.0,21546976726491.75,595951609190.182,0.6808010383605281,16.509179950766494
115.0,26461581807851.582,740044961171.125,0.6805918698987756,16.42335750225917
116.0,32508438767299.363,914398726227.4763,0.6803807598127403,16.337433821885984
117.0,39903505160652.44,1123512846125.2644,0.6801677800866296,16.25144447288337
118.0,48890031859628.01,1372726866012.2407,0.679953003937212,16.165424500391055
119.0,59745324987317.91,1668934075819.9553,0.6797365057543155,16.079408412618456
120.0,72793694629355.77,2021624949085.926,0.6795183610407416,15.993430163234672
121.0,88427744984641.4,2444237830465.454,0.6792986463514011,15.907523135067448
122.0,107139632735802.52,2955766864607.319,0.6790774392319034,15.821720125084184
123.0,129563268012710.03,3582554844865.461,0.6788548181567678,15.736053330634446
124.0,156527690493871.22,4360184116432.972,0.6786308624673991,15.650554336932801
125.0,189121035044812.66,5335369464945.002,0.6784056523099119,15.565254105809576
126.0,228763694580738.03,6567756314153.216,0.6781792685730499,15.48018296565902
127.0,277288632502251.84,8131528111479.95,0.6779517928262809,15.39537060257138
128.0,337026157495053.94,10116734038819.02,0.677723307258196,15.310846052627628
129.0,410890001869871.5,12630258272442.979,0.677493894615328,15.22663769532936
130.0,502461191496943.9,15796367773734.291,0.6772636381415171,15.1427732481196
131.0,616066352598220.1,19756877027439.33,0.6770326215178537,15.059279761998477
132.0,756848455012516.8,24671552046701.836,0.6768009288033643,14.976183618202388
133.0,930835719289295.4,30720428889203.082,0.6765686443765128,14.893510525881409
134.0,1145028078283114.8,38110450955076.914,0.676335852877582,14.811285520757469
135.0,1407536318364503.2,47088912416332.97,0.6761026391520072,14.72953296472968
136.0,1727822103575469.8,57965774603849.63,0.6758690881947301,14.64827654638712
137.0,2117094911271237.8,71146167070527.06,0.6756352850956122,14.567539282384498
138.0,2588922521282375.0,87173422777343.44,0.6754013149859449,14.487343519697275
139.0,3160104306837767.5,106782003822024.72,0.6751672629861516,14.407710938670654
140.0,3851844371375374.5,130958685385093.03,0.6749332141546761,14.32866255683094
141.0,4691242476702376.0,161009520070777.47,0.6746992534380928,14.250218733429545
142.0,5713098687946395.0,198629423335965.7,0.6744654656224636,14.172399174682855
143.0,6962003303499350.0,245970763215780.88,0.6742319352859624,14.09522293965816
144.0,8494662756872221.0,305707019875548.7,0.6739987467527455,14.018708446794088
145.0,1.0382384933561208e+16,381087793000722.9,0.6737659840481425,13.942873481030409
146.0,1.271363652115786e+16,475983957255860.2,0.6735337308551319,13.867735201472746
147.0,1.559660050658212e+16,594931098559181.9,0.6733020704721009,13.793310149573045
148.0,1.916175141146462e+16,743195696879264.4,0.6730710857718885,13.719614257792207
149.0,2.3564650252172016e+16,926905495384286.2,0.6728408591621047,13.64666285870742
150.0,2.8989421457938276e+16,1153297150742331.0,0.6726114725466987,13.574470694520171
151.0,3.5653657172608428e+16,1431137209258402.0,0.6723830072887838,13.503051926977319
152.0,4.381572076867634e+16,1771366693458425.2,0.672155544174726,13.432420147634856
153.0,5.378559744006121e+16,2188004590101824.0,0.6719291633794318,13.362588388431522
154.0,6.594045969375854e+16,2699324429493287.0,0.671703944432833,13.29356913254962
155.0,8.074600481125877e+16,3329292963238823.5,0.6714799661875457,13.225374325533048
156.0,9.878435917117894e+16,4109233874020666.5,0.6712573067876717,13.158015386624006
157.0,1.2078900768051621e+17,5079653172567617.0,0.6710360436387085,13.091503220305027
158.0,1.4768666282434467e+17,6292141675439936.0,0.6708162533786064,13.02584822803504
159.0,1.806455033076831e+17,7811258584709392.0,0.6705980065647092,12.961060585026255
160.0,2.211282428983712e+17,9713613778422998.0,0.6703605114489536,12.898191103608465
161.0,2.709144025734055e+17,1.208205485663787e+16,0.6700346013949084,12.84066641397748
162.0,3.32132512184153e+17,1.5019502922450234e+16,0.6696151283301413,12.78867793609883
163.0,4.0733256607288896e+17,1.8646179210688704e+16,0.6691027631751695,12.742129675319894
164.0,4.995416331290313e+17,2.3101910897171596e+16,0.6684982591030421,12.700926239298212
165.0,6.123303130991407e+17,2.8551024690783456e+16,0.6678024508466259,12.66497287010201
166.0,7.499011594793811e+17,3.5189916835443228e+16,0.667016253853296,12.634175472872784
167.0,9.172111629384353e+17,4.325781527498177e+16,0.6661406632877248,12.608440641255742
168.0,1.120141212425641e+18,5.3050967958000376e+16,0.6651767528852233,12.587675679798084
169.0,1.3657244836234104e+18,6.494014993685351e+16,0.6641256736598486,12.571788623520003
170.0,1.6624437173917673e+18,7.939100435628048e+16,0.6629886524690075,12.560688254816704
171.0,2.0206025280022707e+18,9.698639152817454e+16,0.6617669904352822,12.554284117836865
172.0,2.4527702909226783e+18,1.1845053283694094e+17,0.660462641148531,12.552459105448305
173.0,2.9743730042920525e+18,1.4476439615539094e+17,0.6591335883682948,12.552459297742462
174.0,3.604747423584068e+18,1.770998289328293e+17,0.657818834515655,12.552459297742462
175.0,4.3675298987322086e+18,2.1679690837297338e+17,0.6565189014932585,12.552459297742462
176.0,5.291240304532091e+18,2.6544208909203254e+17,0.6552343115629837,12.552459297742462
177.0,6.41005492831144e+18,3.248984520273092e+17,0.6539655829459547,12.552459297742462
178.0,7.764656028074034e+18,3.973466691252267e+17,0.6527132294985065,12.552459297742462
179.0,9.403208517987197e+18,4.8534370612237504e+17,0.6514777603902726,12.552459297742462
180.0,1.138254003277877e+19,5.919068402464576e+17,0.6502596797847862,12.552459297742462
181.0,1.376962637559994e+19,7.20630052968241e+17,0.6490594865229182,12.552459297742462
182.0,1.6643502384689363e+19,8.758383055090982e+17,0.6478776738093537,12.552459297742462
183.0,2.0097732559424193e+19,1.0627825793852897e+18,0.6467147289025031,12.552459297742462
184.0,2.424356581716912e+19,1.287875324720652e+18,0.6455711328084931,12.552459297742462
185.0,2.9213877142229217e+19,1.5589758467833843e+18,0.6444473599790278,12.552459297742462
186.0,3.51682165670964e+19,1.8859323719128732e+18,0.6433438780135606,12.552459297742462
187.0,4.229985344511275e+19,2.2809340380101804e+18,0.6422611473660496,12.552459297742462
188.0,5.0843235581496705e+19,2.7586932556462643e+18,0.6411996210565178,12.552459297742462
189.0,6.108194244004539e+19,3.3368255910812877e+18,0.6401597443874363,12.552459297742462
190.0,7.335766801420856e+19,4.0362654285897283e+18,0.6391419546658179,12.552459297742462
191.0,8.80802873051342e+19,4.881736128231636e+18,0.6381466809308357,12.552459297742462
192.0,1.057392072285484e+20,5.902316022795012e+18,0.6371743436870337,12.552459297742462
193.0,1.269163587178332e+20,7.132156918382143e+18,0.6362253546434637,12.552459297742462
194.0,1.523014018518131e+20,8.61142322286459e+18,0.6353001164589219,12.552459297742462
195.0,1.8270994158319642e+20,1.038752538075135e+19,0.6343990224932924,12.552459297742462
196.0,2.191058264865057e+20,1.2516718047896367e+19,0.6335224565652475,12.552459297742462
197.0,2.626287590963837e+20,1.5066121942356873e+19,0.6326707927170857,12.552459297742462
198.0,3.1462854437755106e+20,1.811626649396226e+19,0.6318443949859527,12.552459297742462
199.0,3.767080270766455e+20,2.176467098062432e+19,0.6310436171818848,12.552459297742462
200.0,4.5077833933826136e+20,2.612996438946461e+19,0.6302688026727943,12.552459297742462
201.0,5.3912668686865977e+20,3.1355996049211912e+19,0.6295202841764717,12.552459297742462
202.0,6.444964790812529e+20,3.761639629949523e+19,0.628798383559376,12.552459297742462
203.0,7.701812109544611e+20,4.511965022597885e+19,0.6281034116431908,12.552459297742462
204.0,9.201332580467675e+20,5.411476645873361e+19,0.6274356680187139,12.552459297742462
205.0,1.099089482163849e+21,6.4897714639051686e+19,0.6267954408668843,12.552459297742462
206.0,1.3127161578919821e+21,7.781892685519785e+19,0.6261830067872396,12.552459297742462
207.0,1.567776893856853e+21,9.329229433099112e+19,0.6255986306338354,12.552459297742462
208.0,1.8723291364214917e+21,1.1180621381126347e+20,0.6250425653591462,12.552459297742462
209.0,2.2359549629463318e+21,1.3393741598320098e+20,0.6245150518625017,12.552459297742462
210.0,2.67004000698836e+21,1.603681897464433e+20,0.6240163188513294,12.552459297742462
211.0,3.1881066017588207e+21,1.9190805984310533e+20,0.623546582708643,12.552459297742462
212.0,3.8062220214600545e+21,2.295218845612461e+20,0.623106047361238,12.552459297742462
213.0,4.54350514962356e+21,2.7436485523019563e+20,0.6226949041662103,12.552459297742462
214.0,5.422745854529223e+21,3.278241146987416e+20,0.6223133317998812,12.552459297742462
215.0,6.471168985633747e+21,3.9156739386828286e+20,0.6219614961493025,12.552459297742462
216.0,7.721362374802053e+21,4.675988995933111e+20,0.6216395502222269,12.552459297742462
217.0,9.212382468506619e+21,5.583238328027693e+20,0.6213476340581696,12.552459297742462
218.0,1.0991085755432245e+22,6.666226058949744e+20,0.6210858746432923,12.552459297742462
219.0,1.3113709210481845e+22,7.95935947857338e+20,0.6208543858436567,12.552459297742462
220.0,1.5647725601276352e+22,9.503646032745807e+20,0.6206532683384094,12.552459297742462
221.0,1.8674060728545265e+22,1.1347870003877627e+21,0.6204826095582376,12.552459297742462
222.0,2.2289714630192854e+22,1.3549992683104316e+21,0.6203424836416658,12.552459297742462
223.0,2.661085720978727e+22,1.6178856021712846e+21,0.6202329513903755,12.552459297742462
224.0,3.177657052214463e+22,1.9316263389595592e+21,0.6201540602313352,12.552459297742462
225.0,3.795332948102473e+22,2.3059546238163962e+21,0.62010584419593,12.552459297742462
226.0,4.53403983334175e+22,2.7524772248638073e+21,0.620088323897435,12.552459297742462
227.0,5.4176481766520935e+22,3.285068853790661e+21,0.6201015065168846,12.552459297742462
228.0,6.474780463888513e+22,3.9203504070267094e+21,0.6201453858048567,12.552459297742462
229.0,7.739794428733692e+22,4.678268132040145e+21,0.6202199420811494,12.552459297742462
230.0,9.2539959297936e+22,5.582784262270651e+21,0.6203251422444397,12.552459297742462
231.0,1.1067105104558025e+23,6.662694938022538e+21,0.6204609397965797,12.552459297742462
232.0,1.3239030316942442e+23,7.952603249677585e+21,0.62062727486457,12.552459297742462
233.0,1.5842037178677358e+23,9.49406626851592e+21,0.6208240742340456,12.552459297742462
234.0,1.896334757571841e+23,1.1336950879699287e+22,0.6210512513959836,12.552459297742462
235.0,2.2708268424568612e+23,1.3541055402336334e+22,0.6213087065911053,12.552459297742462
236.0,2.720400124909978e+23,1.6178041491554044e+22,0.6215963268672102,12.552459297742462
237.0,3.2604200324684505e+23,1.933375650820108e+22,0.6219139861482306,12.552459297742462
238.0,3.9094479237834967e+23,2.311106554995531e+22,0.6222615453012171,12.552459297742462
239.0,4.6899147208086815e+23,2.76332949513819e+22,0.6226388522175126,12.552459297742462
240.0,5.628933011520806e+23,3.30484503834252e+22,0.6230457419041054,12.552459297742462
