Time,J,A,S,tau
0.0,100.0,100.0,0.7531738539114642,9.433962264150944
1.0,315.0251139934498,164.5681377096096,0.7541204409123943,8.35950351072168
2.0,660.2103458096987,225.38529891448408,0.7550627574565071,7.248735587197396
3.0,1122.0448550371268,282.56317990058994,0.7560001319470224,6.101377262313217
4.0,1686.8970549989428,336.2192771469655,0.7569319253180932,4.917135453956734
5.0,2311.0223351620584,468.1654192849977,0.7572567438269788,4.369251957347951
6.0,3246.864959840445,744.8957657475354,0.7571544261421185,4.292965004553203
7.0,4779.022502722001,1118.9768269464842,0.7570525182259836,4.218816660704082
8.0,7092.873653659594,1575.4621513712264,0.7569511511315317,4.146755759040495
9.0,10306.95869044836,2128.787888233492,0.7568504407291107,4.076732478100795
10.0,14595.534676679805,3041.565065693833,0.7567504897182221,4.00869828431905
11.0,20782.95208805354,4530.449223077688,0.7566513893579216,3.9426058846606957
12.0,30097.851830966625,6735.164943775083,0.7565532209601256,3.878409186488036
13.0,43962.952752082485,9767.291894598548,0.7564560571762986,3.816063263110981
14.0,63881.948935541324,14091.262803192672,0.7563599631073565,3.755524324313028
15.0,92433.9897405685,20685.321505770484,0.7562649972614913,3.6967496903465973
16.0,134256.92123019733,30762.110229784757,0.7561712123809847,3.639697769266453
17.0,196281.29190528055,45654.02584531106,0.7560786561564878,3.5843280364213577
18.0,287608.0957510508,67413.44668801563,0.7559873718444275,3.530601015873046
19.0,421090.8509322643,99850.39701023708,0.7558973988008908,3.478478263137814
20.0,616898.8352727237,148853.29247980475,0.7558087729437492,3.427922349052921
21.0,906043.4777905749,222420.85762342595,0.755721527152876,3.3788968444518632
22.0,1333210.9611403234,332076.3715264747,0.7556356916170321,3.3313663054404894
23.0,1962595.703983294,496131.78633816255,0.7555512941347645,3.2852962591068504
24.0,2889901.872352797,742956.1332655486,0.7554683603756736,3.2406531895323543
25.0,4258773.371345886,1114090.3062384594,0.7553869141074555,3.197404524028622
26.0,6280253.095743997,1670755.9360170343,0.7553069773933929,3.1555186195196545
27.0,9262348.482391812,2506050.5875300826,0.7552285707643164,3.1149647490259746
28.0,13659084.933248924,3761051.5003912486,0.7551517133685034,3.0757130882
29.0,20141461.75360974,5645626.908216719,0.7550764231025079,3.0377347019095393
30.0,29694095.666459423,8472076.543044986,0.7550027167254605,3.0010015308562736
31.0,43757175.957436405,12708732.723307297,0.7549306099590628,2.9654863782283174
32.0,64440942.959608324,19055912.410444137,0.7548601175751711,2.931162896385969
33.0,94835101.49146147,28554358.137265008,0.7547912534726327,2.8980055735846784
34.0,139448518.37345716,42749792.80839541,0.7547240307447776,2.865989720760213
35.0,204848691.31714854,63938515.13665535,0.7546584617387861,2.835091458384938
36.0,300593304.304216,95522112.63269666,0.7545945581079914,2.8052877034151895
37.0,440566489.506631,142524760.23304087,0.7545323308580284,2.776556156334578
38.0,644892076.3682557,212355850.96286833,0.7544717903876268,2.7488752883219187
39.0,942686481.9729683,315921730.33320725,0.7544130484349205,2.7222230055609526
40.0,1376486418.4692914,468110071.785933,0.7539961766698007,2.701204469671348
41.0,2005358449.5860915,689284270.7398096,0.7528761051918834,2.690068833572324
42.0,2910456924.111123,1009077356.8166423,0.7511064225076539,2.6879090155244634
43.0,4204266526.6375947,1472683736.15643,0.7492154798166824,2.687909015524465
44.0,6050067670.461486,2141641759.2246103,0.7473742603866682,2.687909015524465
45.0,8675091904.940094,3100778982.4083037,0.7455842504652177,2.687909015524465
46.0,12391471677.379623,4471678158.947487,0.7438468996243446,2.687909015524465
47.0,17634107166.523598,6425461223.113534,0.7421636189907893,2.687909015524465
48.0,25007385295.442722,9198370259.05457,0.7405357795432829,2.687909015524465
49.0,35342854405.0997,13118952310.950378,0.7389647104731846,2.687909015524465
50.0,49783418296.80733,18644762256.78002,0.7374516976125267,2.687909015524465
51.0,69900830494.49303,26407582824.87341,0.7359979819312152,2.687909015524465
52.0,97849243987.3206,37277244533.271484,0.7346047580998715,2.687909015524465
53.0,136572637098.57434,52451444973.603905,0.7332731731239341,2.687909015524465
54.0,190091257137.59378,73574807914.4756,0.7320043250463,2.687909015524465
55.0,263887943650.41742,102899136115.50899,0.7307992617190456,2.687909015524465
56.0,365428320572.76965,143503422275.20435,0.7296589796444853,2.687909015524465
57.0,504867797460.2284,199592119004.1487,0.7285844228851924,2.687909015524465
58.0,696011683226.4832,276897276314.5906,0.7275764820426088,2.687909015524465
59.0,957615265238.5063,383224176241.29944,0.7266359933037511,2.687909015524465
60.0,1315148015152.7935,529192305872.6801,0.7257637375554303,2.687909015524465
61.0,1803193229995.0146,729239232295.6099,0.7249604395656026,2.687909015524465
62.0,2468710604649.8135,1002982461975.26,0.7242267672298406,2.687909015524465
63.0,3375480083364.6577,1377069830176.7734,0.7235633308844961,2.687909015524465
64.0,4610165194430.939,1887695221043.3228,0.7229706826844904,2.687909015524465
65.0,6290598354183.975,2584023064267.389,0.7224493160426424,2.687909015524465
66.0,8577127604205.413,3532855230938.6826,0.7219996651358479,2.687909015524465
67.0,11688168507807.572,4825002789603.061,0.7216221044718389,2.687909015524465
68.0,15921574742372.922,6584000908905.661,0.7213169485158293,2.687909015524465
69.0,21684103952215.97,8978043973275.889,0.721084451381497,2.687909015524465
70.0,29532065490124.184,12236368729531.975,0.7209248065823094,2.687909015524465
71.0,40227544113105.9,16671794391939.68,0.7208381468407663,2.687909015524465
72.0,54816481177607.44,22711790301708.867,0.72082454395885,2.687909015524465
73.0,74737242782031.31,30941399235834.88,0.7208840087500865,2.687909015524465
74.0,101971969595614.95,42162701443591.75,0.7210164910288757,2.687909015524465
75.0,139258337577600.02,57477400723717.695,0.721221879658448,2.687909015524465
76.0,190386732303815.97,78401783911342.12,0.7215000026620046,2.687909015524465
77.0,260618089663417.97,107027247031600.75,0.7218506273918914,2.687909015524465
78.0,357273450579535.4,146245117761911.56,0.7222734607569149,2.687909015524465
79.0,490569335037129.5,200062303001171.12,0.7227681495130771,2.687909015524465
80.0,674803488823775.9,274045914032243.44,0.7233342806152907,2.687909015524465
81.0,930043764094580.5,375951646303246.44,0.7239713816283206,2.687909015524465
82.0,1284544497138558.8,516614454414543.2,0.7246789212007523,2.687909015524465
83.0,1778212245262976.8,711215051949041.9,0.7254563096040013,2.687909015524465
84.0,2467592803047069.5,981087275664691.8,0.7263028993327076,2.687909015524465
85.0,3433076562959794.0,1356306174460721.8,0.7272179857683438,2.687909015524465
86.0,4789349038857879.0,1879405448483606.8,0.7282008079112449,2.687909015524465
87.0,6700588701521404.0,2610737470452826.0,0.7292505491769875,2.687909015524465
88.0,9402655489965966.0,3636230479479484.0,0.7303663382574554,2.687909015524465
89.0,1.32356342057691e+16,5078651506739083.0,0.7315472500514482,2.687909015524465
90.0,1.8691689896452996e+16,7114021502614402.0,0.7327923066634776,2.687909015524465
91.0,2.648570650146585e+16,9995632863163356.0,0.7341004784688779,2.687909015524465
92.0,3.76600341222015e+16,1.4089316815393612e+16,0.7354706852480757,2.687909015524465
93.0,5.374030860262371e+16,1.992541713881415e+16,0.7369017973920993,2.687909015524465
94.0,7.696806014302874e+16,2.8275691131849524e+16,0.7383926371754688,2.687909015524465
95.0,1.106493875785317e+17,4.0267538421348296e+16,0.739941980097214,2.687909015524465
96.0,1.5967975241000614e+17,5.755426431531873e+16,0.7415485562935396,2.687909015524465
97.0,2.313362161402007e+17,8.256988829323214e+16,0.7432110520180707,2.687909015524465
98.0,3.3647806947490976e+17,1.1891200350916122e+17,0.7449281111885407,2.687909015524465
99.0,4.9137437269640026e+17,1.7191909460004896e+17,0.7466983370020084,2.687909015524465
100.0,7.204923258881358e+17,2.4954447801087005e+17,0.7485202936165231,2.687909015524465
101.0,1.0607759499036901e+18,3.636840774536427e+17,0.7503925078963332,2.687909015524465
102.0,1.568316499676183e+18,5.3208163438927386e+17,0.752278544560603,2.688342251641877
103.0,2.3288488183603195e+18,7.788344269374103e+17,0.7536499451138146,2.6957965411107603
104.0,3.467583091234312e+18,1.139268479688977e+18,0.7543321691896108,2.712601707183727
105.0,5.169183104277e+18,1.666482202453598e+18,0.7544464179422021,2.737433988568626
106.0,7.710786236301125e+18,2.4431160544672005e+18,0.7545046208869015,2.7639346842138464
107.0,1.1516612983603681e+19,3.5858749557720576e+18,0.7545643659895493,2.7913940203292555
108.0,1.721967060875325e+19,5.265262601955097e+18,0.7546256381625651,2.8198280231869877
109.0,2.5763398945234575e+19,7.736864083699791e+18,0.7546884217184542,2.849253202863219
110.0,3.856722666423289e+19,1.137794047855913e+19,0.7547527003400472,2.8796865518450763
111.0,5.7762243990490374e+19,1.6740484262210994e+19,0.754818457047378,2.91114554326994
112.0,8.653402862878327e+19,2.46365912361528e+19,0.7548856741607419,2.9436481287714202
113.0,1.2964265795405786e+20,3.6264325970252497e+19,0.754954333259401,2.977212735907291
114.0,1.9420161118737315e+20,5.3383750299453e+19,0.7550244151353361,3.011858265146044
115.0,2.9082019742055462e+20,7.857385257445348e+19,0.7550958997413565,3.04760408639055
116.0,4.352825843265528e+20,1.1561338369965351e+20,0.755168766132773,3.084470035019617
117.0,6.510278440047403e+20,1.700327954831361e+20,0.7552429924017404,3.122476407431164
118.0,9.727908757712157e+20,2.4990635234546424e+20,0.7553185556032345,3.1616439560743017
119.0,1.4519094443740173e+21,3.66993862507771e+20,0.7553954316714913,3.201993883962005
120.0,2.1640349195621279e+21,5.38387531134447e+20,0.7554735953255651,3.243547838661317
121.0,3.220304571100879e+21,7.8887074780503e+20,0.7555530199624741,3.286327905764378
122.0,4.783448979257277e+21,1.1542761736565686e+21,0.7556336775361843,3.3303566018511113
123.0,7.090879217521919e+21,1.686252206476922e+21,0.755715538420439,3.3756568669633085
124.0,1.0487601598570504e+22,2.45900656535573e+21,0.7557985712531586,3.422252056620424
125.0,1.5472894648395426e+22,3.5787985889047394e+21,0.7558827427598167,3.4701659334197212
126.0,2.276611654380253e+22,5.197224429899993e+21,0.7559680175528354,3.519422658272396
127.0,3.3398838306254092e+22,7.529715212272521e+21,0.7560543579036506,3.570046781374575
128.0,4.884304469674092e+22,1.0881155739550562e+22,0.7561417234835576,3.622063232966084
129.0,7.118816720020905e+22,1.5681160054417905e+22,0.7562300710691069,3.6754973140170306
130.0,1.03383844743339e+23,2.2532354644913657e+22,0.7563193542068264,3.7303746870048515
131.0,1.4957018413048219e+23,3.227600779777348e+22,0.7564095228319846,3.786721366897744
132.0,2.1552326724411965e+23,4.60806865531155e+22,0.756500522834636,3.8445637126362375
133.0,3.092512659960003e+23,6.5561150465171104e+22,0.7565922955658702,3.9039284192744077
134.0,4.4178433628144215e+23,9.293669514788495e+22,0.7566847772759083,3.9648425111794796
135.0,6.28212388964038e+23,1.3124036635231101e+23,0.7567778984747311,4.027333336520113
136.0,8.89034219370998e+23,1.8459328357750142e+23,0.7568715832045417,4.091428563565632
137.0,1.251894598554581e+24,2.5856135785289997e+23,0.7569657482119848,4.157156179209407
138.0,1.753792450679234e+24,3.606153924917583e+23,0.7570603020066754,4.224544490427095
139.0,2.4438642644669134e+24,5.007189951826987e+23,0.757155143790426,4.293622129072976
140.0,3.3868423456941073e+24,6.920732819447881e+23,0.7572501622399758,4.364418061042113
141.0,4.667302571153162e+24,9.520510504563687e+23,0.7573452341235254,4.436961600557874
142.0,6.394806057967267e+24,1.3033572700904677e+24,0.7574402227291239,4.511282430714359
143.0,8.710039153450573e+24,1.775456102578344e+24,0.7575349760796046,4.587410631417942
144.0,1.1792045565111451e+25,2.406305842548389e+24,0.7576293249071823,4.665376715972979
145.0,1.5866568281531016e+25,3.2444467825513067e+24,0.7577230803552071,4.745211678276213
146.0,2.1215535545425284e+25,4.3514821776118864e+24,0.7578160313734865,4.8269470520678155
147.0,2.8187629350763753e+25,5.804991964997101e+24,0.7579079417660659,4.910614984487828
148.0,3.720977730703607e+25,7.701908573603338e+24,0.7579985468507201,4.9962483263263735
149.0,4.87993098397692e+25,1.0162377036502344e+25,0.7580875496786064,5.083880741838323
150.0,6.357650977114271e+25,1.3334098223126885e+25,0.7581746167635396,5.17354684082766
151.0,8.227701779876813e+25,1.7397143173083974e+25,0.7582593732582275,5.265282336901129
152.0,1.0576337546873538e+26,2.2569193966713374e+25,0.7583413975163443,5.359124235991012
153.0,1.3503528205276793e+26,2.9111136727522076e+25,0.758420214959673,5.455111059162808
154.0,1.712374479076274e+26,3.7332890158067944e+25,0.7584952911885023,5.553283104997356
155.0,2.1566395074555047e+26,4.759934786574901e+25,0.7585660242261796,5.653682758220678
156.0,2.697589649716043e+26,6.033619095361122e+25,0.7586317358384284,5.75635484841719
157.0,3.351114132609916e+26,7.603542262369395e+25,0.7586916617791796,5.861347070106939
158.0,4.134443532711724e+26,9.52602581937023e+25,0.7587449409197399,5.9687104672432865
159.0,5.0659666104351086e+26,1.1864915247259995e+26,0.7587906030909443,6.078499995344146
160.0,6.164980190616981e+26,1.4691855484859446e+26,0.7588275555698529,6.190775167152576
161.0,7.451352798649499e+26,1.808641197369066e+26,0.758854568051703,6.305600795665319
162.0,8.945119327718239e+26,2.2135993051575625e+26,0.7588702560449342,6.423047841835412
163.0,1.0665990138368716e+27,2.6935551748648494e+26,0.7588730624197005,6.5431943874638945
164.0,1.2632824171433043e+27,3.2587010915454894e+26,0.7588612373625051,6.666126727141493
165.0,1.48630072087824e+27,3.9198425671868365e+26,0.7588328160174609,6.791940625628344
166.0,1.7371838561772036e+27,4.688281469228674e+26,0.758785594510768,6.92074271330601
167.0,2.0171898545005946e+27,5.575668034139623e+26,0.7587171036545949,7.052652066064889
168.0,2.3272402156844838e+27,6.593821365349026e+26,0.758624580568868,7.187801974196983
169.0,2.6678625839375464e+27,7.754517364655085e+26,0.7585049384201679,7.326341899194813
170.0,3.039139620481297e+27,9.069247938616159e+26,0.7583547342226573,7.468439639125383
171.0,3.44066363468592e+27,1.0548954554874119e+27,0.7581701344281584,7.614283739255226
172.0,3.871512691900085e+27,1.2203739475437353e+27,0.7579468802713937,7.764086049506245
173.0,4.3302222720983434e+27,1.4042565510052152e+27,0.7576802505339356,7.91808460398219
174.0,4.814800137720505e+27,1.6072943500119698e+27,0.7573650263518737,8.076546540584516
175.0,5.322722151731073e+27,1.8300619626417537e+27,0.7569954521466135,8.239771504797142
176.0,5.850978715249042e+27,2.072927768123309e+27,0.7565652035579651,8.408094842401017
177.0,6.396120924359322e+27,2.3360259293453457e+27,0.7560673557874669,8.581891048249792
178.0,6.954327589758992e+27,2.619230777782834e+27,0.7554943558498888,8.761577277011938
179.0,7.521474099202593e+27,2.9221349943383456e+27,0.7548379998685114,8.94761693892967
180.0,8.093222221970801e+27,3.2440340792549307e+27,0.7540894230316859,9.14052283643654
181.0,8.665117637436453e+27,3.5839160934737085e+27,0.7532390995196181,9.340860063823285
182.0,9.232690810804505e+27,3.940457774040687e+27,0.7522768558455944,9.549248477688755
183.0,9.791555794321422e+27,4.312027429023638e+27,0.7511918999768484,9.76636467462022
184.0,1.033750499914751e+28,4.6966974860732046e+27,0.7499728745514161,9.992942786269232
185.0,1.0866601897638256e+28,5.092264872456787e+27,0.7486079335257046,10.229774082580269
186.0,1.1375261412536438e+28,5.49627929541806e+27,0.7470848442765532,10.477705270246185
187.0,1.186031888720433e+28,5.906079118670635e+27,0.7453911187416037,10.73763522374164
188.0,1.2319080248090647e+28,6.31883570137791e+27,0.7435141774376055,11.010509652463776
189.0,1.2749358048105042e+28,6.731604393712652e+27,0.7414415439564975,11.297313462810473
190.0,1.3149490113472364e+28,7.141380083112202e+27,0.739161067883609,11.59906097915401
191.0,1.351834071742004e+28,7.545156463691608e+27,0.736661176542938,11.916783921165138
192.0,1.3855285456505912e+28,7.939987493633881e+27,0.7339311479177466,12.251516864547078
193.0,1.4160179957379896e+28,8.323048059339012e+27,0.7309613954506684,12.604280717703924
194.0,1.4433317818781674e+28,8.691692234381228e+27,0.7277437599712356,12.976064368231672
195.0,1.4675376423089189e+28,9.043505271364989e+27,0.7242717828826056,13.367805484657145
196.0,1.4887359924136766e+28,9.376351192664104e+27,0.7205409764241082,13.78037007971848
197.0,1.5070534400731617e+28,9.688407420696328e+27,0.7165490300060388,14.214533495556577
198.0,1.5226366888344082e+28,9.978194789853573e+27,0.7122960063511069,14.67096072986332
199.0,1.5356462778875017e+28,1.0244588492847606e+28,0.7077844220876571,15.150191556719797
200.0,1.5462512184125868e+28,1.0486824130364728e+28,0.7030193099550748,15.652626622602881
201.0,1.5546239610277446e+28,1.0704496978453771e+28,0.6980082216319653,16.17851430870722
202.0,1.5609361344829746e+28,1.0897535898905723e+28,0.6927610598193531,16.727948646100483
203.0,1.5653554105573484e+28,1.1066178457666906e+28,0.6872899065104292,17.30086827172718
204.0,1.5680429583708644e+28,1.1210941812922286e+28,0.681608808331007,17.89705788346816
205.0,1.569151277332178e+28,1.1332591004887911e+28,0.6757335198140692,18.51615107879425
206.0,1.5688235006317001e+28,1.1432087086264628e+28,0.6696810898799688,19.157648261960723
207.0,1.5671929837199609e+28,1.1510549773567172e+28,0.6634695508407306,19.82092967986896
208.0,1.564382476277181e+28,1.1569223098884391e+28,0.6571175851438904,20.50526531974346
209.0,1.5172233164703376e+28,4.857691129453043e+27,0.6506441491462768,21.209839864255414
210.0,1.4682760685052928e+28,1.9364922051271858e+27,0.644068164763662,21.933766251132056
211.0,1.4223607266428087e+28,8.500048764664104e+26,0.63740821989557,22.676105741217167
212.0,1.3792743048750052e+28,4.392295270660919e+26,0.6306823164833845,23.435884944659794
213.0,1.3388200295759625e+28,2.7780080365180373e+26,0.6239076595779016,24.212111957378514
214.0,1.3008089045898838e+28,2.088577279087467e+26,0.6171004905149675,25.00379087052732
215.0,1.2650608685518082e+28,1.7467293501949302e+26,0.610275963235765,25.80993442333458
216.0,1.2314055845401668e+28,1.5398105629180223e+26,0.6034480609974393,26.62957469460569
217.0,1.1996829079734297e+28,1.389238199797684e+26,0.5966295495106005,27.461771830778957
218.0,1.1697430826271382e+28,1.2657182604141363e+26,0.589831961682809,28.30562089347678
219.0,1.1414467144730856e+28,1.158070533330763e+26,0.5830656087947892,29.160256971209336
220.0,1.114664571566116e+28,1.0618032668966827e+26,0.5763396128758981,30.02485874863557
221.0,1.0892772375182805e+28,9.748088557446257e+25,0.5696619566384915,30.898650652386024
222.0,1.0651746893259859e+28,8.959578038521837e+25,0.5630395434708146,31.78090396405376
223.0,1.042255780595743e+28,8.244164479313392e+25,0.5564782683822096,32.670936830166575
224.0,1.0204277000095997e+28,7.595096573755409e+25,0.5499830924518763,33.568113587380125
225.0,9.996054114699817e+27,7.006533922382057e+25,0.543558119303547,34.47184350155451
226.0,9.797110907380703e+27,6.473124442091525e+25,0.5372066716626789,35.381579062478764
227.0,9.606735606797563e+27,5.989824648423473e+25,0.5309313674534742,36.29681389332225
228.0,9.424277518467259e+27,5.552001966347332e+25,0.5247341923269682,37.21708048710608
229.0,9.249141898020223e+27,5.155471553219281e+25,0.5186165682607955,38.141947832334715
230.0,9.080785122352853e+27,4.796417228733059e+25,0.5125794177977526,39.07101899239073
231.0,8.918710093312634e+27,4.47126897058103e+25,0.5066232244149615,40.003928631020514
232.0,8.762462012778021e+27,4.176791016536588e+25,0.5007480877018513,40.940340610592294
233.0,8.611624496789052e+27,3.910089897676719e+25,0.49495377364538223,41.879945674583674
234.0,8.465816017835298e+27,3.6685759986580575e+25,0.48923976022754634,42.822459234200515
235.0,8.324686595197307e+27,3.449847154118262e+25,0.4836052790135804,43.767619224628845
236.0,8.187914801988453e+27,3.251744987601686e+25,0.4780493523553179,44.71518409776362
