Time,J,A,S,tau
0.0,100.0,100.0,0.5699936482681267,42.65312333231377
1.0,125.2570045695265,101.3819984855001,0.5679667402066549,43.62209770160994
2.0,150.44041698000262,102.57169861041926,0.565954780555777,44.59306368259716
3.0,175.50336204637114,103.5931448771566,0.5639581183068111,45.56571014868117
4.0,200.41035368342983,104.4647816718744,0.5619766767720171,46.539864821012955
5.0,225.13425256732336,105.2031159435607,0.5600102789054425,47.51537213308531
6.0,249.65501468530496,105.82294393633924,0.5580586618321526,48.49209130402257
7.0,273.95858420468426,106.33756516881482,0.5561214901569196,49.46989450286907
8.0,298.03603995508496,106.75894951216189,0.5541983665032959,50.448665405802565
9.0,321.88292577481616,107.09787219424234,0.5522888403189553,51.428298013905334
10.0,345.49849830735155,107.36407383199484,0.5503924173566506,52.40869525675719
11.0,368.8851545892591,107.56639538444483,0.5485085675503357,53.38976779295568
12.0,392.04799431151497,107.7128864448234,0.5466367312557349,54.371433039824055
13.0,414.99453278771375,107.81086425777038,0.5447763238170529,55.353614615312374
14.0,437.7341727082517,107.86706469063144,0.5429267427265907,56.33624099226737
15.0,460.27804712059265,107.88769153383919,0.5410873707905863,57.31924502027655
16.0,482.6388357015933,107.87846659373612,0.539257580084551,58.30256340050136
17.0,504.8303658833893,107.8447646270737,0.5374367364780913,59.28613552116298
18.0,526.8677656710677,107.79158133489253,0.5356242016283966,60.269903555006806
19.0,548.7670397734304,107.72367758810996,0.5338193368736047,61.25381124021659
20.0,570.5451711749845,107.64557095458288,0.5320215051746313,62.23780379977338
21.0,592.2200111822771,107.56160947273932,0.5302300745601005,63.221827172040015
22.0,613.8101403080803,107.47601628846314,0.5284444189591299,64.2058276534511
23.0,635.3350282494572,107.39292737609276,0.5266639229625695,65.18975121135698
24.0,656.8147766951496,107.31643832237877,0.5248879805722119,66.17354328198851
25.0,678.2704476149496,107.2506514989835,0.523116002485263,67.15714775489248
26.0,699.7237202305988,107.19969925268137,0.5213474118848241,68.14050719191988
27.0,721.1973697508345,107.16782556640977,0.5195816554594618,69.123561195084
28.0,742.7148569854917,107.15936661783965,0.5178181955337265,70.1062472581454
29.0,764.3009333525002,107.17888854874076,0.5160565257389598,71.0884982742853
30.0,785.9811994844927,107.23111196721668,0.5142961591936394,72.0702441522736
31.0,807.7827964842095,107.3211193326503,0.5125366492006905,73.0514083298885
32.0,829.7339947937694,107.45422137702205,0.5107775739526312,74.03191012616607
33.0,851.8649143767818,107.63623390353922,0.5090185617562882,75.01166031218936
34.0,874.2072326445913,107.87329918846773,0.5072592737080538,75.99056395972198
35.0,896.7948516007956,108.17221831232078,0.5054994320868706,76.9685153112445
36.0,919.6638550381298,108.54025439172159,0.5037388033736594,77.94540068101469
37.0,942.8530186138119,108.98550183824665,0.5019772282282267,78.9210929333156
38.0,966.4041130163614,109.51671031086298,0.5002146078528222,79.89545385113186
39.0,990.3622223971283,110.14354803049685,0.49845092479806336,80.8683302449502
40.0,1014.7766773270976,110.87673634908052,0.4966862554014296,81.8395515403464
41.0,1039.7010105646227,111.72801293207378,0.49492076624191933,82.80893035992021
42.0,1065.1939399351968,112.71046651275051,0.49315474212409427,83.77625723380595
43.0,1091.3203247379677,113.83855383651624,0.4913885895124837,84.74129985683265
44.0,1118.151723446762,115.12828348155168,0.48962285156028973,85.7038001949364
45.0,1145.7674065950305,116.59741327838137,0.4878582254047663,86.66347114337275
46.0,1174.2559428983934,118.26568873876263,0.48609558392291596,87.61999230419316
47.0,1203.7163564804982,120.15497261096232,0.4843359878316527,88.57300756570545
48.0,1234.2593702542056,122.28944597103555,0.4825807033791396,89.52212161493017
49.0,1266.0098639504715,124.69589169892768,0.4808312289529352,90.46689467497771
50.0,1299.1086542346902,127.40390240700675,0.47908931385490783,91.40683869456419
51.0,1333.7150802907702,130.44609663927145,0.4773569791314561,92.34141306084315
52.0,1370.0097908522957,133.85832993989777,0.47563653782227194,93.27002034015898
53.0,1408.1979724872192,137.67988590440748,0.4739306138844716,94.19200216452904
54.0,1448.5130419884301,141.95363588997955,0.47224215875571235,95.10663544191648
55.0,1491.2206052283318,146.72614481301545,0.4705744632785738,96.01312932449575
56.0,1536.6237836308637,152.04771541918626,0.4689311660831917,96.91062263442045
57.0,1585.068013626526,157.97233188275726,0.46731625171345015,97.79818313306046
58.0,1636.9470851798853,164.55748898850442,0.46573404044417976,98.67480815362197
59.0,1692.70962920318,171.86388034095037,0.46418916595740106,99.53942736549784
60.0,1752.866176757427,179.95492018582325,0.46268653889888284,100.39090804719466
61.0,1817.9967372065898,188.8960772722209,0.46123129434522275,101.22806326170488
62.0,1888.7588047822858,198.75400545049894,0.45982872171020067,102.04966324693657
63.0,1965.895659603351,209.595465567076,0.458484176423989,102.85445019519352
64.0,2050.244782231874,221.48604682534247,0.4572029738455417,103.64115639537842
65.0,2142.7461537953513,234.48871273495615,0.45599026728795644,104.40852545337363
66.0,2244.450182932661,248.66221478545302,0.45485091355627283,105.15533602045868
67.0,2356.5246288827875,264.0594461035338,0.4537893314594719,105.88042707747397
68.0,2480.2617007802432,280.72579048342675,0.45280936002359273,106.58272360871658
69.0,2617.0821098247684,298.69760007655356,0.4519141229715826,107.26126136266015
70.0,2768.538596017831,318.0008746566628,0.4511059103167915,107.91520883895649
71.0,2936.317410700265,338.65023831940243,0.45038608287889986,108.54388530362327
72.0,3122.2378558232917,360.64829050052106,0.4497550069134752,109.14677348539577
73.0,3328.2499640307497,383.9853730330289,0.449212022727986,109.72352616405858
74.0,3556.429906963641,408.6397892348322,0.4487554502291752,110.27396604160059
75.0,3808.9736039034506,434.5784768702421,0.448382632841792,110.79807861131292
76.0,4088.1888373540464,461.75804788537835,0.44809001247894303,111.29599924290201
77.0,4396.486041081554,490.12613220631886,0.447873230757694,111.7679953440004
78.0,4736.368061157006,519.6229345072065,0.4477272492135475,112.21444490474765
79.0,5110.41925948024,550.1829025940813,0.44764648036313026,112.63581290974021
80.0,5521.293986291113,581.7364176391717,0.44762492187409514,113.03262702144683
81.0,5971.704714026219,614.2114244483299,0.44765628773622845,113.40545372398958
82.0,6464.410183223039,647.5349154020874,0.4477341289007383,113.75487628200653
83.0,7002.203485933433,681.634229343213,0.4478519399325008,114.08147517032955
84.0,7587.900123194471,716.4381391754358,0.44800324943383807,114.38581141244889
85.0,8224.326069234168,751.8777155992095,0.44818169317728695,114.66841304516596
86.0,8914.305452215023,787.8869891629384,0.448381070773051,114.92976452952429
87.0,9660.648334392043,824.4033880584534,0.4485953855082655,115.17029929563512
88.0,10466.137977248058,861.3680102893142,0.44881887047375485,115.39039474032231
89.0,11333.51771368391,898.7257399227715,0.4490460020580622,115.59036957016225
90.0,12265.477397617056,936.425233096283,0.44927150357068557,115.7704829519768
91.0,13264.638943692262,974.4188130188495,0.44949034117727393,115.93093507143757
92.0,14333.541600642264,1012.6622876767645,0.4496977132122408,116.07186897490412
93.0,15474.626255591184,1051.1147016214923,0.4498890353692349,116.19337318716154
94.0,16690.218279966193,1089.7381019766372,0.4500599248581108,116.29548441536728
95.0,17982.510936690793,1128.497197706698,0.4502061791416352,116.37819158059153
96.0,19353.545275055763,1167.359101224316,0.4503237583194487,116.44143885691648
97.0,20805.195240679124,1206.292964219487,0.4504087619484476,116.4851304044079
98.0,22339.14890749494,1245.2697551674812,0.4504574128787726,116.5091332566775
99.0,23956.874069484693,1284.26200371717,0.4504660429666493,116.51327943192372
100.0,25659.620564468973,1323.2433559264296,0.45043106653472703,116.49737277786176
101.0,27448.38939549101,1362.1885805203897,0.4503489746363056,116.4611889040044
102.0,29323.884207237475,1401.0731095635028,0.45021631983220933,116.40447848478756
103.0,31286.575207769718,1439.8729927201812,0.450029698053373,116.32697327561915
104.0,33336.53253771803,1478.5644906359337,0.4497857508465097,116.22838265633423
105.0,35473.539261736725,1517.1244100217762,0.4494811466991389,116.10839966748527
106.0,37697.08148665481,1555.5291234254364,0.4491125755645411,115.96670675600772
107.0,40006.121640646656,1593.7551415975342,0.44867675295235165,115.80296725979635
108.0,42399.41753415,1631.7787189859782,0.4481704035862674,115.6168391241235
109.0,44875.14411226514,1669.575553190699,0.44759027264362816,115.40796670800873
110.0,47431.20086988031,1707.1210722940866,0.44693311412157555,115.17598894667684
111.0,50064.908076605745,1744.3899644667185,0.44619570137002573,114.92053591779253
112.0,52773.273621878594,1781.3564897929386,0.4453748194501344,114.64123374390942
113.0,55552.734170519034,1817.9940174618046,0.44446727876344816,114.33770302343308
114.0,58399.341435606984,1854.2752936149109,0.44346991066236596,114.00956157643697
115.0,61442.25851047495,2517.1607643865736,0.5291054908568134,63.54104775966177
116.0,65865.81503238165,2850.971797303637,0.547893927549213,53.38089037203705
117.0,70993.58469969258,3162.163670776514,0.5539584973759845,48.81971278625986
118.0,76796.51748455438,3505.8491155905335,0.5558438658266053,45.8768908134381
119.0,83353.67800971803,3900.479449797289,0.5556864809899589,43.67764458214246
120.0,90784.35790836567,4357.029415361864,0.5543486726612792,41.8955174193156
121.0,99232.65393601972,4883.696701480688,0.5522652193682476,40.37580164718464
122.0,108860.94190409976,5487.123384030513,0.5496856746191657,39.0343985709976
123.0,119845.58254545092,6172.761887755508,0.5467656896081867,37.821412635774614
124.0,132373.18490354047,6944.973948603091,0.5436080228643985,36.705400959571975
125.0,146636.71724309187,7807.041431225248,0.5402832607285735,35.66567336985696
126.0,162831.6328860499,8761.1494937357,0.5368413488720792,34.68814142364748
127.0,181151.60313629537,9808.375143856067,0.5333184292962724,33.76293797258835
128.0,201784.21624461454,10948.685629822407,0.5297411265280842,32.88297530695616
129.0,224906.75731859545,12180.945261305176,0.5261293386739663,32.04303917494486
130.0,250681.7210694311,13502.952649826815,0.5224981581594316,31.239193463679648
131.0,279253.23263497587,14911.472224229143,0.518859166525643,30.468391766274973
132.0,310742.47655172436,16402.298079434222,0.5152213667835439,29.728214397879512
133.0,345244.4592627567,17970.318672558198,0.5115918518321555,29.01668625997293
134.0,382825.02641523135,19609.592775098863,0.5079762848605852,28.332152673782762
135.0,423518.21828019846,21313.43092117438,0.5043792480246829,27.673193667180147
136.0,467324.105840292,23074.48594300677,0.5008045026318739,27.038563627251822
137.0,514207.2648171216,24884.846472409736,0.49725518077524933,26.42714896526837
138.0,564095.8535393153,26736.13321422833,0.4937339279934919,25.83793821889228
139.0,616881.3107336405,28619.596765679093,0.49024301001967063,25.27000081283484
140.0,672305.1313737662,31102.593840094785,0.4867843959403766,24.722472416590804
141.0,732448.7709213712,34570.84282675759,0.4833598100538006,24.194542236280142
142.0,799347.9168023301,38720.24415944722,0.47997078676786614,23.68544687414026
143.0,874436.8967378304,43663.73014421862,0.47661870362172165,23.194463806517863
144.0,959400.1602218477,49576.46582354755,0.4733048075808948,22.720906869535042
145.0,1056290.449417306,56655.98879647968,0.4700302363295445,22.264122899247347
146.0,1167549.242380902,65105.66620256016,0.46679603466186426,21.823489066284054
147.0,1295980.37954807,75122.64033406097,0.4636031673691473,21.398410732061404
148.0,1444689.5903872414,86887.64201426685,0.46045252945675513,20.98831967776134
149.0,1616997.2012266994,100556.34779445808,0.4573449543165942,20.592672601820396
150.0,1816331.5362404396,116252.35886160689,0.45428122024906326,20.210949802189514
151.0,2046106.5219980087,134061.9413631013,0.45126205604995145,19.842654041938548
152.0,2309596.8114515464,154030.51887272572,0.4482881452426505,19.48730947198148
153.0,2609815.3842967916,176154.71077102135,0.4453562209852696,19.144722163782095
154.0,2949366.6212134343,200111.3499676221,0.44230515410201987,18.8249618426934
155.0,3329462.024690699,225556.4849159683,0.4390318327159513,18.533411902830814
156.0,3750237.474617541,252264.28132217735,0.4355359181402166,18.26858856898171
157.0,4211017.4838109035,279986.2006028988,0.43181806264584527,18.029112331573412
158.0,4710162.649364678,308811.5059357418,0.4278799022411636,17.81369898568337
159.0,5246802.956489269,340232.3242259359,0.4237240488335872,17.62115112824492
160.0,5823688.438364995,375107.3331726795,0.4193540789998885,17.45035084484501
161.0,6445105.9175845925,414169.8244556061,0.41477451305590457,17.300252851029416
162.0,7116636.38100565,458272.5022833167,0.40999078875837586,17.169878401392612
163.0,7845312.504458519,508368.43124916684,0.405009229033518,17.05830982765103
164.0,8639684.31415119,565451.7153603934,0.39983700366087643,16.964685602309455
165.0,9509718.883710714,630486.6784900086,0.3944820851920336,16.8881958700757
166.0,10466526.675476596,704338.0580487432,0.3889531999932152,16.82807842983222
167.0,11521946.217812443,787710.1120200705,0.38325977309443,16.783615010174092
168.0,12687977.187684612,881098.7585560606,0.37741187122316483,16.754128063790432
169.0,13976284.631839432,984757.8409982567,0.3714201382413107,16.73897757794304
170.0,15397341.787588717,1098866.757228288,0.36531516978127576,16.73652997486565
171.0,16960970.620263375,1225015.1792194722,0.3592921094518023,16.736529958265983
172.0,18679368.87072153,1363359.7136623352,0.35340000507922287,16.736529958265983
173.0,20562973.573991228,1513373.0938225752,0.3476415703308275,16.736529958265983
174.0,22619454.205137864,1674279.0884497822,0.3420193045874571,16.736529958265983
175.0,24853353.9748539,1845267.3911251759,0.3365354958753132,16.736529958265983
176.0,27266470.88313196,2026587.8670234503,0.3311922246605649,16.736529958265983
177.0,29860747.74373786,2219279.3552254294,0.32599136907898063,16.736529958265983
178.0,32639813.287089676,2424783.3739552335,0.3209346103642705,16.736529958265983
179.0,35609730.824901916,2644952.456391774,0.31602343966864505,16.736529958265983
180.0,38779729.09461673,2882065.823357828,0.31125916437390794,16.736529958265983
181.0,42162813.454491235,3138799.7111950726,0.30664291555853673,16.736529958265983
182.0,45776214.251355544,3418142.9058407787,0.3021756570673786,16.736529958265983
183.0,49641728.43202096,3723272.0557545586,0.29785819382453577,16.736529958265983
184.0,53785654.03234701,4057401.722597569,0.2936911801515506,16.736529958265983
185.0,58238346.71506796,4423622.330181932,0.28967513008824103,16.736529958265983
186.0,63033708.67629863,4824738.256339423,0.2858104267952904,16.736529958265983
187.0,68208176.9913191,5263208.446768359,0.28209733172904206,16.736529958265983
188.0,73799654.94374146,5741889.506900274,0.2785359953935964,16.736529958265983
189.0,79848720.39194784,6263601.6205940815,0.2751264671394416,16.736529958265983
190.0,86398162.35421257,6830434.141629419,0.2718687051297191,16.736529958265983
191.0,93491366.50125189,7443676.396415913,0.26876258618854393,16.736529958265983
192.0,101170667.99857754,8103877.379416145,0.26580791583308633,16.736529958265983
193.0,109476155.11633861,8811440.8165354,0.26300443815813745,16.736529958265983
194.0,118445895.63027054,9567233.747294683,0.26035184506392234,16.736529958265983
195.0,128117432.53556004,10372819.209092172,0.25784978581066786,16.736529958265983
196.0,138529365.60010263,11230639.559418608,0.25549787569886556,16.736529958265983
197.0,149723428.04684928,12144175.346413627,0.2532957049754167,16.736529958265983
198.0,161746590.0621926,13118081.137746818,0.2512428470472399,16.736529958265983
199.0,174653150.1583997,14158271.166349785,0.24933886627104335,16.736529958265983
200.0,188507241.08939877,15271916.424074374,0.2475833257169396,16.736529958265983
201.0,203384773.50094718,16467399.022265986,0.24597579403766442,16.736529958265983
202.0,219375241.5140364,17754178.164567243,0.2445158520128876,16.736529958265983
203.0,236583304.6627545,19142602.173357543,0.24320309869621318,16.736529958265983
204.0,255129735.07000473,20643704.68806326,0.24203715691648742,16.736529958265983
205.0,275152093.87350345,22269311.12800537,0.24101767836486845,16.736529958265983
206.0,296805783.3506878,24032138.71907265,0.24014434811030602,16.736529958265983
207.0,320265264.38813776,25945493.895802394,0.2394168885733142,16.736529958265983
208.0,345724712.10654485,28022933.369045023,0.23883506296341878,16.736529958265983
209.0,373398217.65598685,30277976.727495722,0.23839867825187092,16.736529958265983
210.0,403519086.07926637,32724091.123056944,0.2381075873377277,16.736529958265983
211.0,436339698.1096754,35375009.24246813,0.23796169078172255,16.736529958265983
212.0,472132191.5882989,38245181.2541422,0.2379609379723856,16.736529958265983
213.0,511190151.76518136,41350293.683911875,0.23810532770404294,16.736529958265983
214.0,553831419.5963008,44707846.215605944,0.2383949081796488,16.736529958265983
215.0,600402280.7501146,48337772.32901956,0.23882977651264164,16.736529958265983
216.0,651282631.534974,52263104.10402755,0.23941007756430352,16.736529958265983
217.0,706892284.0183245,56510634.09445659,0.24013600210230487,16.736529958265983
218.0,767698893.9549593,61111549.97142003,0.24100778454909147,16.736529958265983
219.0,834226934.2533711,66102031.45673758,0.24202570012260227,16.736529958265983
220.0,907067783.8138944,71523782.99454927,0.24319006141918442,16.736529958265983
221.0,986890912.420267,77424497.36090088,0.2445012144608031,16.736529958265983
222.0,1074456376.0148203,83858374.04863705,0.24595953424744407,16.736529958265983
223.0,1170626905.29981,90886799.52436012,0.24756541954045694,16.736529958265983
224.0,1276382421.359423,98578911.57761075,0.2493192872974572,16.736529958265983
225.0,1392837192.481078,107012048.29542048,0.2512215667849373,16.736529958265983
226.0,1521256801.566628,116272138.52219738,0.2532726929485145,16.736529958265983
227.0,1663074569.182526,126454191.30277969,0.2554730992221038,16.736529958265983
228.0,1819909853.0086417,137662851.32162648,0.2578232101422431,16.736529958265983
229.0,1993592551.975045,150013275.31958184,0.26032343359455234,16.736529958265983
230.0,2186183434.569773,163632536.56871805,0.26297415224404586,16.736529958265983
231.0,2399998873.8245087,178661233.97225174,0.2657757150786209,16.736529958265983
232.0,2637646543.725072,195255531.52554646,0.26872842850639,16.736529958265983
233.0,2902058541.6790066,213589955.8492557,0.27183254674173596,16.736529958265983
234.0,3196530245.928419,233860467.28559184,0.27508826262086394,16.736529958265983
235.0,3524776806.3968854,256288035.12348944,0.2784956979178423,16.736529958265983
236.0,3890990175.2299924,281123199.1232333,0.2820548930016853,16.736529958265983
237.0,4299901894.921,308650897.5265768,0.28576579734499946,16.736529958265983
238.0,4756869386.384288,339195869.00005674,0.2896282595345375,16.736529958265983
239.0,5267977870.777617,373129103.7800485,0.2936420165696697,16.736529958265983
240.0,5840136810.541191,410874672.61671746,0.2978066848645494,16.736529958265983
241.0,6481212211.393054,452918212.6927773,0.3021217494786132,16.736529958265983
242.0,7200172977.229579,499815204.47861636,0.3065865554154905,16.736529958265983
243.0,8007254093.577132,552201628.7316433,0.3112002973588985,16.736529958265983
244.0,8914155934.1698,610803985.1645974,0.3159620114968367,16.736529958265983
245.0,9934247975.933084,676452399.2821044,0.3208705661222017,16.736529958265983
246.0,11082834120.981504,750093170.6870574,0.32592465413760946,16.736529958265983
247.0,12377404880.517708,832805518.9590313,0.33112278491266134,16.736529958265983
248.0,13837987071.946888,925818172.0288734,0.33646327763880796,16.736529958265983
