Time,J,A,S,tau
0.0,100.0,100.0,0.5892755680983494,92.78035611415073
1.0,99.91174715214298,89.6439147447129,0.5887630881663481,93.77777063088718
2.0,99.8242397100819,80.35919686300483,0.5882547278176038,94.77559168424732
3.0,99.73738819450612,72.03755046178487,0.5877500501681001,95.77346346264746
4.0,99.65112159639999,64.57876169954861,0.5872486600649893,96.77137917625346
5.0,99.56537013642019,57.89312382116915,0.5867501683039211,97.76933239255489
6.0,99.48006512635497,51.90030129209708,0.5862541910035568,98.76731698144845
7.0,99.3951388290032,46.52830753979924,0.585760348961393,99.76532706284864
8.0,99.31052432511618,41.71268958776075,0.5852682670351684,100.76335695862313
9.0,99.22615538266774,37.39571322673228,0.5847775735290257,101.76140114684138
10.0,99.14196632548895,33.525633798364744,0.5842878995707516,102.75945421736107
11.0,99.05789190652841,30.05611283280724,0.5837988785081495,103.75751082945588
12.0,98.97386718201231,26.945632942869008,0.5833101453078378,104.75556566998229
13.0,98.889827385854,24.15697712451192,0.5828213359537476,105.75361341189138
14.0,98.80570780634498,21.65681094338534,0.5823320868577756,106.75164867275737
15.0,98.72144366249047,19.415262002512822,0.5818420342709555,107.74966597219827
16.0,98.63696998144056,17.405547787584414,0.5813508137024949,108.74765968867932
17.0,98.55222147590723,15.603676127128674,0.5808580593441625,109.74562401428621
18.0,98.46713242012069,13.988142689493639,0.5803634034943588,110.74355290663398
19.0,98.38163652770731,12.539664765368034,0.579866475998411,111.74144003906545
20.0,98.29566682726713,11.240966323711902,0.5793669036882843,112.73927874646353
21.0,98.20915553551927,10.076560243426302,0.5788643098229292,113.73706196608033
22.0,98.12203393319513,9.032557724256264,0.5783583135541152,114.73478217524479
23.0,98.03423223631668,8.096513915575489,0.577848529387463,115.73243132167796
24.0,97.94567946420024,7.257271037544151,0.5773345666477928,116.73000074603355
25.0,97.85630331105266,6.504821834683884,0.5768160289809765,117.7274810993387
26.0,97.7660300105799,5.830198620340532,0.576292513849706,118.72486224893436
27.0,97.67478419660917,5.225360190552681,0.5757636120412574,119.72213317275106
28.0,97.58248876819005,4.683093929985088,0.5752289072257385,120.71928184558625
29.0,97.48906474524816,4.1969360040298485,0.5746879755116621,121.71629510802346
30.0,97.39443111968792,3.7610897943455597,0.5741403850271013,122.7131585180915
31.0,97.29850471192464,3.3703556725729404,0.5735856955699397,123.70985619057444
32.0,97.20120001540387,3.0200735582718763,0.5730234582662632,124.7063706104049
33.0,97.10242903617952,2.7060640601501933,0.5724532152766002,125.702682420595
34.0,97.00210113896229,2.424578069816244,0.5718744995969771,126.69877019121269
35.0,96.90012287847563,2.172255392781318,0.5712868348904501,127.69461014975339
36.0,96.79639782569494,1.9460822559357347,0.570689735401536,128.69017587389453
37.0,96.69082640172181,1.7433551095166673,0.570082706001952,129.68543795521433
38.0,96.58330569417286,1.5616508175972967,0.5694652423069092,130.6803636053325
39.0,96.47372926855208,1.398795969421716,0.5688368309281743,131.67491620631884
40.0,96.36198698858269,1.2528408732296217,0.5681969499111058,132.66905481665623
41.0,96.24796481616896,1.1220380658758997,0.5675450693094085,133.66273359112756
42.0,96.1315446067954,1.0048201420462908,0.5668806519780821,134.65590111791286
43.0,96.01260391541653,0.8997810631798228,0.5662031546270808,135.64849968773473
44.0,95.89101577904175,0.8056606579693805,0.5655120291206928,136.64046443407506
45.0,95.76664849566795,0.7213286011440571,0.5648067241165499,137.6317223502558
46.0,95.6393654154953,0.6457709754809768,0.5640866870773482,138.62219120291897
47.0,95.50902470592462,0.5780790889990386,0.5633513666969485,139.61177825231067
48.0,95.3754791143983,0.5174378953077527,0.5626002158445935,140.6003787896467
49.0,95.23857574564477,0.46311632971172584,0.5618326950443036,141.58787451741193
50.0,95.09815580992105,0.4144592383660039,0.5610482766253455,142.57413164079904
51.0,94.954054371338,0.37087900770280324,0.5602464496482507,143.55899868878967
52.0,94.80610011311694,0.3318486131569559,0.5594267255977697,144.54230409950912
53.0,94.65411507134507,0.2968957927978994,0.558588645126898,145.52385337637202
54.0,94.49791437198564,0.2655969960243612,0.5577317859373496,146.50342584893798
55.0,94.33730598784761,0.23757238267539962,0.5568557717469982,147.4807710860128
56.0,94.17209046205,0.2124816161192428,0.5559602828510085,148.45560467883863
57.0,94.00206063906552,0.19001948852156106,0.5550450683023476,149.42760345768514
58.0,93.82700141936017,0.16991232271522003,0.5541099595953286,150.39640020991578
59.0,93.64668947929351,0.15191493417741356,0.5531548866768469,151.36157749361323
60.0,93.46089300432543,0.13580746848601105,0.5521798961712482,152.32266066672778
61.0,93.26937145017966,0.12139281233327724,0.5511851715879105,153.27911023549984
62.0,93.07187526915767,0.10849439942461583,0.550171056761356,154.23031295203384
63.0,92.86814565715567,0.09695392446714027,0.5491380821168939,155.17557189034105
64.0,92.65791433384838,0.08662948030209247,0.5480869933259317,156.11409567092974
65.0,92.44090328946815,0.07739397324638084,0.5470187841136332,157.04498606457827
66.0,92.21682456162732,0.06913347093784737,0.5459347322373167,157.9672244130524
67.0,91.98538005148417,0.06174586201209286,0.5448364378270243,158.8796571632774
68.0,91.74626131001982,0.05513971163570696,0.5437258663604346,159.78097954267685
69.0,91.49914936589398,0.04923306771958994,0.5426053942315322,160.66971819741983
70.0,91.24371459988335,0.0439524966726385,0.5414778554468308,161.54421332366366
71.0,90.97961658800509,0.03923227911270127,0.5403465923703139,162.4025990478434
72.0,87.31374162971673,3.695452771644833,0.5392155048761034,163.2427842636785
73.0,82.88073352921461,9.167991402190479,0.5380890992425734,164.0624332946374
74.0,79.1858058828303,15.258450579733577,0.5369725346877567,164.8589471327548
75.0,76.4899069214006,22.041155546519214,0.535871663337489,165.6294468190773
76.0,75.11443916237897,29.597526165388267,0.5347930619768272,166.37075950574547
77.0,75.45297457391122,38.01618707394571,0.5337440501506796,167.07940925325536
78.0,77.9849209725311,47.39292245783573,0.532732692718572,167.7516131702689
79.0,83.29095491945336,57.83039879383031,0.5317677789368549,168.38328597605837
80.0,92.07066840040125,69.4376386752398,0.53085877613492,168.97005360445266
81.0,105.16215324699915,82.32918094688567,0.5300157509716819,169.5072785959172
82.0,123.56362107367327,96.62389691706967,0.5292492549645869,169.9900985258428
83.0,148.45683592320577,112.44343575534897,0.5285701710335555,170.4134787517606
84.0,181.23205504972603,129.91029126222077,0.527989519780934,170.77228001186222
85.0,223.5140194140535,149.14550673129384,0.5275182266609862,171.06134047797417
86.0,277.1883710202114,170.26606406211954,0.5271668542045417,171.27557071428743
87.0,344.4276731149648,193.38203755008809,0.5269453069238184,171.41005865668544
88.0,427.7161220802845,218.59362356318638,0.5268625197639928,171.4601804549258
89.0,529.8718962236273,245.98818503842526,0.5269261439169588,171.421711883285
90.0,654.0660221667463,275.63746816254576,0.5271422458514792,171.2909342328401
91.0,803.8366462428697,307.5951535827832,0.5275150361620586,171.06472832307588
92.0,983.0976884020934,341.8948904352165,0.5280466436007419,170.74065075125222
93.0,1196.140782555615,378.54895278764536,0.5287369492762083,170.31698683719304
94.0,1447.630090370441,417.54757138288204,0.5295834868380327,169.7927779773989
95.0,1742.589279413522,458.8590094890573,0.5305814174409885,169.16782059694467
96.0,2086.380550050827,502.43032001335354,0.5317235732383787,168.44263903229162
97.0,2484.675528630864,548.1887622249385,0.533000569713389,167.61843310741574
98.0,2943.418699414049,596.0437077013646,0.5344009695084047,166.69700687923037
99.0,3468.7834982790005,645.8889449673618,0.5359114908027376,165.68068209508397
100.0,4067.121556867363,697.6052041368462,0.5375172418865871,164.57220335403127
101.0,4744.90616649331,751.0627671194692,0.5392019700582207,163.3746399903034
102.0,5508.670358109748,806.1240276511382,0.5409483109579543,162.09129002323004
103.0,6364.940306330785,862.645897211457,0.5427380281308491,160.72559016911094
104.0,7320.165355988348,920.4819732507624,0.5445522351806481,159.2810351170759
105.0,8380.643658629886,979.4844216701918,0.5463715928437404,157.76110747731926
106.0,9552.44777217678,1039.505549533462,0.5481764840483875,156.16922022441284
107.0,10841.34501819264,1100.3990672500966,0.5499471593141539,154.5086698960113
108.0,12252.719987765093,1162.0210526949534,0.5516638595407086,152.78260236134122
109.0,13791.495380019822,1224.2306342071518,0.5533069149634229,150.9939882067
110.0,15462.052652673266,1286.890446740924,0.554856825188065,149.14560693955454
111.0,17268.15432077987,1349.8668815175615,0.5562943231897862,147.24003894511176
112.0,19212.869184477928,1413.0301694177172,0.5576004263344954,145.2796638062592
113.0,21298.49879220265,1476.254347670082,0.5587564788828382,143.2666629112503
114.0,23526.492983386972,1539.4171810139408,0.5597441948258841,141.2030233325711
115.0,25897.414519212452,1602.3997354623148,0.5605456781997256,139.09055396615457
116.0,28410.875995988885,1665.0864647427638,0.561143455538611,136.9308919466134
117.0,31065.420910497625,1727.3647519269657,0.5615205394854176,134.72550875333204
118.0,33858.59760306479,1789.124352768594,0.5616604094320538,132.47573923549652
119.0,36786.80643460292,1850.2579484165926,0.5615471000779236,130.18277546898804
120.0,39845.335030799506,1910.6599097278695,0.5611652198189664,127.84769280773642
121.0,43028.33484176544,1970.2266016926967,0.5604999953485643,125.47145754872186
122.0,46328.79381697324,2028.8563389880226,0.5595373331316185,123.05493653883491
123.0,49726.200638734095,2073.1972467522633,0.6151009362678352,47.029518985042145
124.0,53186.93064096978,2148.3267879862333,0.6211762312474598,40.16678455907894
125.0,56800.73570911946,2323.091938688858,0.62045027186227,36.890513405328434
126.0,60784.328040933,2581.2317392732775,0.6170165997014825,34.77872363523136
127.0,65325.30570123254,2919.0342460597403,0.612051820293506,33.24308745553276
128.0,70604.79193427612,3336.2756196785776,0.6060797512987717,32.04833830142118
129.0,76803.01711225117,3834.021563631153,0.5993866772668575,31.076792181758318
130.0,84100.5186503868,4413.763946049437,0.5921499726327669,30.26129797484605
131.0,92677.30226815726,5076.987677200617,0.5844894820287737,29.560057599977036
132.0,102711.15290600875,5824.905207588639,0.5764915947764071,28.94538874376934
133.0,114375.0320536555,6658.2828404027405,0.5682217903427365,28.398102610813908
134.0,127834.3234441758,7577.31030941622,0.5597317512578749,27.90441909748549
135.0,143243.68410326584,8581.508881645388,0.5510636471780767,27.454163244796277
136.0,160743.57226406285,9669.664550831101,0.5422528289215544,27.039657900583233
137.0,180457.3338430786,10839.780116819951,0.5333296173316349,26.655001052724312
138.0,202487.59499195317,12089.052747137981,0.5243205075561751,26.295590342641226
139.0,226913.53960252626,13413.870076167264,0.5152490268244424,25.95778746180235
140.0,253787.84437785842,14809.82065493948,0.5061363280022051,25.638688628453643
141.0,283134.8577892009,16271.722437054874,0.497001634456628,25.335952242015967
142.0,314948.5694131485,17793.667798642964,0.48786256460429256,25.04767502266322
143.0,349191.31381649914,19369.081766099065,0.4787353760824187,24.7722983026919
144.0,385793.06107183115,20990.792520677427,0.46963515041744536,24.508536830331614
145.0,424651.35130576766,22651.111687456665,0.46057593385845924,24.255323956318882
146.0,465631.82277343486,24341.9227675991,0.4515708452016106,24.011769143725964
147.0,508568.5598530959,26040.145568687607,0.4426321637525777,23.77712428133217
148.0,553213.2188567336,27768.35534208718,0.43377138443979446,23.550756979402248
149.0,599430.9651080136,29667.977691335807,0.4249992781006329,23.332130044445286
150.0,647464.0261155182,31871.968900641576,0.41632592884515895,23.12078427241905
151.0,697860.9457415739,34494.173233415946,0.40776076658958005,22.91632480169358
152.0,751409.7576721029,37637.368874044565,0.3993125928533177,22.71841007024546
153.0,809088.6870985769,41394.967689137,0.39098960289363016,22.526742834558416
154.0,872021.883659661,45850.80498098471,0.3827994041615468,22.341062822091903
155.0,941435.6124005978,51078.22050278443,0.37474903277429905,22.161140722482365
156.0,1018613.6479277503,57138.917541572264,0.3668449691049993,21.986773244535936
157.0,1104853.2738295265,64081.80360839007,0.35909315120132035,21.81777907297637
158.0,1201423.1741597583,71942.02259304356,0.3514989887632259,21.653995470721355
159.0,1309519.20868078,80740.25697987105,0.34406737938374166,21.49527549942416
160.0,1430228.3479374924,90482.23406827277,0.33680271901214714,21.341485751109616
161.0,1564491.701605879,101158.75883829509,0.3297089219194735,21.192504358382262
162.0,1713077.4089782182,112745.91765564644,0.3227894323044897,21.04821943816425
163.0,1876552.631551042,125205.69174450566,0.31604724265993517,20.90852776095766
164.0,2055267.7295050295,138486.94534281196,0.3094849126115221,20.7733335953311
165.0,2249347.349988751,152526.6042877926,0.3031045844177828,20.642547782109897
166.0,2458684.8116888455,167251.10299757402,0.2969080029450438,20.516086944396672
167.0,2682945.101143185,182576.47267665484,0.2908965352810583,20.39387282170218
168.0,2921566.7300283033,198400.150385201,0.2850711909666463,20.275831707772983
169.0,3173739.459303387,214677.1219831633,0.27943264296208653,20.161893982564518
170.0,3438611.3750522714,231513.96876018282,0.273981249125925,20.051993683437203
171.0,3715656.709484015,249136.95361432986,0.2687170718834244,19.94606818918388
172.0,4004913.4805636876,267852.2997664839,0.26363990104440227,19.844057922775168
173.0,4307105.004197819,288020.4023186617,0.2587498872982046,19.745863982615276
174.0,4623713.236696827,309986.3880572172,0.25402594291522834,19.652831527302183
175.0,4956806.002212449,334069.0448735589,0.24943924543726667,19.566785139564633
176.0,5308985.40480424,360628.16950141615,0.24499045776718345,19.487499723059553
177.0,5683395.21219844,389997.7972341452,0.2406807596707536,19.414717061954914
178.0,6083620.932001618,422473.59201224544,0.23651124751898225,19.34818675888698
179.0,6513548.774549649,458304.38368124305,0.2324829379894952,19.28766576876447
180.0,6977239.500642433,497686.50525497174,0.2285967711380212,19.23291793610959
181.0,7478815.021500668,540760.160408538,0.22485361341674945,19.18371362128233
182.0,8022330.000031509,587608.3445169055,0.22125426299001807,19.13982932296457
183.0,8611671.817228707,638257.7957287928,0.2177994549950028,19.101047318260687
184.0,9250483.893416015,692681.6066930895,0.214489867323034,19.067155330193668
185.0,9942085.897625117,750803.0117617596,0.2113261276104379,19.037946238909306
186.0,10689443.666322323,812500.474391254,0.20830882019471944,19.01321777828644
187.0,11495118.11805676,877609.5616915082,0.205438494918425,18.992772266144748
188.0,12361240.894934976,945936.7954825914,0.2027156756296798,18.97641634777707
189.0,13289548.046501458,1017327.9732757022,0.20014086897850467,18.96396073376438
190.0,14281523.3738751,1091736.517539154,0.1977145746733139,18.955219994975344
191.0,15338711.614184119,1169260.5992160756,0.19543729596184994,18.95001236685125
192.0,16462988.193851946,1250147.6244393436,0.19330939904144834,18.948169030196443
193.0,17656928.729999702,1334991.9707303024,0.19135228810139315,18.948167448807506
194.0,18924644.197445907,1424609.3339181878,0.18959254253925747,18.948167448807506
195.0,20271903.966729585,1519717.527796292,0.18802850458621154,18.948167448807506
196.0,21705944.773321725,1621156.0371036278,0.18665863883332146,18.948167448807506
197.0,23235643.164324395,1729868.0178558875,0.18548156877916253,18.948167448807506
198.0,24871651.46110682,1846881.288259359,0.18449608761568043,18.948167448807506
199.0,26626496.558419224,1973290.038546909,0.18370116761673047,18.948167448807506
200.0,28514646.611553032,2110237.8552810242,0.18309596799286168,18.948167448807506
201.0,30552563.618145738,2258902.579778111,0.1826798415772614,18.948167448807506
202.0,32758715.53348428,2420483.494515781,0.18245233961220036,18.948167448807506
203.0,35153582.4486261,2596190.9325947715,0.18241321470602814,18.948167448807506
204.0,37759666.44084384,2787238.496752839,0.18256242265572015,18.948167448807506
205.0,40601499.039452024,2994837.911490442,0.1829001227528438,18.948167448807506
206.0,43705663.09307546,3220195.436946131,0.18342667675623206,18.948167448807506
207.0,47100817.90103231,3464510.171141714,0.18414264652750556,18.948167448807506
208.0,50817708.578478366,3728990.023299089,0.18504878932564064,18.948167448807506
209.0,54889260.94175702,4014896.263023496,0.18614605209868137,18.948167448807506
210.0,59350778.9794211,4323606.961612743,0.18743556426836513,18.948167448807506
211.0,64240292.5795187,4656689.265712755,0.18891862901410578,18.948167448807506
212.0,69599067.89666013,5016000.21336412,0.19059671327827163,18.948167448807506
213.0,75472315.77909815,5403882.695420819,0.19247205267712122,18.94813222528182
214.0,81910639.25174281,5822597.3258729,0.19453277074845868,18.948836378665906
215.0,88968908.18143499,6273588.450954075,0.19673905832786923,18.95260157930217
216.0,96705240.59455107,6759791.499788511,0.19908512866309638,18.959767179554742
217.0,105184614.13876884,7284736.631459781,0.20156861450281466,18.97047191887078
218.0,114480065.37770405,7852461.626142098,0.20418709644394922,18.984852302684818
219.0,124673795.70258284,8467538.571399078,0.2069380960814605,19.003042541170643
220.0,135858374.54960328,9135094.977053344,0.20981907021607288,19.025174485709154
221.0,148137970.41132334,9860830.85268314,0.2128274060057612,19.051377567627796
222.0,161629643.12980184,10651031.709924515,0.2159604171194204,19.081778741036874
223.0,176464701.52757385,11512579.290257268,0.21921534078153448,19.116502425901395
224.0,192789894.9919821,12452960.46766043,0.22258933615144572,19.155670459239133
225.0,210768764.66957718,13480271.54609871,0.226079483692612,19.199402055624443
226.0,230582963.40261167,14603221.955719715,0.22968278544522872,19.247813768890076
227.0,252433568.95330536,15831137.728616012,0.23339616622338955,19.301019459053034
228.0,276542517.4041152,17173972.098661978,0.2372164754999933,19.35913026286717
229.0,303153716.21209514,18642337.036503702,0.24114049044283598,19.422254567829196
230.0,332534337.2603683,20247552.990878515,0.2451649196620452,19.490498002124983
231.0,364976224.13900447,22001723.07287437,0.24928640744833616,19.563963427112654
232.0,400797369.2563416,23917845.011549495,0.2535015385723264,19.642750936008657
233.0,440343681.5963938,26010005.434164383,0.2578069746992522,19.726951465897233
234.0,483990197.62178546,28297621.779813882,0.262222928749323,19.815516752110018
235.0,532159371.34929657,30804091.768091083,0.2667782741378345,19.907002697797726
236.0,585322117.5997056,33550193.32974738,0.2714724522523871,20.001392090269665
237.0,643992060.2774417,36558769.08744782,0.2763041611528935,20.09869603103233
238.0,708728860.2035757,39855059.38483547,0.2812719139051371,20.198926544866897
239.0,780143226.7490218,43466996.53085953,0.28637402849228455,20.302096659900414
240.0,858899905.8500452,47425501.171655275,0.2916086217025963,20.408220489094745
241.0,945723876.1207552,51764777.028570205,0.29697360082833274,20.517313330407458
242.0,1041403847.6191807,56522663.19098584,0.30246665717238486,20.629391789377305
243.0,1146798027.1120822,61740923.19898551,0.3080852607483876,20.74447390463049
244.0,1262839396.5581994,67465621.4983896,0.31382665303189927,20.862579318959344
245.0,1390539525.9686508,73747431.4974267,0.31968784412978446,20.983729448390672
246.0,1530995685.9037945,80641979.35025464,0.32566560617915064,21.107947701141136
247.0,1685392795.167932,88210192.71460742,0.33175647090983135,21.235259718875376
248.0,1855010279.2005417,96518576.1255772,0.33795672551981404,21.365693645760413
