Time,J,A,S,tau
0.0,100.0,100.0,0.6653203982930799,12.89798744788178
1.0,1091.637957326507,734.3340481865872,0.670977710739822,12.004610617679306
2.0,4215.681751691046,1318.5871088797237,0.6770000422156993,11.068453510270395
3.0,8959.472821162983,1858.0689278795828,0.6834045861330379,10.088842180843454
4.0,14879.026792755953,2357.6726083047815,0.6902095131244058,9.065105429054672
5.0,21593.577109788643,2821.9034426403528,0.6974339891817102,7.996582295801208
6.0,28780.093780330008,3254.909688417027,0.7050982389223757,6.882623253399259
7.0,36033.04969697287,3793.3897266322188,0.709181766545812,6.32291621922802
8.0,43900.93740653024,5998.951563869663,0.7105252403759253,6.176810875896552
9.0,56123.22305107446,9614.474308221692,0.711850318418915,6.035514547432851
10.0,74509.93318417514,14093.369699417284,0.7131569329650473,5.898875115037797
11.0,99173.24572829413,19007.76200382928,0.714445018745178,5.7667451452731315
12.0,129186.53967318367,24029.79547021268,0.7157145131977078,5.638981797092441
13.0,162770.15292656224,29316.073366831948,0.7169653566583175,5.515446727954353
14.0,198038.18500058554,38134.471850500086,0.7181974925466095,5.396005992541182
15.0,238437.5142449602,52557.31722196407,0.7194108674173368,5.280529949693243
16.0,288905.62715625303,72434.04195087616,0.7206054310234988,5.1688931625345385
17.0,352464.5556380282,96437.68555473123,0.7217811363415784,5.060974298987415
18.0,429216.7417175766,122864.07673675832,0.7229379395709444,4.9566560315346315
19.0,515031.72906034085,153060.55433553044,0.7240758001017996,4.855824938025868
20.0,605533.5358576503,192271.46387535712,0.7251946804822035,4.75837140097872
21.0,701114.7607812461,244229.8893687347,0.7262945463591475,4.664189508620227
22.0,804990.6828510832,309097.7593657368,0.7273753663630703,4.573176961246227
23.0,919715.8712490837,384078.54466142895,0.7284371120805714,4.485234967127371
24.0,1043705.6844832393,466974.7049482933,0.7292333408240937,4.405130492392873
25.0,1171586.8401551093,558291.2781490987,0.7290909293706135,4.3456141088739555
26.0,1297201.803552802,660394.979438643,0.7279757937617505,4.306481513325307
27.0,1417579.669730575,772839.6380745851,0.7259030107702814,4.286697617809818
28.0,1531267.2708982227,892393.9910850986,0.7229797858239312,4.283636913613361
29.0,1633948.2025974556,1017974.4200686747,0.7199156309707286,4.283636913613361
30.0,1722575.4535040485,1147432.5626026427,0.7168737679444664,4.283636913613361
31.0,1794099.1315216674,1278794.283854003,0.7138561161119485,4.283636913613361
32.0,1846502.8264825484,1409515.7337445486,0.71086459283268,4.283636913613361
33.0,1878938.4089111548,1536302.7370139838,0.7079011111674621,4.283636913613361
34.0,1890880.2513996686,1656154.8649081402,0.7049675775994799,4.283636913613361
35.0,1882483.0917483126,1766223.9515747637,0.7020658897721247,4.283636913613361
36.0,1854470.5957689593,1864037.173622878,0.6991979342643684,4.283636913613361
37.0,1808246.8838423127,1947428.0257443187,0.6963655843998033,4.283636913613361
38.0,1745826.3549134415,2014565.7248303057,0.693570698091152,4.283636913613361
39.0,1669599.013064438,2064118.743158698,0.6908151156924012,4.283636913613361
40.0,1582176.7614767107,2095311.8554356673,0.6881006579863298,4.283636913613361
41.0,1486252.1476849553,2107947.929813667,0.6854291241231554,4.283636913613361
42.0,1384488.0064623435,2102369.856769142,0.6828022896450241,4.283636913613361
43.0,1279425.6374551232,2079398.3346785035,0.6802219046435218,4.283636913613361
44.0,1173397.609347601,2040267.283655312,0.677689691842996,4.283636913613361
45.0,1068455.2486820768,1986551.4733401195,0.6752073448301931,4.283636913613361
46.0,966332.2940529028,1920078.7811330718,0.672776526399277,4.283636913613361
47.0,868429.2490389167,1842839.953166119,0.6703988668050859,4.283636913613361
48.0,775814.9344163411,1756903.3006711495,0.6680759622243526,4.283636913613361
49.0,689248.2793258325,1664333.9017186763,0.6658093732946548,4.283636913613361
50.0,609206.1232432858,1567126.380536449,0.6636006235565849,4.283636913613361
51.0,535918.6224032537,1467151.1939487783,0.661451198159141,4.283636913613361
52.0,469410.35326198104,1366112.567689614,0.6593625425899909,4.283636913613361
53.0,409539.5444807913,1265520.326367401,0.6573360613305073,4.283636913527644
54.0,377659.9080525577,1145040.9162720232,0.640287510526418,4.523589348805145
55.0,404753.85655797174,974354.352420235,0.5791261013284937,5.52354649868095
56.0,416414.64463796286,828705.5127341951,0.5234829019335049,6.523503662584247
57.0,416704.55785181455,704497.6475434643,0.47290429947334445,7.523460826487544
58.0,408773.915716198,598637.153778803,0.42696848778023516,8.523417990390834
59.0,395055.51183166367,508465.4217055977,0.38528386304438683,9.523375154294119
60.0,377418.15482750774,431699.7713600337,0.34748745688025734,10.523332318197403
61.0,357287.91128885164,366381.96026199806,0.31324336776928524,11.523289482100687
62.0,335744.20429094945,310833.30748251337,0.28224120590094565,12.52324664600397
63.0,313595.36858230166,263615.7609260456,0.25419455271279945,13.523203809907255
64.0,291438.21860706137,223498.81101882353,0.22883956431912805,14.52316097381054
65.0,269705.3870676854,189429.79338949185,0.20593345304091423,15.52311813771383
66.0,248702.1900468637,160509.37247565135,0.1852532038987004,16.523075301617116
67.0,228636.07953163376,135969.36945359586,0.16659417685883865,17.523032465520398
68.0,209639.5153323709,115154.26727866296,0.1497688710973163,18.522989629423684
69.0,191788.0728035888,97505.07468328354,0.13460571683150424,19.522946793326966
70.0,175114.6108075199,82545.27023544759,0.12094788316392877,20.522903957230252
71.0,159620.3047173044,69869.10064771824,0.10865223636541653,21.522861121133534
72.0,145283.31460675428,59131.0762113592,0.09758824809954993,22.52281828503682
73.0,132065.45422302332,50037.33739342231,0.08763705929094794,23.522775448940102
74.0,119917.38640470445,42338.01001856939,0.07869053942177369,24.522732612843388
75.0,108782.58684317442,35820.72503623226,0.07065041947032116,25.52268977674667
76.0,98600.37928676304,30305.14250163016,0.06342750577824174,26.522646940649956
77.0,89308.2121111728,25638.11429379523,0.05694089504394537,27.522604104553242
78.0,80843.36565505598,21689.72007325965,0.05111730201124724,28.522561268456524
79.0,73144.18898441542,18349.740219271378,0.04589038400927031,29.52251843235981
80.0,66150.98893877007,15524.728862465645,0.04120014524174372,30.522475596263092
81.0,59806.6441214717,13135.49781251313,0.036992378940607674,31.522432760166378
82.0,54056.99437590178,11114.942421746355,0.0332181378810968,32.522389924069664
83.0,48851.08728795806,9406.247619859525,0.029833273727507575,33.522347087972946
84.0,44141.27770555503,7961.297842877867,0.02679798191959169,34.52230425187623
85.0,39883.25604647907,6739.376090287002,0.024076410314123536,35.52226141577951
86.0,36035.9948257347,5706.027709959302,0.021636283996337904,36.5222185796828
87.0,32561.64945920521,4832.1020099014,0.01944856536544982,37.52217574358608
88.0,29425.43218334642,4092.950310032163,0.017487151144208644,38.522132907489365
89.0,26595.449449656157,3467.7236757394453,0.015728581450450214,39.52209007139265
90.0,24042.542125306896,2938.8002513383776,0.014151790712769842,40.522047235295936
91.0,21740.104422990113,2491.2814641474693,0.012737867599288697,41.52200439919922
92.0,19663.909973571277,2112.575112783588,0.011469844545195826,42.5219615631025
93.0,17791.937881910417,1792.0406525692651,0.010332505475576638,43.52191872700579
94.0,16104.19945825829,1520.6841026485824,0.009312207375758042,44.52187589090907
95.0,14582.579656589854,1290.9077351644296,0.008396725973579738,45.521833054812355
96.0,13210.677128004418,1096.2900068249542,0.0075751081541247335,46.52179021871564
97.0,11973.661186303145,931.4058486826128,0.006837545203850566,47.521747382618926
98.0,10858.132809807126,791.67114676625,0.006175254508749453,48.52170454652221
99.0,9851.996365716257,673.2117887679119,0.005580373524475676,49.52166171042549
100.0,8944.342663557036,572.7547572207332,0.005045866291991493,50.52161887432932
101.0,7934.955621960549,678.0744354525845,0.004699113286501346,51.22427626508065
102.0,6673.268892765135,1132.0380930490583,0.004690370584751275,51.22427626515168
103.0,5639.665589724675,1447.753288948261,0.004688136585141509,51.22427626515168
104.0,4797.7733786916515,1654.3895435842499,0.004692404062711904,51.22427626515168
105.0,380.2887216930518,5513.57529986464,0.6553438637755025,4.290888744527696
106.0,756.2092304537005,4738.957714510141,0.657797934185624,4.2836319746205325
107.0,1044.8243129900784,4101.08539398804,0.6598397868330657,4.2836319746205325
108.0,1263.4873568407666,3576.215068559721,0.6619434218016015,4.2836319746205325
109.0,1426.9140832632984,3144.55973203461,0.6641074235143949,4.2836319746205325
110.0,1408.5939806244237,2932.0248725644665,0.6663303358187458,4.2836319746205325
111.0,1368.2633322197878,2783.8452197442098,0.6686106632514942,4.2836319746205325
112.0,1360.9275206844895,2641.613807668624,0.6709468723389853,4.2836319746205325
113.0,1380.997973320523,2507.6833627665687,0.6733373930160096,4.2836319746205325
114.0,1422.46191865574,2385.4988717383885,0.6757806200504569,4.2836319746205325
115.0,1471.9664008089567,2287.362817458498,0.6782749146321619,4.2836319746205325
116.0,1530.8571132544837,2212.5130862951773,0.6808186059207129,4.2836319746205325
117.0,1603.2767014057297,2158.0976704868426,0.6834099927392436,4.2836319746205325
118.0,1693.3653716568076,2121.973672969247,0.6860473453081822,4.2836319746205325
119.0,1804.9425204453864,2103.1481454026234,0.688728907048135,4.2836319746205325
120.0,1941.3085887877885,2102.337389814976,0.6914528964332158,4.2836319746205325
121.0,2106.9122964806443,2120.6944914272867,0.694217508925107,4.2836319746205325
122.0,2307.8530928123164,2159.6659902648225,0.6970209189379746,4.2836319746205325
123.0,2552.236168670807,2221.0885188558864,0.6998612818846134,4.2836319746205325
124.0,2850.5305337031573,2307.445198703241,0.7027367362464119,4.2836319746205325
125.0,3216.1392804186466,2422.1960483294442,0.7056454057036282,4.2836319746205325
126.0,3666.4228079282143,2570.0021179680093,0.7085854012982367,4.2836319746205325
127.0,4224.1173232042265,2756.9934886240176,0.711554823644935,4.2836319746205325
128.0,4919.289312799722,2991.135712158177,0.7145517651571922,4.2836319746205325
129.0,5791.956777177324,3282.7723434710283,0.7175743123130768,4.2836319746205325
130.0,6895.715446694516,3645.4028804139575,0.7206205479355199,4.2836319746205325
131.0,8302.875106275807,4096.7380918792305,0.7236885684319598,4.283631708021347
132.0,10117.698200205683,4652.667279405788,0.7264431212955403,4.289618793050488
133.0,12480.327149305807,5323.330531765095,0.7282547989657069,4.313143757910879
134.0,15558.600349846478,6134.2679587842,0.7291423430783419,4.354379526572603
135.0,19575.218546980497,7117.390117103284,0.7291423556370683,4.413234984712342
136.0,24824.012426986286,8314.724174214416,0.7283469029760223,4.488620364405675
137.0,31686.22562460982,9807.075101743387,0.7273714744769317,4.56941622348663
138.0,40725.12013524386,11676.312797067736,0.7263825325667465,4.6525813463446966
139.0,52714.09705500466,14017.827720892556,0.7253802797235278,4.738166353012536
140.0,68700.0700918089,16953.30646010709,0.7243649240438647,4.826222501214386
141.0,90100.76642894621,20638.269908090475,0.723336679212884,4.916801645659696
142.0,118833.06760921003,25283.54777298667,0.7222957644605019,5.009956193898726
143.0,157521.08206411783,31173.22081246084,0.72124240449114,5.105739060139376
144.0,209781.67291770395,38673.496414478665,0.7201768294046562,5.2042036153232685
145.0,280590.5678205567,48256.119501312125,0.7190992745899694,5.305403634736364
146.0,376777.59470485913,60528.92274541621,0.7180099805946606,5.409393243001585
147.0,507694.2815993133,76275.88151753954,0.7169091929740966,5.516226855938952
148.0,686114.6145696961,96518.30142291935,0.7157971621135364,5.625959119800824
149.0,929479.9490635443,122593.28936707937,0.7146741430230856,5.738644847840024
150.0,1261595.6825166936,156246.3790264136,0.7135403951032406,5.854338954355596
151.0,1714906.3415080893,199749.1258819589,0.7123961818792012,5.973096386342553
152.0,2333524.6266262773,256048.4439793296,0.7112417707018864,6.094972052911521
153.0,3177235.139895103,328955.2817226047,0.7100774324136158,6.220020752661319
154.0,4326746.608993532,423385.90089047153,0.7089034409758254,6.348297099258195
155.0,5890553.215004724,545676.4225371106,0.7077200730562893,6.479855445490886
156.0,8013875.403626516,703982.7178618499,0.7065276075740372,6.614749806030298
157.0,10890227.702969275,908780.5724690725,0.7053263251985525,6.7530337792856185
158.0,14776252.644509137,1173486.7644697847,0.7041165078005555,6.894760468710206
159.0,20010558.507851347,1515224.8415792377,0.7028984378513408,7.039982403967338
160.0,27037391.94387274,1955762.0573098327,0.7016723977675701,7.188751462397384
161.0,36436052.75131663,2522647.8297652937,0.7004386691980056,7.341118791290512
162.0,48957011.20221086,3250594.173647726,0.6991975322482008,7.497134731557722
163.0,65565770.79631144,4183144.668859775,0.6979492646406296,7.656848743272122
164.0,87495525.14834182,5374677.4001841,0.6966941408054951,7.820309333790953
165.0,116309593.29644316,6892786.72193433,0.695432430898421,7.987563989118968
166.0,153974447.25001416,8821088.241995163,0.6941643997408892,8.15865910923744
167.0,202943935.9671085,11262487.213273061,0.6928903056812941,8.333639947965544
168.0,266254409.07147318,14342955.353630261,0.6916103993615673,8.512550559180688
169.0,347630997.6170766,18215826.27891145,0.6903249224064826,8.69543374825265
170.0,451603125.3003701,23066644.146170292,0.6890341060101862,8.882331031483302
171.0,583626914.0898048,29118566.97076146,0.6877381694216959,9.07328260432594
172.0,750212426.3373394,36638323.26658701,0.6864373183318924,9.268327317743687
173.0,959050393.628398,45942689.289271526,0.6851317431533492,9.467502665651834
174.0,1219133531.9698868,57405476.11392498,0.6838216171793599,9.670844783706105
175.0,1540866530.2117846,71464897.56273082,0.6825070946407127,9.878388460193417
176.0,1936156876.6722338,88631268.56990026,0.6811883086327619,10.090167160838542
177.0,2418479631.469562,109494845.20388268,0.6798653689298076,10.306213067725073
178.0,3002904656.2155285,134733689.9575341,0.6785383596650332,10.526557135189353
179.0,3706085002.9498672,165121225.8845206,0.6772073369081075,10.751229160439141
180.0,4546187481.66363,201533416.95766622,0.6758723260925477,10.980257874416125
181.0,5542770117.975,244955054.6791633,0.6745333193483007,11.21367104989469
182.0,6716593858.737348,296485018.212394,0.6731902727103433,11.451495629719771
183.0,8089357853.7093315,357340340.0293169,0.6718431031746702,11.69375787762161
184.0,9683388949.452597,428858011.5683283,0.6704916857540786,11.940483545709116
185.0,11521235598.233057,512495482.6560193,0.6691358503015169,12.191698069629672
186.0,13625221731.038406,609828249.0378939,0.6677753783868323,12.44742678229357
187.0,16016952257.405727,722544944.5506428,0.6664100000445246,12.707695148965817
188.0,18716760200.927094,852439852.1285291,0.6650393904764417,12.972529028658856
189.0,21743141133.35503,1001402236.5182632,0.6636631667742638,13.241954954538079
190.0,25112194866.20399,1171402247.3917806,0.6622808846728435,13.516000433437021
191.0,28837053520.96097,1364474171.7899342,0.6608920353088238,13.794694268925726
192.0,32927385685.348602,1582695635.0424483,0.6594960421628544,14.078066895431556
193.0,37388874485.214226,1828165359.6870265,0.6580922580572401,14.366150738601156
194.0,42222859567.00385,2102976040.758328,0.6566799623512775,14.658980577842225
195.0,47426078143.488525,2409184546.4177914,0.6552583586771213,14.9565939089021
196.0,52990301764.615105,2748784382.1668167,0.6538265725397947,15.259031345711835
197.0,58902480111.064926,3123666925.770472,0.6523836498136791,15.5663369647349
198.0,65144498977.22261,3535593805.462681,0.6509285552761724,15.878558711170596
199.0,71693485342.92169,3986159093.045831,0.6494601723244781,16.19574872099387
200.0,78522155611.30927,4476750197.588431,0.6479773028296645,16.517963652265838
201.0,85598899778.48268,5008522439.234187,0.6464786677822121,16.84526502710182
202.0,92888491681.91367,5582359645.086577,0.6449629093663247,17.17771944869796
203.0,100352570990.32924,6198845449.202917,0.6434285935812468,17.515398821182917
204.0,107950260731.4561,6858235517.493944,0.6418742140369285,17.85838049642834
205.0,115638839437.07071,7560432978.073176,0.64029819692837,18.206747346664628
206.0,123374450042.48029,8304967604.93056,0.6386989072366781,18.5605877546402
207.0,131112755500.23093,9090982815.130596,0.6370746562544086,18.919995517218904
208.0,138809661403.39972,9917225147.087574,0.6354237105795412,19.28506962674317
209.0,146421939597.46292,10782043270.066864,0.6337443024543283,19.65591394442773
210.0,153907930640.1024,11683385889.562143,0.6320346415840303,20.03263672476277
211.0,161228043414.0969,12618813906.449228,0.6302929281841523,20.415350058060774
212.0,168345270366.25287,13585515950.367327,0.6285173674609748,20.804169114113375
213.0,175225615990.92477,14580328977.571991,0.6267061854181362,21.199211295790253
214.0,181838410299.48044,15599769134.555088,0.6248576454289679,21.60059521493226
215.0,188156598236.12234,16640063098.5149,0.622970065993523,22.008439542946004
216.0,194156895731.40802,17697188695.99663,0.6210418390110394,22.42286173656645
217.0,199819881634.3786,18766919668.93365,0.6190714484936162,22.84397664007068
218.0,205130014360.33682,19844873533.894917,0.6170574893876881,23.27189498285091
219.0,210075577680.10983,20926562513.620136,0.6149986862023882,23.706721790961183
220.0,214648566251.7101,22007447558.775,0.6128939111341579,24.148554728758548
221.0,218844516182.11145,23082991613.020603,0.6107422011254535,24.597482405629304
222.0,222662284515.89175,24148714484.685375,0.6085427736860686,25.05358267733751
223.0,226103793944.7105,25200244863.05726,0.6062950406340043,25.516920987713117
224.0,229173770307.28793,26233372548.125122,0.6039986221818933,25.987548630278624
225.0,231879416213.19095,27244094121.917225,0.601653354415223,26.46550134528848
226.0,234230123513.89163,28228657081.300602,0.5992592985031794,26.950797752435207
227.0,236237148365.33377,29183594102.238186,0.5968167435261313,27.44343827681108
228.0,237913334890.21274,30105760921.114017,0.5943262125315537,27.943403617478122
229.0,239272806458.587,30992365166.29011,0.5917884629771629,28.450653632637774
230.0,240330625773.4118,31840981251.507454,0.5892044749580672,28.96512728981938
231.0,241102621875.7029,32649546311.55629,0.5865754484668252,29.486742086358667
232.0,241605114847.44406,33416418402.60684,0.5839028132359516,30.015391382378724
233.0,241854618476.829,34140319575.77003,0.5811881807146223,30.550948354475548
234.0,241867807727.8792,34820354707.99402,0.5784333691413075,31.093262078789614
235.0,241661138321.15466,35456037551.64579,0.5756403707356597,31.64215921713594
236.0,241250901520.4904,36047196316.77544,0.5728113296455754,32.19744605704868
237.0,240652959715.04187,36594038014.34327,0.5699485512166056,32.75890487706521
238.0,239882682807.234,37097085983.288765,0.5670544562693183,33.32629891068217
239.0,238954955429.42773,37557130764.89683,0.5641315827650917,33.89937050670788
240.0,237883935393.71463,37975278735.79159,0.5611825660301505,34.47784152031334
241.0,236683213234.587,38352846113.11668,0.5582101133607735,35.061416892668014
242.0,235365645868.0879,38691371319.02822,0.5552170021920677,35.64978167508798
243.0,233943360931.62094,38992606133.19698,0.5522060548274574,36.2426045859252
244.0,232427888906.28043,39258408997.83743,0.5491801297566555,36.839538145147785
245.0,230829929572.55447,39490829767.196014,0.5461421098419281,37.44021766294623
246.0,229159654070.3854,39691984795.08094,0.5430948899628775,38.044265374894735
247.0,227426464165.1016,39864094970.487274,0.5400413695117939,38.65128615881803
248.0,225639233428.1562,40009448397.14076,0.5369844453233822,39.26087297135511
249.0,223806226490.48343,40130349923.53774,0.5339270041626856,39.87260275838057
