Time,J,A,S,tau
0,100,100,0.824053986,2.187538556
1,0,516.366675,0.834373317,1.882074912
2,298.4487751,796.9917689,0.841417915,1.675707329
3,782.1720809,1077.109694,0.841414651,1.675796074
4,1357.195938,1589.652903,0.841408936,1.675951513
5,2227.983203,2251.739001,0.841400769,1.676173612
6,3412.610593,3235.546736,0.841390155,1.676462326
7,5112.281089,4632.75959,0.841377095,1.676817601
8,7531.503453,6641.169202,0.841361593,1.677239371
9,10999.97394,9526.001904,0.841343653,1.677727562
10,15987.35619,13671.70147,0.841323279,1.678282086
11,23175.3645,19637.71122,0.841300477,1.678902848
12,33559.07338,28230.4825,0.841275252,1.679589738
13,48587.28269,40621.78002,0.841247611,1.68034264
14,70378.18857,58512.36178,0.84121756,1.681161425
15,102032.0014,84377.06518,0.841185107,1.682045952
16,148096.6334,121822.6658,0.84115026,1.682996071
17,215257.2586,176115.2744,0.841113027,1.684011622
18,313361.7344,254958.5298,0.841073418,1.685092431
19,456949.4723,369643.7729,0.841031442,1.686238315
20,667534.5782,536755.0832,0.840987109,1.68744908
21,977027.979,780701.2773,0.840940431,1.68872452
22,1432873.21,1137486.712,0.840891418,1.690064417
23,2105785.516,1660338.827,0.840840083,1.691468545
24,3101427.567,2428129.829,0.840786438,1.692936662
25,4578099.692,3558010.474,0.840730496,1.694468518
26,6773577.351,5224412.863,0.840672271,1.696063849
27,10045999.06,7687711.638,0.840611777,1.697722381
28,14936261.39,11337562.61,0.840549029,1.699443826
29,22263614.57,16758634.9,0.840484042,1.701227887
30,33272441.77,24830553.12,0.840416832,1.703074253
31,49858422.49,36880355.14,0.840347415,1.7049826
32,74918010.04,54915627.5,0.840275809,1.706952593
33,112890076.4,81982243.46,0.840202031,1.708983884
34,170598340.8,122714677.1,0.840126099,1.711076114
35,258564964.8,184185527.4,0.840048032,1.713228909
36,393067058.7,277220436.9,0.839967849,1.715441883
37,599363610.6,418440416.8,0.839885569,1.717714638
38,916780932.2,633443149,0.839801213,1.720046761
39,1406744442,961775156.5,0.839714802,1.722437828
40,2165520709,1464727418,0.839626357,1.724887399
41,3344477129,2237597381,0.8395359,1.727395023
42,5182438143,3429041876,0.839443454,1.729960235
43,8057486903,5271716768,0.839349041,1.732582554
44,12570251220,8130961704,0.839252685,1.735261488
45,19678187998,12582391319,0.83915441,1.73799653
46,30912886606,19536030269,0.83905424,1.740787157
47,48733129471,30435487913,0.8389522,1.743632835
48,77100053749,47578768975,0.838848317,1.746533013
49,1.22418E+11,74636704627,0.838742616,1.749487127
50,1.95078E+11,1.17494E+11,0.838635123,1.752494597
51,3.12001E+11,1.85615E+11,0.838525867,1.755554829
52,5.00842E+11,2.94283E+11,0.838414874,1.758667214
53,8.06959E+11,4.68255E+11,0.838302172,1.761831128
54,1.30502E+12,7.47784E+11,0.83818779,1.765045932
55,2.1184E+12,1.19856E+12,0.838071758,1.768310971
56,3.45167E+12,1.92815E+12,0.837954104,1.771625576
57,5.64531E+12,3.11336E+12,0.837834859,1.77498906
58,9.26803E+12,5.04585E+12,0.837714053,1.778400725
59,1.52733E+13,8.20845E+12,0.837591718,1.781859851
60,2.52655E+13,1.34035E+13,0.837467884,1.785365709
61,4.19539E+13,2.19687E+13,0.837342584,1.788917548
62,6.99308E+13,3.61435E+13,0.837215849,1.792514606
63,1.17008E+14,5.96892E+13,0.837087713,1.796156101
64,1.96523E+14,9.89468E+13,0.836958209,1.799841239
65,3.31327E+14,1.64645E+14,0.836827371,1.803569206
66,5.6072E+14,2.75003E+14,0.836695232,1.807339174
67,9.52522E+14,4.61069E+14,0.836561828,1.811150299
68,1.6242E+15,7.75945E+14,0.836427192,1.815001719
69,2.77991E+15,1.31078E+15,0.83629136,1.818892557
70,4.77578E+15,2.22257E+15,0.836154369,1.82282192
71,8.23513E+15,3.78273E+15,0.836016254,1.826788898
72,1.43E+16,6.46207E+15,0.835877051,1.830792565
73,2.48E+16,1.11E+16,0.835736798,1.834831977
74,4.32E+16,1.91E+16,0.835595531,1.838906177
75,7.55E+16,3.29E+16,0.835453288,1.843014189
76,1.33E+17,5.71E+16,0.835310107,1.847155022
77,2.34E+17,9.93E+16,0.835166027,1.851327668
78,4.13E+17,1.73E+17,0.835021086,1.855531103
79,7.34E+17,3.04E+17,0.834875322,1.859764288
80,1.31E+18,5.35E+17,0.834728775,1.864026167
81,2.33E+18,9.43E+17,0.834581484,1.868315667
82,4.19E+18,1.67E+18,0.83443349,1.872631703
83,7.53E+18,2.97E+18,0.834284831,1.876973169
84,1.36E+19,5.29E+18,0.83413555,1.881338948
85,2.46E+19,9.46E+18,0.833985685,1.885727904
86,4.47E+19,1.70E+19,0.833835278,1.890138889
87,8.14E+19,3.06E+19,0.833684371,1.894570737
88,1.49E+20,5.52E+19,0.833533003,1.899022268
89,2.73E+20,1.00E+20,0.833381218,1.903492288
90,5.02E+20,1.82E+20,0.833229056,1.907979588
91,9.26E+20,3.32E+20,0.83307656,1.912482944
92,1.71E+21,6.07E+20,0.832923771,1.917001117
93,3.18E+21,1.11E+21,0.832770732,1.921532856
94,5.91E+21,2.05E+21,0.832617485,1.926076896
95,1.10E+22,3.78E+21,0.832464074,1.930631956
96,2.06E+22,6.98E+21,0.83231054,1.935196745
97,3.86E+22,1.30E+22,0.832156927,1.939769957
98,7.26E+22,2.41E+22,0.832003278,1.944350274
99,1.37E+23,4.49E+22,0.831849636,1.948936366
100,2.59E+23,8.40E+22,0.831696043,1.953526889
101,4.90E+23,1.57E+23,0.831542545,1.958120489
102,9.29E+23,2.96E+23,0.831389183,1.962715801
103,1.77E+24,5.57E+23,0.831236002,1.967311447
104,3.37E+24,1.05E+24,0.831083045,1.971906039
105,6.44E+24,1.99E+24,0.830930356,1.97649818
106,1.23E+25,3.78E+24,0.830777979,1.981086459
107,2.36E+25,7.18E+24,0.830625958,1.985669461
108,4.54E+25,1.37E+25,0.830474335,1.990245756
109,8.75E+25,2.61E+25,0.830323156,1.994813908
110,1.69E+26,4.99E+25,0.830172465,1.999372473
111,3.26E+26,9.55E+25,0.830022305,2.003919997
112,6.31E+26,1.83E+26,0.82987272,2.008455019
113,1.22E+27,3.53E+26,0.829723754,2.012976071
114,2.38E+27,6.79E+26,0.829575452,2.017481677
115,4.62E+27,1.31E+27,0.829427857,2.021970356
116,9.01E+27,2.53E+27,0.829281013,2.026440619
117,1.76E+28,4.90E+27,0.829134966,2.030890975
118,3.43E+28,9.51E+27,0.828989758,2.035319923
119,6.71E+28,1.85E+28,0.828845433,2.039725961
120,1.31E+29,3.59E+28,0.828702037,2.044107582
121,2.58E+29,6.99E+28,0.828559613,2.048463274
122,5.06E+29,1.36E+29,0.828418204,2.052791523
123,9.95E+29,2.66E+29,0.828277856,2.057090813
124,1.96E+30,5.20E+29,0.828138612,2.061359623
125,3.85E+30,1.02E+30,0.828000516,2.065596433
126,7.59E+30,1.99E+30,0.827863612,2.069799721
127,1.50E+31,3.91E+30,0.827727944,2.073967964
128,2.96E+31,7.67E+30,0.827593557,2.07809964
129,5.85E+31,1.51E+31,0.827460494,2.082193227
130,1.16E+32,2.96E+31,0.827328798,2.086247203
131,2.29E+32,5.83E+31,0.827198515,2.09026005
132,4.53E+32,1.15E+32,0.827069687,2.09423025
133,8.98E+32,2.26E+32,0.826942359,2.09815629
134,1.78E+33,4.47E+32,0.826816574,2.102036659
135,3.53E+33,8.82E+32,0.826692376,2.105869851
136,7.01E+33,1.74E+33,0.826569809,2.109654366
137,1.39E+34,3.44E+33,0.826448916,2.113388708
138,2.77E+34,6.81E+33,0.82632974,2.11707139
139,5.50E+34,1.35E+34,0.826212325,2.120700928
140,1.09E+35,2.67E+34,0.826096715,2.124275851
141,2.17E+35,5.29E+34,0.825982952,2.127794693
142,4.33E+35,1.05E+35,0.825871079,2.131256001
143,8.61E+35,2.08E+35,0.82576114,2.134658329
144,1.71E+36,4.12E+35,0.825653176,2.138000245
145,3.41E+36,8.18E+35,0.82554723,2.141280328
146,6.80E+36,1.62E+36,0.825443345,2.144497172
147,1.35E+37,3.22E+36,0.825341562,2.147649384
148,2.70E+37,6.40E+36,0.825241923,2.150735587
149,5.38E+37,1.27E+37,0.825144469,2.153754419
150,1.07E+38,2.53E+37,0.825049241,2.156704538
151,2.14E+38,5.02E+37,0.82495628,2.159584617
152,4.26E+38,9.99E+37,0.824865626,2.162393352
153,8.49E+38,1.99E+38,0.824777319,2.165129458
154,1.69E+39,3.95E+38,0.824691397,2.167791673
155,3.38E+39,7.86E+38,0.8246079,2.170378756
156,6.73E+39,1.56E+39,0.824526866,2.172889493
157,1.34E+40,3.11E+39,0.824448332,2.175322694
158,2.68E+40,6.19E+39,0.824372335,2.177677195
159,5.34E+40,1.23E+40,0.82429891,2.179951863
160,1.06E+41,2.45E+40,0.824228094,2.182145591
161,2.12E+41,4.88E+40,0.824159921,2.184257305
162,4.23E+41,9.71E+40,0.824094424,2.18628596
163,8.44E+41,1.93E+41,0.824031636,2.188230547
164,1.68E+42,3.85E+41,0.823971589,2.190090089
165,3.36E+42,7.66E+41,0.823914312,2.191863647
166,6.69E+42,1.53E+42,0.823859837,2.193550316
167,1.33E+43,3.04E+42,0.823808191,2.19514923
168,2.66E+43,6.05E+42,0.823759401,2.196659563
169,5.30E+43,1.20E+43,0.823713494,2.198080529
170,1.06E+44,2.40E+43,0.823670493,2.199411382
171,2.11E+44,4.77E+43,0.823630424,2.200651419
172,4.20E+44,9.51E+43,0.823593306,2.201799983
173,8.36E+44,1.89E+44,0.823559162,2.202856458
174,1.67E+45,3.77E+44,0.82352801,2.203820274
175,3.32E+45,7.51E+44,0.823499867,2.20469091
176,6.62E+45,1.50E+45,0.82347475,2.20546789
177,1.32E+46,2.98E+45,0.823452673,2.206150785
178,2.63E+46,5.93E+45,0.823433649,2.206739216
179,5.24E+46,1.18E+46,0.823417688,2.207232854
180,1.04E+47,2.35E+46,0.823404802,2.207631418
181,2.08E+47,4.69E+46,0.823394996,2.207934678
182,4.14E+47,9.34E+46,0.823388277,2.208142454
183,8.25E+47,1.86E+47,0.82338465,2.208254618
184,1.64E+48,3.70E+47,0.823384118,2.208271091
185,3.27E+48,7.38E+47,0.82338668,2.208191849
186,6.52E+48,1.47E+48,0.823392337,2.208016915
187,1.30E+49,2.93E+48,0.823401085,2.207746366
188,2.59E+49,5.84E+48,0.82341292,2.20738033
189,5.15E+49,1.16E+49,0.823427837,2.206918985
190,1.03E+50,2.32E+49,0.823445826,2.206362559
191,2.04E+50,4.62E+49,0.82346688,2.205711333
192,4.07E+50,9.21E+49,0.823490986,2.204965636
193,8.11E+50,1.83E+50,0.823518133,2.204125846
194,1.61E+51,3.66E+50,0.823548304,2.20319239
195,3.22E+51,7.29E+50,0.823581486,2.202165745
196,6.40E+51,1.45E+51,0.823617659,2.201046434
197,1.28E+52,2.90E+51,0.823656805,2.199835025
198,2.54E+52,5.78E+51,0.823698903,2.198532134
199,5.06E+52,1.15E+52,0.823743931,2.197138421
200,1.01E+53,2.30E+52,0.823791866,2.195654591
201,2.01E+53,4.58E+52,0.823842683,2.194081389
202,3.99E+53,9.13E+52,0.823896357,2.192419604
203,7.95E+53,1.82E+53,0.823952859,2.190670065
204,1.58E+54,3.63E+53,0.824012162,2.188833642
205,3.15E+54,7.24E+53,0.824074235,2.18691124
206,6.27E+54,1.44E+54,0.824139049,2.184903806
207,1.25E+55,2.88E+54,0.824206571,2.182812317
208,2.49E+55,5.74E+54,0.824276768,2.180637791
209,4.95E+55,1.15E+55,0.824349608,2.178381275
210,9.84E+55,2.28E+55,0.824425055,2.176043849
211,1.96E+56,4.56E+55,0.824503075,2.173626627
212,3.90E+56,9.09E+55,0.82458363,2.171130749
213,7.75E+56,1.81E+56,0.824666684,2.168557387
214,1.54E+57,3.61E+56,0.8247522,2.165907736
215,3.06E+57,7.20E+56,0.824840139,2.163183022
216,6.09E+57,1.44E+57,0.824930463,2.160384492
217,1.21E+58,2.86E+57,0.825023132,2.157513418
218,2.41E+58,5.71E+57,0.825118106,2.154571096
219,4.78E+58,1.14E+58,0.825215345,2.151558841
220,9.49E+58,2.27E+58,0.825314809,2.14847799
221,1.88E+59,4.51E+58,0.825416455,2.145329897
222,3.74E+59,8.99E+58,0.825520243,2.142115936
223,7.42E+59,1.79E+59,0.825626131,2.138837498
224,1.47E+60,3.56E+59,0.825734076,2.135495987
225,2.91E+60,7.09E+59,0.825844037,2.132092826
226,5.77E+60,1.41E+60,0.825955969,2.128629449
227,1.14E+61,2.80E+60,0.826069832,2.125107304
228,2.26E+61,5.57E+60,0.82618558,2.12152785
229,4.47E+61,1.11E+61,0.826303172,2.117892558
230,8.84E+61,2.20E+61,0.826422563,2.114202909
231,1.75E+62,4.36E+61,0.826543711,2.110460395
232,3.45E+62,8.66E+61,0.826666571,2.106666512
233,6.80E+62,1.72E+62,0.826791099,2.102822769
234,1.34E+63,3.40E+62,0.826917252,2.098930679
235,2.64E+63,6.73E+62,0.827044985,2.09499176
236,5.20E+63,1.33E+63,0.827174254,2.091007539
237,1.02E+64,2.63E+63,0.827305016,2.086979545
238,2.01E+64,5.21E+63,0.827437226,2.082909313
239,3.94E+64,1.03E+64,0.827570838,2.078798378
240,7.72E+64,2.03E+64,0.82770581,2.074648281
241,1.51E+65,3.99E+64,0.827842097,2.070460563
242,2.96E+65,7.86E+64,0.827979654,2.066236768
243,5.77E+65,1.55E+65,0.828118436,2.06197844
244,1.13E+66,3.04E+65,0.828258399,2.057687123
245,2.20E+66,5.96E+65,0.828399498,2.05336436
246,4.27E+66,1.17E+66,0.828541689,2.049011694
247,8.30E+66,2.28E+66,0.828684927,2.044630666
248,1.61E+67,4.47E+66,0.828829167,2.040222815
249,3.12E+67,8.72E+66,0.828974364,2.035789678
250,6.04E+67,1.70E+67,0.829120474,2.031332786
251,1.17E+68,3.31E+67,0.829267452,2.026853671
252,2.25E+68,6.43E+67,0.829415254,2.022353856
253,4.32E+68,1.25E+68,0.829563833,2.017834861
254,8.31E+68,2.42E+68,0.829713146,2.013298203
255,1.59E+69,4.67E+68,0.829863147,2.00874539
256,3.05E+69,9.02E+68,0.830013793,2.004177926
257,5.82E+69,1.74E+69,0.830165037,1.999597306
258,1.11E+70,3.34E+69,0.830316836,1.99500502
259,2.11E+70,6.42E+69,0.830469144,1.990402549
260,4.01E+70,1.23E+70,0.830621916,1.985791367
261,7.59E+70,2.35E+70,0.830775109,1.981172938
262,1.43E+71,4.48E+70,0.830928677,1.97654872
263,2.70E+71,8.53E+70,0.831082576,1.971920158
264,5.08E+71,1.62E+71,0.83123676,1.967288689
265,9.53E+71,3.07E+71,0.831391186,1.962655741
266,1.78E+72,5.80E+71,0.83154581,1.958022728
267,3.33E+72,1.09E+72,0.831700585,1.953391057
268,6.19E+72,2.06E+72,0.83185547,1.948762121
269,1.15E+73,3.86E+72,0.832010418,1.944137302
270,2.13E+73,7.22E+72,0.832165386,1.93951797
271,3.93E+73,1.35E+73,0.832320331,1.934905484
272,7.23E+73,2.51E+73,0.832475207,1.930301187
273,1.33E+74,4.66E+73,0.832629972,1.925706412
274,2.43E+74,8.62E+73,0.832784582,1.921122477
275,4.43E+74,1.59E+74,0.832938994,1.916550688
276,8.05E+74,2.93E+74,0.833093163,1.911992335
277,1.46E+75,5.37E+74,0.833247048,1.907448696
278,2.64E+75,9.81E+74,0.833400604,1.902921031
279,4.75E+75,1.79E+75,0.83355379,1.89841059
280,8.53E+75,3.25E+75,0.833706563,1.893918604
281,1.53E+76,5.88E+75,0.833858881,1.889446292
282,2.72E+76,1.06E+76,0.834010701,1.884994855
283,4.83E+76,1.91E+76,0.834161982,1.880565481
284,8.56E+76,3.43E+76,0.834312683,1.876159339
285,1.51E+77,6.12E+76,0.834462761,1.871777585
286,2.66E+77,1.09E+77,0.834612176,1.867421357
287,4.66E+77,1.94E+77,0.834760887,1.863091779
288,8.13E+77,3.42E+77,0.834908854,1.858789957
289,1.41E+78,6.03E+77,0.835056036,1.85451698
290,2.45E+78,1.06E+78,0.835202394,1.850273921
291,4.23E+78,1.85E+78,0.835347888,1.846061838
292,7.28E+78,3.23E+78,0.83549248,1.841881769
293,1.25E+79,5.60E+78,0.835636129,1.837734738
294,2.13E+79,9.69E+78,0.835778798,1.833621751
295,3.62E+79,1.67E+79,0.835920449,1.829543797
296,6.14E+79,2.87E+79,0.836061044,1.825501848
297,1.04E+80,4.91E+79,0.836200545,1.821496859
298,1.74E+80,8.36E+79,0.836338916,1.817529769
299,2.92E+80,1.42E+80,0.83647612,1.813601497
300,4.87E+80,2.40E+80,0.83661212,1.809712949
301,8.10E+80,4.04E+80,0.836746882,1.805865011
302,1.34E+81,6.78E+80,0.836880369,1.802058554
303,2.21E+81,1.13E+81,0.837012548,1.79829443
304,3.63E+81,1.89E+81,0.837143382,1.794573475
305,5.95E+81,3.13E+81,0.83727284,1.790896509
306,9.70E+81,5.17E+81,0.837400886,1.787264335
307,1.57E+82,8.51E+81,0.837527488,1.783677737
308,2.55E+82,1.39E+82,0.837652613,1.780137486
309,4.11E+82,2.28E+82,0.837776228,1.776644333
310,6.60E+82,3.70E+82,0.837898304,1.773199015
311,1.06E+83,6.00E+82,0.838018807,1.769802251
312,1.68E+83,9.69E+82,0.838137708,1.766454744
313,2.67E+83,1.56E+83,0.838254976,1.763157181
314,4.22E+83,2.50E+83,0.838370581,1.759910234
315,6.66E+83,3.99E+83,0.838484495,1.756714557
316,1.05E+84,6.34E+83,0.838596688,1.753570789
317,1.64E+84,1.00E+84,0.838707132,1.750479554
318,2.55E+84,1.58E+84,0.8388158,1.747441459
319,3.96E+84,2.49E+84,0.838922665,1.744457096
320,6.14E+84,3.91E+84,0.839027699,1.741527043
321,9.47E+84,6.10E+84,0.839130878,1.738651861
322,1.46E+85,9.49E+84,0.839232174,1.735832097
323,2.23E+85,1.47E+85,0.839331564,1.733068281
324,3.41E+85,2.27E+85,0.839429022,1.730360932
325,5.20E+85,3.50E+85,0.839524525,1.727710551
326,7.89E+85,5.38E+85,0.839618049,1.725117626
327,1.19E+86,8.23E+85,0.839709572,1.72258263
328,1.80E+86,1.25E+86,0.839799071,1.720106022
329,2.71E+86,1.91E+86,0.839886524,1.717688247
330,4.06E+86,2.89E+86,0.839971911,1.715329737
331,6.08E+86,4.37E+86,0.84005521,1.713030908
332,9.06E+86,6.58E+86,0.840136401,1.710792164
333,1.35E+87,9.88E+86,0.840215466,1.708613896
334,2.00E+87,1.48E+87,0.840292384,1.70649648
335,2.96E+87,2.21E+87,0.840367138,1.704440279
336,4.37E+87,3.29E+87,0.840439709,1.702445645
337,6.43E+87,4.89E+87,0.840510081,1.700512915
338,9.44E+87,7.24E+87,0.840578236,1.698642413
339,1.38E+88,1.07E+88,0.840644159,1.696834452
340,2.02E+88,1.58E+88,0.840707834,1.695089331
341,2.95E+88,2.32E+88,0.840769246,1.693407338
342,4.30E+88,3.40E+88,0.84082838,1.691788748
343,6.25E+88,4.98E+88,0.840885224,1.690233823
344,9.07E+88,7.28E+88,0.840939762,1.688742814
345,1.31E+89,1.06E+89,0.840991983,1.68731596
346,1.90E+89,1.54E+89,0.841041874,1.685953488
347,2.74E+89,2.24E+89,0.841089425,1.684655613
348,3.95E+89,3.25E+89,0.841134623,1.68342254
349,5.68E+89,4.70E+89,0.841177459,1.682254461
350,8.17E+89,6.80E+89,0.841217923,1.681151555
351,1.17E+90,9.81E+89,0.841256005,1.680113994
352,1.68E+90,1.41E+90,0.841291697,1.679141936
353,2.41E+90,2.03E+90,0.84132499,1.678235527
354,3.45E+90,2.92E+90,0.841355877,1.677394904
355,4.93E+90,4.19E+90,0.841384352,1.676620193
356,7.04E+90,6.01E+90,0.841410407,1.675911507
357,1.00E+91,8.60E+90,0.841434037,1.675268951
358,1.43E+91,1.23E+91,0.841455237,1.674692616
359,2.04E+91,1.76E+91,0.841474002,1.674182586
360,2.91E+91,2.51E+91,0.841490328,1.673738932
361,4.15E+91,3.59E+91,0.841504211,1.673361714
362,5.91E+91,5.12E+91,0.841515649,1.673050982
363,8.43E+91,7.30E+91,0.841524639,1.672806777
364,1.20E+92,1.04E+92,0.841531179,1.672629127
365,1.71E+92,1.48E+92,0.841535269,1.672518052
366,2.44E+92,2.11E+92,0.841536907,1.672473559
367,3.47E+92,3.01E+92,0.841536094,1.672495645
368,4.95E+92,4.29E+92,0.84153283,1.672584299
369,7.06E+92,6.11E+92,0.841527116,1.672739498
370,1.01E+93,8.71E+92,0.841518954,1.672961206
371,1.44E+93,1.24E+93,0.841508346,1.673249381
372,2.06E+93,1.77E+93,0.841495295,1.673603969
373,2.94E+93,2.53E+93,0.841479804,1.674024902
374,4.21E+93,3.61E+93,0.841461878,1.674512108
375,6.03E+93,5.16E+93,0.841441521,1.675065498
376,8.65E+93,7.37E+93,0.841418737,1.675684977
377,1.24E+94,1.06E+94,0.841393534,1.676370438
378,1.79E+94,1.51E+94,0.841365916,1.677121762
379,2.57E+94,2.17E+94,0.841335891,1.67793882
380,3.71E+94,3.11E+94,0.841303466,1.678821474
381,5.36E+94,4.47E+94,0.84126865,1.679769573
382,7.75E+94,6.44E+94,0.84123145,1.680782956
383,1.12E+95,9.28E+94,0.841191876,1.681861451
384,1.63E+95,1.34E+95,0.841149938,1.683004875
385,2.37E+95,1.94E+95,0.841105645,1.684213034
386,3.45E+95,2.80E+95,0.841059009,1.685485722
387,5.04E+95,4.07E+95,0.841010041,1.686822724
388,7.38E+95,5.91E+95,0.840958753,1.68822381
389,1.08E+96,8.60E+95,0.840905158,1.689688742
390,1.59E+96,1.26E+96,0.840849268,1.691217268
391,2.34E+96,1.84E+96,0.840791097,1.692809127
392,3.46E+96,2.69E+96,0.84073066,1.694464043
393,5.12E+96,3.95E+96,0.84066797,1.696181732
394,7.60E+96,5.81E+96,0.840603044,1.697961893
395,1.13E+97,8.57E+96,0.840535898,1.699804218
396,1.69E+97,1.27E+97,0.840466547,1.701708384
397,2.53E+97,1.88E+97,0.840395009,1.703674056
398,3.79E+97,2.79E+97,0.840321301,1.705700887
399,5.70E+97,4.16E+97,0.840245441,1.707788518
400,8.60E+97,6.22E+97,0.840167449,1.709936576
401,1.30E+98,9.32E+97,0.840087342,1.712144675
402,1.98E+98,1.40E+98,0.840005142,1.714412419
403,3.01E+98,2.11E+98,0.839920867,1.716739395
404,4.60E+98,3.19E+98,0.83983454,1.719125179
405,7.06E+98,4.84E+98,0.83974618,1.721569334
406,1.09E+99,7.37E+98,0.839655811,1.724071408
407,1.68E+99,1.12E+99,0.839563455,1.726630937
408,2.59E+99,1.72E+99,0.839469134,1.729247441
409,4.03E+99,2.64E+99,0.839372872,1.73192043
410,6.28E+99,4.07E+99,0.839274693,1.734649396
411,9.83E+99,6.30E+99,0.839174621,1.737433818
412,1.54E+100,9.77E+99,0.839072682,1.740273163
413,2.43E+100,1.52E+100,0.838968902,1.743166881
414,3.85E+100,2.38E+100,0.838863305,1.746114408
415,6.11E+100,3.73E+100,0.838755919,1.749115166
416,9.73E+100,5.87E+100,0.838646771,1.752168562
417,1.56E+101,9.26E+100,0.838535889,1.755273988
418,2.50E+101,1.47E+101,0.8384233,1.758430821
419,4.02E+101,2.34E+101,0.838309033,1.761638423
