Time,J,A,S,tau
0,100,100,0.556061189,7.407407407
1,531.9985758,314.3435206,0.545318548,7.297181655
2,1552.555595,505.8658195,0.534362662,7.183096791
3,3023.705055,676.3679192,0.523209775,7.065141072
4,4826.773575,827.5176544,0.511876426,6.943301462
5,6860.339926,960.856853,0.50037964,6.817566037
6,9038.370722,1077.811167,0.488736871,6.687923996
7,11278.37145,1191.043521,0.48067501,6.59820193
8,13638.18642,1543.024875,0.478308931,6.575120345
9,16877.08999,2160.074756,0.475940624,6.552138165
10,21598.5877,2977.434352,0.473570892,6.529261875
11,28141.52078,3939.905464,0.471200547,6.506497849
12,36638.89614,5000.718632,0.4688304,6.483852344
13,47067.26162,6120.55169,0.466461265,6.461331504
14,59268.07008,7313.866921,0.46409396,6.438941358
15,73262.59783,8913.450482,0.461729301,6.416687816
16,90067.74762,11251.9374,0.459368107,6.394576676
17,111375.4099,14521.65421,0.457011198,6.372613617
18,139080.7493,18806.21256,0.454659392,6.350804203
19,174959.0902,24106.90135,0.452313508,6.329153881
20,220458.4197,30365.68041,0.449974361,6.307667983
21,276564.0175,37633.54718,0.447642768,6.286351724
22,344343.7235,46431.89494,0.445319541,6.265210204
23,426181.6256,57621.54878,0.44300549,6.244248409
24,526320.8391,72165.65953,0.440701422,6.223471209
25,650730.5128,90968.13359,0.43840814,6.202883361
26,806592.0075,114771.5055,0.436126444,6.182489508
27,1001600.875,144132.5423,0.433857126,6.162294181
28,1243358.969,179761.7434,0.431600975,6.142301801
29,1539925.319,223084.2332,0.429358775,6.122516676
30,1901570.074,276450.0251,0.427131303,6.102943007
31,2342591.288,343032.925,0.424919328,6.083584882
32,2882468.283,426560.7756,0.422723613,6.064446287
33,3546081.652,530982.8846,0.420544914,6.045531098
34,4363009.082,660315.3294,0.418383979,6.026843086
35,5366692.849,819038.0749,0.416225187,6.008662705
36,6594622.532,1012357.978,0.413935997,5.993236224
37,8089280.87,1247713.47,0.411491111,5.980977364
38,9902439.957,1534969.986,0.408892732,5.971838034
39,12098648.2,1886186.307,0.406143396,5.965770035
40,14757409.15,2315153.501,0.403245961,5.962725071
41,17973526.36,2837407.035,0.400222885,5.962333162
42,21858230.56,3472348.36,0.397210441,5.962333162
43,26543746.86,4241585.612,0.394233215,5.962333162
44,32183400.8,5171263.352,0.391292297,5.962333162
45,38957232.69,6293620.588,0.388388758,5.962333162
46,47079356.71,7647669.792,0.385523645,5.962333162
47,56804931.58,9279367.616,0.382697981,5.962333162
48,68435647.39,11242947.5,0.379912764,5.962333162
49,82327370.04,13602026.76,0.37716897,5.962333162
50,98897400.25,16430629.87,0.374467547,5.962333162
51,118632547.9,19815970.58,0.371809422,5.962333162
52,142101092.5,23861546.45,0.369195491,5.962333162
53,169968284.6,28689907.37,0.36662663,5.962333162
54,203013833.8,34445352.92,0.364103685,5.962333162
55,242150020.2,41297385.82,0.361627478,5.962333162
56,288444286.1,49443915.21,0.359198805,5.962333162
57,343140677.5,59115545.41,0.356818435,5.962333162
58,407686356.2,70581375.7,0.354487114,5.962333162
59,483763438.2,84155947.1,0.352205558,5.962333162
60,573325449.3,100206974.8,0.34997446,5.962333162
61,678643448.4,119163921.3,0.347794487,5.962333162
62,802356574.4,141527453.5,0.345666281,5.962333162
63,947529135.9,167879945.6,0.343590458,5.962333162
64,1117717174,198897681.7,0.34156761,5.962333162
65,1317038947,235365764.6,0.339598305,5.962333162
66,1550268242,278195356.3,0.337683086,5.962333162
67,1822926205,328444300.8,0.335822473,5.962333162
68,2141407730,387339973.7,0.334016963,5.962333162
69,2513109789,456306024.6,0.332267029,5.962333162
70,2946594295,536991807.1,0.330573124,5.962333162
71,3451766032,631307148.1,0.328935675,5.962333162
72,4040076471,741462102.1,0.327355092,5.962333162
73,4724773005,870013668.1,0.325831762,5.962333162
74,5521158570,1019920263,0.324366052,5.962333162
75,6446945421,1194603798,0.322958309,5.962333162
76,7522584230,1398023379,0.321608861,5.962333162
77,8771732250,1634757157,0.320318017,5.962333162
78,10221762038,1910098682,0.319086067,5.962333162
79,11904314235,2230168964,0.317913285,5.962333162
80,13855989606,2602044866,0.316799927,5.962333162
81,16119166964,3033908670,0.315746231,5.962333162
82,18742870974,3535224620,0.31475242,5.962333162
83,21783847205,4116940878,0.313818701,5.962333162
84,25307854953,4791723124,0.312945266,5.962333162
85,29391091600,5574229985,0.312132292,5.962333162
86,34121849007,6481431284,0.311379941,5.962333162
87,39602542586,7532976118,0.310688362,5.962333162
88,45952081849,8751624604,0.31005769,5.962333162
89,53308445721,10163756677,0.309488046,5.962333162
90,61831909576,11799957563,0.308979539,5.962333162
91,71708911037,13695702354,0.308532265,5.962333162
92,83156247659,15892169208,0.308146308,5.962333162
93,96426203632,18437178461,0.307821739,5.962333162
94,1.11813E+11,21386289970,0.307558617,5.962333162
95,1.29659E+11,24804103693,0.307356991,5.962333162
96,1.50364E+11,28765786385,0.307216898,5.962333162
97,1.74395E+11,33358848350,0.307138361,5.962333162
98,2.02297E+11,38685241161,0.307121395,5.962333162
99,2.34709E+11,44863856742,0.307166001,5.962333162
100,2.72377E+11,52033431540,0.307272171,5.962333162
101,3.16176E+11,60355971553,0.307439883,5.962333162
102,3.67133E+11,70020854557,0.307669107,5.962333162
103,4.26453E+11,81249635768,0.307959798,5.962333162
104,4.9555E+11,94301713959,0.308311901,5.962333162
105,5.7609E+11,1.09481E+11,0.30872535,5.962333162
106,6.70034E+11,1.27144E+11,0.309200065,5.962333162
107,7.79691E+11,1.47711E+11,0.309735956,5.962333162
108,9.0779E+11,1.71672E+11,0.310332919,5.962333162
109,1.05755E+12,1.99607E+11,0.310990837,5.962333162
110,1.23278E+12,2.32198E+11,0.311709581,5.962333162
111,1.43799E+12,2.7025E+11,0.312489008,5.962333162
112,1.67852E+12,3.14711E+11,0.313328961,5.962333162
113,1.96071E+12,3.66703E+11,0.314229271,5.962333162
114,2.2921E+12,4.27554E+11,0.31518975,5.962333162
115,2.68165E+12,4.98834E+11,0.316210198,5.962333162
116,3.14002E+12,5.82406E+11,0.3172904,5.962333162
117,3.67994E+12,6.80482E+11,0.318430124,5.962333162
118,4.31659E+12,7.95689E+11,0.319629121,5.962333162
119,5.06815E+12,9.31155E+11,0.320887125,5.962333162
120,5.95633E+12,1.09061E+12,0.322203854,5.962333162
121,7.00717E+12,1.27849E+12,0.323579007,5.962333162
122,8.25194E+12,1.5001E+12,0.325012265,5.962333162
123,9.72819E+12,1.7618E+12,0.326503288,5.962333162
124,1.14811E+13,2.07119E+12,0.32805172,5.962333162
125,1.35651E+13,2.43738E+12,0.329657183,5.962333162
126,1.60459E+13,2.8713E+12,0.331319277,5.962333162
127,1.90029E+13,3.38612E+12,0.333037582,5.962333162
128,2.2532E+13,3.99767E+12,0.334811659,5.962333162
129,2.67497E+13,4.72504E+12,0.336641043,5.962333162
130,3.17971E+13,5.59127E+12,0.338525248,5.962333162
131,3.78455E+13,6.62421E+12,0.340463766,5.962333162
132,4.51039E+13,7.85759E+12,0.342456065,5.962333162
133,5.38264E+13,9.33229E+12,0.344501587,5.962333162
134,6.43232E+13,1.10979E+13,0.346599754,5.962333162
135,7.69738E+13,1.32148E+13,0.34874996,5.962333162
136,9.22421E+13,1.57564E+13,0.350951576,5.962333162
137,1.10697E+14,1.88123E+13,0.353203947,5.962333162
138,1.33037E+14,2.24917E+13,0.355506392,5.962333162
139,1.60121E+14,2.69286E+13,0.357858208,5.962333162
140,1.93005E+14,3.22865E+13,0.360258661,5.962333162
141,2.32993E+14,3.87664E+13,0.362706995,5.962333162
142,2.81696E+14,4.6615E+13,0.365202427,5.962333162
143,3.41105E+14,5.61359E+13,0.367744148,5.962333162
144,4.13685E+14,6.7703E+13,0.370331324,5.962333162
145,5.02499E+14,8.17779E+13,0.372963093,5.962333162
146,6.11349E+14,9.8931E+13,0.37563857,5.962333162
147,7.44967E+14,1.19868E+14,0.378356842,5.962333162
148,9.09254E+14,1.45465E+14,0.381116973,5.962333162
149,1.11157E+15,1.76807E+14,0.383918,5.962333162
150,1.36113E+15,2.15247E+14,0.386758937,5.962333162
151,1.66946E+15,2.62467E+14,0.389638773,5.962333162
152,2.05102E+15,3.20567E+14,0.392556474,5.962333162
153,2.52397E+15,3.92169E+14,0.39551098,5.962333162
154,3.11117E+15,4.80555E+14,0.398501211,5.962333162
155,3.84142E+15,5.89839E+14,0.401526006,5.962334095
156,4.75111E+15,7.24876E+14,0.404500254,5.963670554
157,5.88518E+15,8.91465E+14,0.407320922,5.96796645
158,7.29931E+15,1.09708E+15,0.409985772,5.975250305
159,9.06321E+15,1.351E+15,0.412493437,5.985541665
160,1.13E+16,1.66472E+15,0.41484292,5.998858983
161,1.40E+16,2.05255E+15,0.417033024,6.01522866
162,1.74E+16,2.53316E+15,0.419141329,6.03341183
163,2.17E+16,3.13037E+15,0.421266456,6.051814577
164,2.71E+16,3.87275E+15,0.423407903,6.070430031
165,3.38E+16,4.79597E+15,0.425564959,6.089254506
166,4.23E+16,5.94456E+15,0.427736904,6.108284229
167,5.29E+16,7.37414E+15,0.429923016,6.127515336
168,6.62E+16,9.15444E+15,0.432122565,6.146943874
169,8.30E+16,1.14E+16,0.434334818,6.166565798
170,1.04E+17,1.41E+16,0.436559038,6.186376975
171,1.31E+17,1.76E+16,0.438794482,6.206373174
172,1.64E+17,2.19E+16,0.441040406,6.226550075
173,2.06E+17,2.74E+16,0.443296062,6.246903263
174,2.60E+17,3.42E+16,0.445560699,6.267428228
175,3.27E+17,4.27E+16,0.447833564,6.288120366
176,4.12E+17,5.33E+16,0.450113902,6.308974978
177,5.20E+17,6.67E+16,0.452400958,6.329987268
178,6.57E+17,8.35E+16,0.454693975,6.351152344
179,8.30E+17,1.05E+17,0.456992195,6.37246522
180,1.05E+18,1.31E+17,0.459294861,6.393920809
181,1.33E+18,1.65E+17,0.461601216,6.415513931
182,1.68E+18,2.07E+17,0.463910504,6.437239308
183,2.13E+18,2.60E+17,0.466221971,6.459091564
184,2.70E+18,3.27E+17,0.468534862,6.481065227
185,3.43E+18,4.12E+17,0.470848428,6.503154729
186,4.35E+18,5.19E+17,0.473161919,6.525354405
187,5.53E+18,6.54E+17,0.475474589,6.547658492
188,7.03E+18,8.25E+17,0.477785697,6.570061135
189,8.94E+18,1.04E+18,0.480094504,6.592556379
190,1.14E+19,1.32E+18,0.482400276,6.615138179
191,1.45E+19,1.66E+18,0.484702281,6.637800392
192,1.85E+19,2.10E+18,0.486999796,6.660536784
193,2.35E+19,2.66E+18,0.4892921,6.683341027
194,3.00E+19,3.37E+18,0.491578479,6.706206701
195,3.83E+19,4.27E+18,0.493858223,6.729127298
196,4.89E+19,5.41E+18,0.496130632,6.752096218
197,6.25E+19,6.86E+18,0.498395009,6.775106774
198,7.98E+19,8.71E+18,0.500650665,6.798152191
199,1.02E+20,1.11E+19,0.502896918,6.821225608
200,1.31E+20,1.40E+19,0.505133094,6.844320083
201,1.67E+20,1.79E+19,0.507358526,6.867428588
202,2.14E+20,2.27E+19,0.509572557,6.890544017
203,2.74E+20,2.89E+19,0.511774534,6.913659184
204,3.51E+20,3.67E+19,0.513963816,6.936766826
205,4.50E+20,4.68E+19,0.51613977,6.959859607
206,5.76E+20,5.96E+19,0.51830177,6.982930117
207,7.39E+20,7.59E+19,0.520449202,7.005970875
208,9.48E+20,9.68E+19,0.522581459,7.028974335
209,1.22E+21,1.23E+20,0.524697944,7.051932883
210,1.56E+21,1.57E+20,0.52679807,7.074838843
211,2.00E+21,2.01E+20,0.528881258,7.097684481
212,2.57E+21,2.57E+20,0.530946941,7.120462003
213,3.31E+21,3.28E+20,0.53299456,7.143163563
214,4.25E+21,4.18E+20,0.535023568,7.165781263
215,5.46E+21,5.35E+20,0.537033427,7.188307159
216,7.01E+21,6.83E+20,0.539023608,7.210733261
217,9.02E+21,8.74E+20,0.540993594,7.233051537
218,1.16E+22,1.12E+21,0.542942877,7.25525392
219,1.49E+22,1.43E+21,0.544870961,7.277332308
220,1.92E+22,1.83E+21,0.546777358,7.299278569
221,2.47E+22,2.34E+21,0.548661592,7.321084544
222,3.17E+22,3.00E+21,0.550523197,7.342742054
223,4.08E+22,3.83E+21,0.552361717,7.3642429
224,5.25E+22,4.91E+21,0.554176707,7.385578869
225,6.76E+22,6.29E+21,0.55596773,7.406741739
226,8.70E+22,8.06E+21,0.557734362,7.427723282
227,1.12E+23,1.03E+22,0.559476188,7.448515271
228,1.44E+23,1.32E+22,0.561192803,7.469109481
229,1.85E+23,1.70E+22,0.562883812,7.489497695
230,2.39E+23,2.17E+22,0.56454883,7.509671711
231,3.07E+23,2.79E+22,0.566187483,7.529623343
232,3.96E+23,3.57E+22,0.567799404,7.549344428
233,5.09E+23,4.58E+22,0.569384239,7.568826833
234,6.56E+23,5.88E+22,0.570941642,7.588062456
235,8.45E+23,7.54E+22,0.572471275,7.607043233
236,1.09E+24,9.67E+22,0.573972812,7.625761143
237,1.40E+24,1.24E+23,0.575445934,7.644208215
238,1.80E+24,1.59E+23,0.576890334,7.66237653
239,2.32E+24,2.04E+23,0.578305711,7.680258229
240,2.99E+24,2.62E+23,0.579691773,7.697845517
241,3.85E+24,3.37E+23,0.581048239,7.715130671
242,4.96E+24,4.32E+23,0.582374835,7.732106039
243,6.38E+24,5.55E+23,0.583671295,7.748764054
244,8.22E+24,7.12E+23,0.584937362,7.765097234
245,1.06E+25,9.14E+23,0.586172788,7.781098189
246,1.36E+25,1.17E+24,0.587377331,7.796759626
247,1.75E+25,1.51E+24,0.588550758,7.812074357
248,2.26E+25,1.94E+24,0.589692843,7.8270353
249,2.91E+25,2.48E+24,0.590803369,7.84163549
250,3.74E+25,3.19E+24,0.591882125,7.855868079
251,4.81E+25,4.10E+24,0.592928908,7.869726347
252,6.20E+25,5.26E+24,0.593943521,7.883203703
253,7.98E+25,6.76E+24,0.594925776,7.896293694
254,1.03E+26,8.68E+24,0.595875489,7.908990006
255,1.32E+26,1.12E+25,0.596792485,7.921286475
256,1.70E+26,1.43E+25,0.597676595,7.933177088
257,2.19E+26,1.84E+25,0.598527656,7.94465599
258,2.82E+26,2.36E+25,0.599345512,7.955717488
259,3.62E+26,3.04E+25,0.600130012,7.966356058
260,4.66E+26,3.90E+25,0.600881011,7.976566349
261,6.00E+26,5.01E+25,0.601598372,7.986343187
262,7.72E+26,6.44E+25,0.602281962,7.99568158
263,9.93E+26,8.28E+25,0.602931654,8.004576726
264,1.28E+27,1.06E+26,0.603547326,8.013024013
265,1.64E+27,1.37E+26,0.604128864,8.021019026
266,2.11E+27,1.76E+26,0.604676156,8.02855755
267,2.72E+27,2.26E+26,0.605189098,8.035635576
268,3.50E+27,2.90E+26,0.60566759,8.042249304
269,4.50E+27,3.73E+26,0.606111537,8.048395145
270,5.78E+27,4.79E+26,0.606520851,8.05406973
271,7.44E+27,6.16E+26,0.606895445,8.059269907
272,9.57E+27,7.91E+26,0.607235243,8.063992749
273,1.23E+28,1.02E+27,0.607540167,8.068235555
274,1.58E+28,1.31E+27,0.607810151,8.071995855
275,2.03E+28,1.68E+27,0.608045128,8.075271411
276,2.62E+28,2.16E+27,0.608245038,8.078060219
277,3.36E+28,2.78E+27,0.608409828,8.080360515
278,4.33E+28,3.57E+27,0.608539448,8.082170772
279,5.56E+28,4.59E+27,0.608633851,8.083489707
280,7.15E+28,5.91E+27,0.608692997,8.08431628
281,9.19E+28,7.60E+27,0.608716852,8.084649696
282,1.18E+29,9.77E+27,0.608705384,8.084489406
283,1.52E+29,1.26E+28,0.608658568,8.08383511
284,1.95E+29,1.62E+28,0.608576383,8.082686754
285,2.51E+29,2.08E+28,0.608458813,8.081044535
286,3.23E+29,2.67E+28,0.608305847,8.078908899
287,4.15E+29,3.44E+28,0.608117481,8.076280542
288,5.33E+29,4.42E+28,0.607893713,8.073160407
289,6.86E+29,5.69E+28,0.607634548,8.069549691
290,8.81E+29,7.32E+28,0.607339996,8.065449833
291,1.13E+30,9.42E+28,0.607010074,8.060862526
292,1.46E+30,1.21E+29,0.606644801,8.055789706
293,1.87E+30,1.56E+29,0.606244205,8.050233555
294,2.41E+30,2.01E+29,0.605808317,8.044196499
295,3.09E+30,2.58E+29,0.605337177,8.037681206
296,3.98E+30,3.33E+29,0.604830828,8.030690585
297,5.11E+30,4.28E+29,0.60428932,8.02322778
298,6.57E+30,5.51E+29,0.60371271,8.015296174
299,8.44E+30,7.10E+29,0.603101061,8.006899379
300,1.08E+31,9.14E+29,0.602454442,7.998041239
301,1.39E+31,1.18E+30,0.601772929,7.988725823
302,1.79E+31,1.51E+30,0.601056605,7.978957424
303,2.30E+31,1.95E+30,0.600305559,7.968740554
304,2.96E+31,2.51E+30,0.59951989,7.958079941
305,3.80E+31,3.24E+30,0.5986997,7.946980525
306,4.89E+31,4.17E+30,0.597845102,7.935447452
307,6.28E+31,5.37E+30,0.596956215,7.923486072
308,8.07E+31,6.91E+30,0.596033167,7.911101936
309,1.04E+32,8.91E+30,0.595076092,7.898300785
310,1.33E+32,1.15E+31,0.594085135,7.885088552
311,1.71E+32,1.48E+31,0.593060447,7.871471352
312,2.20E+32,1.90E+31,0.592002189,7.857455482
313,2.83E+32,2.45E+31,0.590910531,7.843047409
314,3.63E+32,3.16E+31,0.58978565,7.82825377
315,4.66E+32,4.07E+31,0.588627735,7.813081365
316,5.99E+32,5.25E+31,0.587436982,7.797537149
317,7.69E+32,6.77E+31,0.586213599,7.78162823
318,9.88E+32,8.72E+31,0.5849578,7.76536186
319,1.27E+33,1.12E+32,0.583669812,7.74874543
320,1.63E+33,1.45E+32,0.582349873,7.731786467
321,2.09E+33,1.87E+32,0.580998228,7.714492621
322,2.68E+33,2.40E+32,0.579615134,7.696871665
323,3.45E+33,3.10E+32,0.57820086,7.678931486
324,4.42E+33,3.99E+32,0.576755684,7.660680081
325,5.68E+33,5.14E+32,0.575279897,7.642125546
326,7.28E+33,6.63E+32,0.573773798,7.623276075
327,9.35E+33,8.54E+32,0.5722377,7.604139951
328,1.20E+34,1.10E+33,0.570671928,7.584725539
329,1.54E+34,1.42E+33,0.569076815,7.565041281
330,1.97E+34,1.83E+33,0.567452711,7.545095689
331,2.53E+34,2.35E+33,0.565799972,7.52489734
332,3.24E+34,3.03E+33,0.564118971,7.504454867
333,4.16E+34,3.90E+33,0.562410091,7.483776956
334,5.33E+34,5.02E+33,0.560673727,7.462872336
335,6.82E+34,6.47E+33,0.558910287,7.441749776
336,8.74E+34,8.33E+33,0.55712019,7.420418077
337,1.12E+35,1.07E+34,0.55530387,7.398886068
338,1.43E+35,1.38E+34,0.553461771,7.377162598
339,1.83E+35,1.78E+34,0.551594351,7.35525653
340,2.35E+35,2.29E+34,0.54970208,7.333176737
341,3.00E+35,2.94E+34,0.547785441,7.310932094
342,3.84E+35,3.78E+34,0.545844929,7.288531474
343,4.91E+35,4.86E+34,0.543881051,7.265983743
344,6.28E+35,6.25E+34,0.541894329,7.243297752
345,8.02E+35,8.03E+34,0.539885296,7.220482333
346,1.02E+36,1.03E+35,0.537854495,7.197546297
347,1.31E+36,1.33E+35,0.535802487,7.174498422
348,1.67E+36,1.70E+35,0.533729839,7.151347455
349,2.13E+36,2.19E+35,0.531637135,7.128102102
350,2.72E+36,2.81E+35,0.529524969,7.104771026
351,3.46E+36,3.60E+35,0.527393947,7.081362844
352,4.41E+36,4.62E+35,0.525244686,7.057886117
353,5.62E+36,5.92E+35,0.523077817,7.034349352
354,7.15E+36,7.59E+35,0.520893981,7.010760994
355,9.10E+36,9.72E+35,0.518693828,6.987129424
356,1.16E+37,1.24E+36,0.516478023,6.963462952
357,1.47E+37,1.59E+36,0.514247239,6.939769818
358,1.87E+37,2.04E+36,0.512002161,6.916058186
359,2.37E+37,2.61E+36,0.509743482,6.892336139
360,3.01E+37,3.33E+36,0.507471907,6.868611678
361,3.82E+37,4.26E+36,0.505188151,6.844892721
362,4.84E+37,5.44E+36,0.502892936,6.821187094
363,6.14E+37,6.94E+36,0.500586995,6.797502534
364,7.77E+37,8.85E+36,0.498271068,6.773846683
365,9.83E+37,1.13E+37,0.495945904,6.750227088
366,1.24E+38,1.44E+37,0.49361226,6.726651196
367,1.57E+38,1.83E+37,0.491270901,6.703126354
368,1.98E+38,2.33E+37,0.488922598,6.679659806
369,2.50E+38,2.97E+37,0.486568128,6.656258692
370,3.16E+38,3.77E+37,0.484208275,6.632930045
371,3.98E+38,4.79E+37,0.48184383,6.60968079
372,5.01E+38,6.08E+37,0.479475588,6.586517744
373,6.31E+38,7.71E+37,0.477104348,6.563447613
374,7.93E+38,9.77E+37,0.474730915,6.54047699
375,9.97E+38,1.24E+38,0.472356097,6.517612356
376,1.25E+39,1.57E+38,0.469980704,6.494860079
377,1.57E+39,1.98E+38,0.467605553,6.472226413
378,1.97E+39,2.50E+38,0.465231458,6.449717495
379,2.46E+39,3.16E+38,0.462859239,6.427339349
380,3.08E+39,3.99E+38,0.460489715,6.405097881
381,3.85E+39,5.03E+38,0.458123707,6.382998881
382,4.82E+39,6.34E+38,0.455762036,6.361048026
383,6.01E+39,7.97E+38,0.453405522,6.339250872
384,7.50E+39,1.00E+39,0.451054985,6.317612862
385,9.34E+39,1.26E+39,0.448711245,6.296139322
386,1.16E+40,1.58E+39,0.446375117,6.274835461
387,1.45E+40,1.98E+39,0.444047416,6.253706375
388,1.80E+40,2.49E+39,0.441728954,6.232757042
389,2.23E+40,3.11E+39,0.439420539,6.211992328
390,2.76E+40,3.89E+39,0.437122975,6.191416983
391,3.43E+40,4.86E+39,0.434837063,6.171035647
392,4.24E+40,6.07E+39,0.432563597,6.150852843
393,5.24E+40,7.57E+39,0.430303368,6.130872987
394,6.48E+40,9.43E+39,0.42805716,6.111100382
395,8.00E+40,1.17E+40,0.42582575,6.091539221
396,9.86E+40,1.46E+40,0.423609909,6.07219359
397,1.21E+41,1.81E+40,0.421410402,6.053067466
398,1.49E+41,2.25E+40,0.419227985,6.034164722
399,1.84E+41,2.79E+40,0.417062711,6.015500882
400,2.26E+41,3.45E+40,0.414814309,5.998784535
401,2.77E+41,4.26E+40,0.412407502,5.985278506
402,3.39E+41,5.25E+40,0.409844525,5.974931939
403,4.15E+41,6.46E+40,0.407127768,5.967696927
404,5.06E+41,7.93E+40,0.404259954,5.963525449
405,6.17E+41,9.72E+40,0.401245658,5.962343879
406,7.51E+41,1.19E+41,0.398193713,5.962345363
407,9.12E+41,1.45E+41,0.395176145,5.962345363
408,1.11E+42,1.77E+41,0.392193978,5.962345363
