Time,J,A,S,tau
0,100,100,0.658301931,17.54385965
1,875.5299756,519.2165691,0.655522774,17.12532145
2,3203.654102,927.1626304,0.652736247,16.70435101
3,6973.704165,1324.078967,0.649942628,16.28096355
4,12080.13167,1710.204424,0.647142167,15.85517083
5,18422.33456,2085.772773,0.644335125,15.42698537
6,25904.48264,2451.012836,0.641521763,14.99642047
7,34435.34759,2806.148598,0.63870235,14.5634902
8,43928.14711,3151.399306,0.635877158,14.12820943
9,54300.38096,3486.979585,0.633046466,13.69059376
10,65473.67512,3813.09955,0.630210555,13.2506596
11,77373.62916,4129.964903,0.627369713,12.8084241
12,89929.69563,4437.777002,0.62452423,12.36390519
13,103008.019,4914.113493,0.623684439,12.23651468
14,118007.3349,6345.411861,0.623520906,12.21637462
15,138444.7025,8745.920752,0.623358732,12.19644015
16,167548.597,12056.55346,0.623197966,12.17671628
17,208178.5529,16220.58276,0.623038657,12.15720794
18,262850.0584,21183.57047,0.622880853,12.13791992
19,333758.3257,26893.29812,0.622724602,12.11885698
20,422800.8604,33299.69955,0.622569952,12.10002375
21,531598.8047,40354.79568,0.622416949,12.0814248
22,661517.596,48012.62831,0.62226564,12.06306458
23,813685.9545,56229.19898,0.62211607,12.04494747
24,989014.2453,64962.4086,0.621968285,12.02707776
25,1188166.05,74236.2151,0.621822329,12.00945965
26,1412429.754,85449.81402,0.621678247,11.99209724
27,1669350.716,100939.9178,0.621536082,11.97499455
28,1974182.317,122833.9729,0.621395876,11.9581555
29,2348718.232,153039.8775,0.621257672,11.94158395
30,2820201.868,193259.6769,0.621121512,11.92528363
31,3420337.897,245002.6605,0.620987435,11.90925822
32,4184398.194,309597.8219,0.620855483,11.89351127
33,5150416.321,388205.7879,0.620725695,11.87804628
34,6358465.573,481830.1518,0.62059811,11.86286665
35,7850012.496,591328.2693,0.620472765,11.84797568
36,9667340.67,717421.7148,0.620349699,11.83337659
37,11853007.57,860760.5915,0.620228947,11.81907252
38,14449993.31,1023907.257,0.620110546,11.80506651
39,17511346.03,1214443.201,0.619994531,11.79136153
40,21117215.42,1444810.839,0.619880937,11.77796045
41,25389519.38,1731594.205,0.619769796,11.76486606
42,30503463.92,2094860.287,0.619661141,11.75208108
43,36696297.13,2557560.247,0.619555006,11.73960811
44,44273639.13,3144985.927,0.61945142,11.72744969
45,53613699.32,3884277.976,0.619350414,11.71560828
46,65169672.8,4803982.093,0.619252018,11.70408624
47,79470572.1,5933650.148,0.619156261,11.69288587
48,97120729.25,7303482.959,0.61906317,11.68200936
49,118798130.6,8944130.665,0.618972772,11.67145885
50,145252730.7,10889891.25,0.618885094,11.66123636
51,177321277.1,13188809.36,0.61880016,11.65134386
52,215977225.3,15913331.74,0.618717996,11.64178324
53,262412302.1,19168933.54,0.618638625,11.63255628
54,318141829.1,23100899.86,0.61856207,11.62366472
55,385126322.7,27899444.74,0.618488351,11.61511019
56,465903305.4,33803404.68,0.618417491,11.60689426
57,563724733.4,41102698.53,0.618349509,11.59901841
58,682695777.4,50139673.52,0.618284424,11.59148405
59,827910866.4,61309525.18,0.618222255,11.58429251
60,1005584978,75059942.6,0.618163018,11.57744504
61,1223178443,91890434.97,0.61810673,11.57094283
62,1489514422,112358128.6,0.618053406,11.56478697
63,1814922079,137103817.9,0.618003061,11.5589785
64,2211477890,166900242.6,0.617955708,11.55351836
65,2693408360,202717466.4,0.61791136,11.54840744
66,3277700607,245800710,0.617870029,11.54364653
67,3984952912,297756730.1,0.617831725,11.53923636
68,4840478923,360644987.6,0.617796458,11.5351776
69,5875666981,437071013.5,0.617764237,11.53147083
70,7129595409,530279870.2,0.617735069,11.52811656
71,8650894374,644247233.3,0.617708962,11.52511522
72,10499827584,783766804.6,0.617685921,11.52246719
73,12750581998,954534494.5,0.617665953,11.52017276
74,15493760513,1163242992,0.61764906,11.51823215
75,18839106782,1417726984,0.617635246,11.51664552
76,22918665745,1727203970,0.617624513,11.51541294
77,27890726257,2102643450,0.617616862,11.51453444
78,33944930366,2557284919,0.617612294,11.51400995
79,41309011708,3107318532,0.617610808,11.51383935
80,50257681655,3772735065,0.617612403,11.51402242
81,61124137894,4578341055,0.617617075,11.51455892
82,74314608225,5554935947,0.617624822,11.51544849
83,90326422860,6740645928,0.617635639,11.51669074
84,1.0977E+11,8182397929,0.617649521,11.51828517
85,1.33395E+11,9937524666,0.617666462,11.52023126
86,1.62122E+11,12075527901,0.617686454,11.52252839
87,1.97077E+11,14680094453,0.61770949,11.52517587
88,2.39632E+11,17851543849,0.617735559,11.52817294
89,2.9146E+11,21709964630,0.617764654,11.5315188
90,3.54584E+11,26399324033,0.617796762,11.53521255
91,4.31458E+11,32092831961,0.617831872,11.53925323
92,5.25048E+11,38999880549,0.617869971,11.54363981
93,6.38945E+11,47374871073,0.617911046,11.54837121
94,7.77505E+11,57528169247,0.617955083,11.55344625
95,9.46016E+11,69839462339,0.618002066,11.55886371
96,1.15092E+12,84773790807,0.61805198,11.56462228
97,1.40006E+12,1.029E+11,0.618104806,11.5707206
98,1.70304E+12,1.24915E+11,0.618160528,11.57715722
99,2.07157E+12,1.51664E+11,0.618219126,11.58393065
100,2.51995E+12,1.84177E+11,0.618280582,11.5910393
101,3.06567E+12,2.23698E+11,0.618344874,11.59848153
102,3.73001E+12,2.71734E+11,0.618411982,11.60625563
103,4.53892E+12,3.30102E+11,0.618481884,11.61435982
104,5.52395E+12,4.00995E+11,0.618554556,11.62279224
105,6.72342E+12,4.87066E+11,0.618629975,11.63155098
106,8.18392E+12,5.91526E+11,0.618708117,11.64063404
107,9.96203E+12,7.18268E+11,0.618788957,11.65003937
108,1.21265E+13,8.72024E+11,0.618872468,11.65976484
109,1.4761E+13,1.05855E+12,0.618958624,11.66980824
110,1.79674E+13,1.28486E+12,0.619047397,11.68016732
111,2.18696E+13,1.55947E+12,0.619138759,11.69083973
112,2.66187E+13,1.89279E+12,0.619232682,11.70182307
113,3.23991E+13,2.29744E+12,0.619329135,11.71311485
114,3.94355E+13,2.78875E+12,0.619428088,11.72471254
115,4.80018E+13,3.38532E+12,0.619529509,11.7366135
116,5.84318E+13,4.10969E+12,0.619633368,11.74881505
117,7.11322E+13,4.98916E+12,0.619739632,11.76131443
118,8.6598E+13,6.05678E+12,0.619848267,11.7741088
119,1.05432E+14,7.35255E+12,0.61995924,11.78719527
120,1.28367E+14,8.92498E+12,0.620072515,11.80057087
121,1.56294E+14,1.08328E+13,0.620188059,11.81423254
122,1.903E+14,1.31474E+13,0.620305835,11.82817716
123,2.31703E+14,1.59553E+13,0.620425808,11.84240156
124,2.82111E+14,1.93615E+13,0.620547939,11.85690247
125,3.43481E+14,2.34937E+13,0.620672192,11.87167657
126,4.18194E+14,2.8507E+13,0.620798528,11.88672043
127,5.09152E+14,3.45895E+13,0.620926909,11.90203061
128,6.19889E+14,4.19697E+13,0.621057296,11.91760353
129,7.54712E+14,5.09246E+13,0.621189649,11.93343559
130,9.18861E+14,6.17902E+13,0.621323927,11.9495231
131,1.11872E+15,7.49737E+13,0.621460089,11.96586229
132,1.36207E+15,9.09683E+13,0.621598096,11.98244933
133,1.65836E+15,1.10372E+14,0.621737904,11.99928031
134,2.0191E+15,1.33909E+14,0.621879471,12.01635124
135,2.45831E+15,1.62457E+14,0.622022755,12.03365809
136,2.99301E+15,1.97079E+14,0.622167713,12.05119673
137,3.64395E+15,2.39067E+14,0.622314301,12.06896295
138,4.43635E+15,2.89982E+14,0.622462474,12.0869525
139,5.40089E+15,3.51723E+14,0.622612189,12.10516104
140,6.57492E+15,4.26588E+14,0.622763401,12.12358416
141,8.00387E+15,5.17368E+14,0.622916065,12.14221737
142,9.74303E+15,6.27443E+14,0.623070134,12.16105613
143,1.19E+16,7.60913E+14,0.623225563,12.18009581
144,1.44E+16,9.22746E+14,0.623382306,12.19933172
145,1.76E+16,1.11896E+15,0.623540317,12.2187591
146,2.14E+16,1.35686E+15,0.623699548,12.23837311
147,2.60E+16,1.64526E+15,0.623859952,12.25816885
148,3.17E+16,1.99487E+15,0.624021481,12.27814135
149,3.86E+16,2.41865E+15,0.624184089,12.29828557
150,4.69E+16,2.93229E+15,0.624347726,12.3185964
151,5.71E+16,3.55481E+15,0.624512345,12.33906866
152,6.95E+16,4.30921E+15,0.624677898,12.35969711
153,8.45E+16,5.22339E+15,0.624844335,12.38047644
154,1.03E+17,6.33113E+15,0.625011608,12.40140127
155,1.25E+17,7.67333E+15,0.625179667,12.42246616
156,1.52E+17,9.29954E+15,0.625348463,12.4436656
157,1.85E+17,1.13E+16,0.625517948,12.46499403
158,2.25E+17,1.37E+16,0.625688071,12.4864458
159,2.74E+17,1.65E+16,0.625858782,12.50801522
160,3.33E+17,2.01E+16,0.626030033,12.52969653
161,4.05E+17,2.43E+16,0.626201772,12.55148391
162,4.92E+17,2.94E+16,0.626373951,12.57337149
163,5.99E+17,3.57E+16,0.626546518,12.59535332
164,7.28E+17,4.32E+16,0.626719424,12.6174234
165,8.85E+17,5.23E+16,0.626892619,12.63957569
166,1.08E+18,6.34E+16,0.627066052,12.66180408
167,1.31E+18,7.67E+16,0.627239673,12.68410239
168,1.59E+18,9.29E+16,0.627413432,12.70646442
169,1.93E+18,1.13E+17,0.627587278,12.7288839
170,2.35E+18,1.36E+17,0.627761162,12.7513545
171,2.85E+18,1.65E+17,0.627935032,12.77386986
172,3.46E+18,2.00E+17,0.62810884,12.79642356
173,4.21E+18,2.42E+17,0.628282534,12.81900913
174,5.11E+18,2.93E+17,0.628456065,12.84162007
175,6.21E+18,3.54E+17,0.628629382,12.86424982
176,7.54E+18,4.29E+17,0.628802436,12.88689178
177,9.16E+18,5.19E+17,0.628975177,12.90953933
178,1.11E+19,6.28E+17,0.629147556,12.93218579
179,1.35E+19,7.60E+17,0.629319522,12.95482445
180,1.64E+19,9.19E+17,0.629491026,12.97744856
181,1.99E+19,1.11E+18,0.629662019,13.00005134
182,2.41E+19,1.35E+18,0.629832453,13.02262599
183,2.93E+19,1.63E+18,0.630002277,13.04516566
184,3.55E+19,1.97E+18,0.630171444,13.06766348
185,4.31E+19,2.38E+18,0.630339905,13.09011256
186,5.23E+19,2.88E+18,0.630507612,13.112506
187,6.34E+19,3.48E+18,0.630674516,13.13483684
188,7.69E+19,4.21E+18,0.630840569,13.15709814
189,9.33E+19,5.09E+18,0.631005725,13.17928292
190,1.13E+20,6.15E+18,0.631169936,13.20138419
191,1.37E+20,7.44E+18,0.631333154,13.22339496
192,1.66E+20,8.99E+18,0.631495333,13.24530822
193,2.01E+20,1.09E+19,0.631656428,13.26711695
194,2.44E+20,1.31E+19,0.63181639,13.28881414
195,2.96E+20,1.59E+19,0.631975175,13.31039275
196,3.58E+20,1.92E+19,0.632132737,13.33184578
197,4.34E+20,2.32E+19,0.632289031,13.35316619
198,5.26E+20,2.80E+19,0.632444013,13.37434698
199,6.37E+20,3.38E+19,0.632597636,13.39538115
200,7.71E+20,4.09E+19,0.632749859,13.41626169
201,9.34E+20,4.93E+19,0.632900637,13.43698164
202,1.13E+21,5.96E+19,0.633049926,13.45753402
203,1.37E+21,7.20E+19,0.633197684,13.4779119
204,1.66E+21,8.69E+19,0.633343868,13.49810835
205,2.00E+21,1.05E+20,0.633488437,13.51811648
206,2.43E+21,1.27E+20,0.633631348,13.53792942
207,2.94E+21,1.53E+20,0.633772561,13.55754034
208,3.55E+21,1.85E+20,0.633912035,13.57694244
209,4.30E+21,2.23E+20,0.634049729,13.59612894
210,5.20E+21,2.69E+20,0.634185604,13.61509314
211,6.28E+21,3.25E+20,0.634319621,13.63382835
212,7.60E+21,3.92E+20,0.634451741,13.65232794
213,9.19E+21,4.73E+20,0.634581925,13.67058532
214,1.11E+22,5.71E+20,0.634710136,13.68859396
215,1.34E+22,6.89E+20,0.634836336,13.7063474
216,1.62E+22,8.31E+20,0.63496049,13.72383921
217,1.96E+22,1.00E+21,0.63508256,13.74106304
218,2.37E+22,1.21E+21,0.635202511,13.75801261
219,2.86E+22,1.46E+21,0.635320308,13.7746817
220,3.46E+22,1.76E+21,0.635435917,13.79106416
221,4.18E+22,2.12E+21,0.635549304,13.80715392
222,5.05E+22,2.56E+21,0.635660435,13.82294499
223,6.10E+22,3.09E+21,0.635769278,13.83843146
224,7.37E+22,3.72E+21,0.635875801,13.85360749
225,8.90E+22,4.49E+21,0.635979971,13.86846736
226,1.07E+23,5.41E+21,0.63608176,13.88300542
227,1.30E+23,6.53E+21,0.636181135,13.89721611
228,1.57E+23,7.87E+21,0.636278068,13.91109397
229,1.89E+23,9.49E+21,0.636372529,13.92463366
230,2.28E+23,1.14E+22,0.636464491,13.93782991
231,2.75E+23,1.38E+22,0.636553926,13.95067759
232,3.32E+23,1.66E+22,0.636640806,13.96317166
233,4.01E+23,2.00E+22,0.636725106,13.97530719
234,4.84E+23,2.42E+22,0.6368068,13.98707938
235,5.84E+23,2.91E+22,0.636885863,13.99848354
236,7.05E+23,3.51E+22,0.636962271,14.0095151
237,8.50E+23,4.23E+22,0.637036,14.02016961
238,1.03E+24,5.10E+22,0.637107028,14.03044277
239,1.24E+24,6.15E+22,0.637175333,14.04033039
240,1.49E+24,7.41E+22,0.637240894,14.0498284
241,1.80E+24,8.93E+22,0.637303689,14.0589329
242,2.17E+24,1.08E+23,0.637363699,14.06764009
243,2.62E+24,1.30E+23,0.637420906,14.07594635
244,3.16E+24,1.56E+23,0.63747529,14.08384816
245,3.81E+24,1.88E+23,0.637526834,14.09134218
246,4.59E+24,2.27E+23,0.637575522,14.0984252
247,5.54E+24,2.74E+23,0.637621338,14.10509417
248,6.67E+24,3.30E+23,0.637664266,14.11134617
249,8.05E+24,3.98E+23,0.637704292,14.11717846
250,9.70E+24,4.79E+23,0.637741403,14.12258844
251,1.17E+25,5.78E+23,0.637775585,14.12757368
252,1.41E+25,6.96E+23,0.637806826,14.1321319
253,1.70E+25,8.39E+23,0.637835117,14.13626097
254,2.05E+25,1.01E+24,0.637860445,14.13995896
255,2.47E+25,1.22E+24,0.637882802,14.14322406
256,2.98E+25,1.47E+24,0.637902179,14.14605466
257,3.59E+25,1.77E+24,0.637918568,14.1484493
258,4.33E+25,2.14E+24,0.637931962,14.1504067
259,5.22E+25,2.58E+24,0.637942355,14.15192574
260,6.29E+25,3.10E+24,0.637949742,14.15300547
261,7.58E+25,3.74E+24,0.637954118,14.15364513
262,9.14E+25,4.51E+24,0.637955479,14.15384411
263,1.10E+26,5.44E+24,0.637953822,14.15360199
264,1.33E+26,6.56E+24,0.637949147,14.15291851
265,1.60E+26,7.91E+24,0.637941451,14.1517936
266,1.93E+26,9.54E+24,0.637930735,14.15022736
267,2.33E+26,1.15E+25,0.637916999,14.14822006
268,2.80E+26,1.39E+25,0.637900245,14.14577215
269,3.38E+26,1.67E+25,0.637880476,14.14288427
270,4.07E+26,2.02E+25,0.637857694,14.1395572
271,4.91E+26,2.44E+25,0.637831903,14.13579193
272,5.92E+26,2.94E+25,0.63780311,14.13158962
273,7.14E+26,3.55E+25,0.63777132,14.12695159
274,8.61E+26,4.28E+25,0.637736539,14.12187935
275,1.04E+27,5.16E+25,0.637698776,14.11637457
276,1.25E+27,6.23E+25,0.637658039,14.11043911
277,1.51E+27,7.52E+25,0.637614337,14.10407499
278,1.82E+27,9.07E+25,0.637567682,14.09728442
279,2.19E+27,1.10E+26,0.637518084,14.09006974
280,2.65E+27,1.32E+26,0.637465555,14.08243351
281,3.19E+27,1.60E+26,0.637410109,14.07437843
282,3.85E+27,1.93E+26,0.637351759,14.06590737
283,4.64E+27,2.33E+26,0.637290521,14.05702336
284,5.60E+27,2.81E+26,0.637226409,14.04772961
285,6.75E+27,3.39E+26,0.637159441,14.03802948
286,8.15E+27,4.10E+26,0.637089634,14.02792649
287,9.83E+27,4.95E+26,0.637017006,14.01742433
288,1.19E+28,5.98E+26,0.636941577,14.00652683
289,1.43E+28,7.23E+26,0.636863366,13.99523798
290,1.73E+28,8.74E+26,0.636782395,13.98356193
291,2.08E+28,1.06E+27,0.636698685,13.97150297
292,2.51E+28,1.28E+27,0.636612259,13.95906554
293,3.03E+28,1.54E+27,0.63652314,13.94625422
294,3.66E+28,1.86E+27,0.636431353,13.93307374
295,4.42E+28,2.25E+27,0.636336922,13.91952898
296,5.34E+28,2.73E+27,0.636239875,13.90562492
297,6.44E+28,3.30E+27,0.636140237,13.8913667
298,7.78E+28,3.99E+27,0.636038037,13.8767596
299,9.39E+28,4.83E+27,0.635933303,13.86180901
300,1.13E+29,5.84E+27,0.635826064,13.84652044
301,1.37E+29,7.06E+27,0.63571635,13.83089953
302,1.65E+29,8.55E+27,0.635604192,13.81495205
303,2.00E+29,1.03E+28,0.635489622,13.79868386
304,2.41E+29,1.25E+28,0.635372673,13.78210095
305,2.92E+29,1.52E+28,0.635253377,13.76520942
306,3.52E+29,1.84E+28,0.635131769,13.74801546
307,4.26E+29,2.22E+28,0.635007883,13.73052537
308,5.14E+29,2.69E+28,0.634881755,13.71274555
309,6.21E+29,3.26E+28,0.634753421,13.69468248
310,7.51E+29,3.95E+28,0.634622919,13.67634275
311,9.08E+29,4.79E+28,0.634490285,13.65773302
312,1.10E+30,5.80E+28,0.634355558,13.63886005
313,1.33E+30,7.03E+28,0.634218777,13.61973066
314,1.60E+30,8.52E+28,0.634079983,13.60035176
315,1.94E+30,1.03E+29,0.633939215,13.58073033
316,2.34E+30,1.25E+29,0.633796514,13.56087342
317,2.83E+30,1.52E+29,0.633651923,13.54078812
318,3.43E+30,1.84E+29,0.633505483,13.52048162
319,4.15E+30,2.23E+29,0.633357239,13.49996114
320,5.02E+30,2.71E+29,0.633207232,13.47923396
321,6.07E+30,3.29E+29,0.633055508,13.4583074
322,7.34E+30,3.99E+29,0.632902112,13.43718885
323,8.88E+30,4.84E+29,0.632747088,13.41588572
324,1.07E+31,5.87E+29,0.632590482,13.39440546
325,1.30E+31,7.13E+29,0.632432342,13.37275556
326,1.57E+31,8.65E+29,0.632272714,13.35094353
327,1.91E+31,1.05E+30,0.632111645,13.32897693
328,2.31E+31,1.28E+30,0.631949184,13.30686332
329,2.79E+31,1.55E+30,0.631785379,13.28461028
330,3.38E+31,1.88E+30,0.631620279,13.26222542
331,4.09E+31,2.28E+30,0.631453933,13.23971636
332,4.96E+31,2.78E+30,0.631286392,13.21709072
333,6.00E+31,3.37E+30,0.631117704,13.19435612
334,7.27E+31,4.10E+30,0.630947922,13.1715202
335,8.80E+31,4.98E+30,0.630777096,13.14859058
336,1.07E+32,6.05E+30,0.630605277,13.12557489
337,1.29E+32,7.36E+30,0.630432518,13.10248074
338,1.57E+32,8.94E+30,0.63025887,13.07931574
339,1.90E+32,1.09E+31,0.630084385,13.05608747
340,2.30E+32,1.32E+31,0.629909117,13.03280351
341,2.78E+32,1.61E+31,0.629733118,13.0094714
342,3.37E+32,1.95E+31,0.629556442,12.98609867
343,4.09E+32,2.38E+31,0.629379142,12.96269282
344,4.96E+32,2.89E+31,0.629201272,12.93926132
345,6.01E+32,3.52E+31,0.629022885,12.9158116
346,7.28E+32,4.28E+31,0.628844037,12.89235106
347,8.83E+32,5.21E+31,0.62866478,12.86888706
348,1.07E+33,6.34E+31,0.62848517,12.84542692
349,1.30E+33,7.71E+31,0.628305261,12.82197793
350,1.57E+33,9.39E+31,0.628125108,12.79854731
351,1.91E+33,1.14E+32,0.627944766,12.77514225
352,2.31E+33,1.39E+32,0.627764289,12.75176988
353,2.81E+33,1.69E+32,0.627583733,12.72843728
354,3.40E+33,2.06E+32,0.627403152,12.70515147
355,4.13E+33,2.51E+32,0.627222602,12.68191943
356,5.00E+33,3.05E+32,0.627042137,12.65874806
357,6.07E+33,3.72E+32,0.626861813,12.6356442
358,7.36E+33,4.53E+32,0.626681685,12.61261465
359,8.93E+33,5.52E+32,0.626501807,12.58966612
360,1.08E+34,6.72E+32,0.626322235,12.56680526
361,1.31E+34,8.18E+32,0.626143022,12.54403866
362,1.60E+34,9.96E+32,0.625964225,12.52137283
363,1.94E+34,1.21E+33,0.625785897,12.49881422
364,2.35E+34,1.48E+33,0.625608093,12.4763692
365,2.85E+34,1.80E+33,0.625430867,12.45404405
366,3.46E+34,2.19E+33,0.625254273,12.43184501
367,4.20E+34,2.67E+33,0.625078365,12.40977821
368,5.09E+34,3.26E+33,0.624903198,12.38784972
369,6.18E+34,3.97E+33,0.624728823,12.36606552
370,7.50E+34,4.83E+33,0.624555295,12.34443152
371,9.10E+34,5.89E+33,0.624382666,12.32295354
372,1.11E+35,7.17E+33,0.62421099,12.30163734
373,1.34E+35,8.74E+33,0.624040317,12.28048855
374,1.63E+35,1.06E+34,0.623870701,12.25951277
375,1.98E+35,1.30E+34,0.623702193,12.23871547
376,2.40E+35,1.58E+34,0.623534845,12.21810208
377,2.91E+35,1.93E+34,0.623368706,12.1976779
378,3.54E+35,2.35E+34,0.623203829,12.17744816
379,4.29E+35,2.86E+34,0.623040263,12.15741803
380,5.21E+35,3.49E+34,0.622878057,12.13759255
381,6.33E+35,4.25E+34,0.622717262,12.1179767
382,7.68E+35,5.17E+34,0.622557925,12.09857536
383,9.32E+35,6.31E+34,0.622400096,12.07939333
384,1.13E+36,7.68E+34,0.622243822,12.0604353
385,1.37E+36,9.36E+34,0.62208915,12.04170591
386,1.67E+36,1.14E+35,0.621936128,12.02320968
387,2.03E+36,1.39E+35,0.621784802,12.00495105
388,2.46E+36,1.69E+35,0.621635217,11.98693438
389,2.99E+36,2.06E+35,0.621487418,11.96916391
390,3.63E+36,2.51E+35,0.621341451,11.95164383
391,4.41E+36,3.06E+35,0.62119736,11.93437822
392,5.35E+36,3.73E+35,0.621055187,11.91737108
393,6.50E+36,4.55E+35,0.620914976,11.90062631
394,7.89E+36,5.54E+35,0.620776768,11.88414772
395,9.58E+36,6.75E+35,0.620640606,11.86793905
396,1.16E+37,8.22E+35,0.62050653,11.85200394
397,1.41E+37,1.00E+36,0.62037458,11.83634594
398,1.72E+37,1.22E+36,0.620244796,11.82096852
399,2.08E+37,1.48E+36,0.620117217,11.80587504
400,2.53E+37,1.81E+36,0.619991881,11.7910688
401,3.07E+37,2.20E+36,0.619868825,11.77655301
402,3.73E+37,2.68E+36,0.619748085,11.76233078
403,4.53E+37,3.27E+36,0.619629698,11.74840515
404,5.50E+37,3.98E+36,0.619513699,11.73477904
405,6.69E+37,4.84E+36,0.619400122,11.72145533
406,8.12E+37,5.90E+36,0.619289001,11.70843679
407,9.86E+37,7.18E+36,0.619180368,11.69572611
408,1.20E+38,8.75E+36,0.619074256,11.68332589
409,1.45E+38,1.06E+37,0.618970695,11.67123865
410,1.77E+38,1.30E+37,0.618869717,11.65946684
