Time,J,A,S,tau
0.0,100.0,100.0,0.6583019305664292,17.543859649122805
1.0,875.4972429382876,519.1816381110741,0.6555209684558809,17.12543700441666
2.0,3203.4568723380567,927.0925380084087,0.6527326485221902,16.704582354693784
3.0,6973.215586011991,1323.973495223528,0.6499372473224729,16.281310916027305
4.0,12079.229701945917,1710.06336601011,0.6471350176663361,15.855634437132538
5.0,18420.901864303738,2085.5959355552345,0.6443262176509233,15.42756544308463
6.0,25902.40649810857,2450.8000363153496,0.6415111105207522,14.997117234499427
7.0,34432.519782159856,2805.8996642208854,0.6386899645230162,14.564303886351281
8.0,43924.46381694232,3151.114078713223,0.6358630527622275,14.129140247063402
9.0,54295.742685206904,3486.6579171287494,0.6330306530456031,13.691641936437733
10.0,65467.986563556406,3812.741303082451,0.6301930477283538,13.251825343890491
11.0,77366.79912906345,4129.569951441827,0.6273505235487871,12.80970762522691
12.0,89921.6369296266,4437.345230994695,0.624503371478961,12.365306702641549
13.0,102999.01760303785,4913.461851247486,0.6236580324094334,12.237132806588939
14.0,117995.64432661988,6343.9828292539805,0.6234944918669176,12.216991903467054
15.0,138427.51377176502,8743.62619253103,0.6233323102836963,12.197056604165555
16.0,167522.9218753306,12053.308260342714,0.6231715369490884,12.177331909322158
17.0,208141.2193407956,16216.304912160165,0.623012220697135,12.157822731045353
18.0,262797.760403634,21178.180795446882,0.6228544098905446,12.138533892627224
19.0,333687.6071233936,26886.72048332765,0.6226981524047498,12.119470128289793
20.0,422708.16847202234,33291.86064237615,0.6225434956122704,12.10063608299768
21.0,531480.4500739712,40345.624976566105,0.6223904863671166,12.082036312286741
22.0,661369.8552013373,48002.05801601597,0.6222391709896979,12.063675282188697
23.0,813505.1248311393,56217.16352333383,0.6220895952517088,12.045557369152112
24.0,988795.9534805573,64949.19205035276,0.6219418043605474,12.02768685990266
25.0,1187908.3683452928,74221.42704922293,0.6217958429455681,12.010067951594406
26.0,1412127.0952364425,85430.39296643093,0.6216517550440233,11.992704751909914
27.0,1668985.9904178155,100912.4507736116,0.621509584085973,11.975601278997395
28.0,1973727.1271174815,122794.94892522342,0.621369372880708,11.958761461642345
29.0,2348133.2019171165,152985.69566942146,0.6212311636030765,11.942189139418502
30.0,2819436.8584055305,193186.67145306952,0.6210949977800954,11.925888062873357
31.0,3419331.575371324,244907.08880119718,0.6209609162776829,11.909861893724974
32.0,4183079.3648516918,309475.9102087219,0.6208289592879055,11.89411420512039
33.0,5148704.096140725,388053.711460024,0.6206991663161334,11.878648481873327
34.0,6356269.451330704,481644.0599743143,0.6205715761688344,11.863468120774128
35.0,7847232.191734158,591104.2908666458,0.6204462269413376,11.848576430884428
36.0,9663867.982679633,717156.060936255,0.6203231560059934,11.833976633868847
37.0,11848727.352085596,860450.0777001769,0.6202024000007873,11.819671864366388
38.0,14444782.066756098,1023541.203831725,0.6200839948175949,11.805665170306023
39.0,17505040.2010221,1213999.077576086,0.6199679755918105,11.79195951336504
40.0,21109571.646506418,1444255.9163345206,0.6198543766912444,11.77855776932468
41.0,25380189.26890622,1730885.2966351022,0.6197432317057693,11.76546272849319
42.0,30491960.067044824,2093944.0794465218,0.6196345734372153,11.752677096135931
43.0,36681964.16578181,2556373.6188715687,0.619528433889544,11.740203492914436
44.0,44255631.78942223,3143456.318923226,0.6194248442592907,11.728044455332507
45.0,53590959.439334944,3882323.7811751054,0.6193238349263206,11.716202436192182
46.0,65140907.23815179,4801513.007112705,0.6192254354449337,11.704679805061534
47.0,79434233.06684999,5930567.527710962,0.6191296745352447,11.693478848745293
48.0,97075016.54355873,7299680.384314247,0.6190365800749018,11.68260177176322
49.0,118740936.5279631,8939495.797801815,0.6189461790909506,11.672050696816397
50.0,145181684.28150493,10884285.991442937,0.6188584977523097,11.661827665284983
51.0,177233597.48642382,13182040.83316529,0.6187735613622284,11.651934637695682
52.0,215869535.29313907,15905124.282753767,0.618691394351313,11.642373494213878
53.0,262280450.67085427,19158902.227762982,0.6186120202708355,11.633146035131187
54.0,317980443.91373235,23088516.58618999,0.6185354617862475,11.624253981341237
55.0,384928329.7972942,27884024.879961826,0.6184617406709704,11.615698974809463
56.0,465659628.4734695,33784091.90239676,0.6183908778007187,11.60748257905847
57.0,563423805.7916462,41078433.00211985,0.618322893148053,11.59960627964013
58.0,682322735.7145513,50109175.4221048,0.6182578057772183,11.592071484599405
59.0,827446998.372778,61271293.50886177,0.6181956338392003,11.584879524923517
60.0,1005007514.0075274,75012234.3460034,0.6181363945672975,11.578031655000915
61.0,1222459566.3456812,91831249.64872624,0.6180801042729995,11.57152905307039
62.0,1488620605.9578025,112285158.5782022,0.6180267783421263,11.565372821656812
63.0,1813813491.7946606,137014322.88007528,0.6179764312311974,11.559563987990217
64.0,2210106911.6942477,166790829.96600437,0.6179290764642265,11.55410350442404
65.0,2691717488.915138,202583837.93270987,0.617884726629933,11.54899224885023
66.0,3275620387.2236886,245637357.76308244,0.6178433933791816,11.54423102509564
67.0,3982397466.669388,297556477.08315104,0.6178050874226835,11.539820563302301
68.0,4837340240.048884,360398644.91346604,0.6177698185290037,11.535761520295175
69.0,5871810457.23661,436767019.8979594,0.6177375955230933,11.532054479953167
70.0,7124853503.070191,529903674.5348652,0.6177084262850249,11.528699953558027
71.0,8645054535.333784,643780752.6710463,0.6176823177490144,11.525698380127494
72.0,10492622711.508333,783188140.4631531,0.6176592759026676,11.523050126728142
73.0,12741684633.524948,953817329.8637391,0.6176393057867752,11.52075548879218
74.0,15482765702.099623,1162355791.0456467,0.6176224114953507,11.518814690414098
75.0,18825516425.492622,1416632133.3662846,0.6176085961759396,11.517227884629726
76.0,22901875054.296852,1725856508.382515,0.6175978620301354,11.515995153672822
77.0,27870001522.16791,2100988771.1868823,0.6175902103145718,11.515116509229681
78.0,33919377377.68525,2555256124.7273726,0.6175856413422559,11.514591892680722
79.0,41277546847.64142,3104833072.4441686,0.617584154484131,11.514421175321186
80.0,50218978471.018845,3769689457.932642,0.6175857481708664,11.514604158560875
81.0,61076555938.87691,4574605937.0920105,0.6175904198950017,11.515140574112866
82.0,74256130118.52322,5550350618.958178,0.6175981662135426,11.51603008417799
83.0,90254574187.47975,6735009505.510797,0.6176089827507447,11.51727228160582
84.0,109681737359.53485,8175459920.239827,0.6176228642011543,11.518866690037468
85.0,133286677876.06364,9928978334.150002,0.6176398043328842,11.520812764029145
86.0,161988480619.28857,12064999051.984137,0.6176597959914089,11.523109889177935
87.0,196912040819.77905,14667125793.239952,0.6176828311035445,11.52575738222464
88.0,239429678891.30673,17835580287.186745,0.6177089006816833,11.528754491139786
89.0,291210052921.1327,21690336440.31738,0.6177379948282122,11.532100395187582
90.0,354276732089.61163,26375216364.115406,0.6177701027404119,11.535794204991218
91.0,431079392226.89734,32063251798.80028,0.6178052127156073,11.539834962581894
92.0,524581891595.88916,38963616236.67627,0.6178433121565352,11.544221641430056
93.0,638372178175.7917,47330430197.62851,0.6178843875768957,11.548953146456418
94.0,776800228267.2238,57473712770.48272,0.6179284246072756,11.554028314038359
95.0,945150185762.5835,69772730863.3451,0.6179754080014226,11.5594459120102
96.0,1149854321607.5977,84691989216.41481,0.6180253216426878,11.565204639644238
97.0,1398756720562.6765,102800079688.84686,0.6180781485506727,11.571303127615742
98.0,1701435838608.793,124791643751.92744,0.6181338708881225,11.577739937956027
99.0,2069594663929.0947,151512841225.09695,0.6181924699682511,11.584513564009276
100.0,2517529205023.69,183991141383.1957,0.6182539262622044,11.591622430370482
101.0,3062689271803.2163,223470675242.83728,0.6183182194067375,11.5990648928112
102.0,3726350003123.5938,271454951876.03098,0.6183853282120516,11.606839238189448
103.0,4534418668088.056,329759160716.6375,0.6184552306700672,11.614943684367784
104.0,5518406603262.773,400574990514.24286,0.6185279039628606,11.62337638011782
105.0,6716609662919.088,486551366752.6195,0.6186033244712875,11.632135405014193
106.0,8175549643469.785,590895085167.6891,0.6186814677837432,11.64121876931401
107.0,9951745820983.578,717495534682.1754,0.6187623087052772,11.650624413842033
108.0,12113889812867.105,871078240453.468,0.6188458212669427,11.660350209872767
109.0,14745522794172.848,1057392396494.4952,0.6189319787352896,11.67039395900198
110.0,17948324640051.53,1283438000581.1157,0.6190207536219993,11.680753393008418
111.0,21846152874091.18,1557738733617.7031,0.6191121176937568,11.691426173715552
112.0,26589968994168.99,1890667793201.6267,0.6192060419824374,11.702409892862065
113.0,32363830732081.547,2294836779262.8013,0.6193024967953911,11.713702071962377
114.0,39392159471882.68,2785560541158.916,0.6194014517258798,11.725300162163053
115.0,47948547617726.81,3381415346771.0586,0.6195028756636539,11.737201544094319
116.0,58366414333707.984,4104911345785.943,0.6196067368058694,11.749403527739195
117.0,71051885418116.33,4983308533263.042,0.6197130026680976,11.761903352296658
118.0,86499405865392.06,6049611488717.897,0.6198216400954734,11.774698186044525
119.0,105310703773420.11,7343787153395.812,0.6199326152739353,11.787785126197786
120.0,128217902701904.48,8914255036223.117,0.6200458937417584,11.801161198785831
121.0,156111655487949.9,10819711512297.717,0.6201614404012207,11.814823358533447
122.0,190075513104313.97,13131359479343.922,0.6202792195303694,11.828768488743128
123.0,231427914201117.8,15935626993246.66,0.6203991947948709,11.842993401177305
124.0,281773596982000.75,19337467194888.5,0.6205213292600614,11.857494835955668
125.0,343066276917986.5,23464348852357.117,0.6206455854031857,11.872269461468965
126.0,417685095229182.9,28471074576288.24,0.6207719251256973,11.887313874295131
127.0,508527699898457.94,34545591191676.07,0.6209003097656438,11.902624599121816
128.0,619123638929856.4,41915994740792.2,0.6210307001101582,11.918198088678983
129.0,753772049052004.0,50858967546071.15,0.6211630564081762,11.934030723699479
130.0,917708711322224.1,61709970607148.12,0.6212973383831877,11.95011881288502
131.0,1117308838846041.4,74875578533768.75,0.6214335052460671,11.966458592884125
132.0,1360333435947300.0,90848448419542.95,0.621571515707954,11.983046228278708
133.0,1656228791943834.2,110225476921660.27,0.6217113279933346,11.999877811603849
134.0,2016489965238666.0,133729877326431.69,0.6218528998531735,12.01694936338096
135.0,2455103081874390.5,162238035832141.5,0.6219961885780947,12.034256832165951
136.0,2989083693752482.5,196812200886584.66,0.622141151011594,12.05179609460957
137.0,3639133526665996.0,238740179196970.84,0.6222877435633865,12.069562955549275
138.0,4430438982894495.5,289583492251876.25,0.6224359222228372,12.087553148126725
139.0,5393643872804892.0,351235756663161.9,0.6225856425724081,12.10576233392181
140.0,6566033278853881.0,425993403463074.1,0.6227368598011302,12.12418610310504
141.0,7992976843060779.0,516641220397821.2,0.6228895287181404,12.14281997461698
142.0,9729681861325032.0,626555645377031.8,0.6230436037663216,12.16165939638568
143.0,1.184332355399895e+16,759829627390543.4,0.623199039035938,12.180699745562968
144.0,1.441563273631741e+16,921423584390921.1,0.6233557882782866,12.199936328785464
145.0,1.7546041916734884e+16,1117348092893173.9,0.6235138049193615,12.219364382459467
146.0,2.1355505912602676e+16,1354884662740541.8,0.623673042073614,12.238979073092068
147.0,2.599113548027343e+16,1642853112665862.8,0.6238334525577011,12.258775497646655
148.0,3.163182521176227e+16,1991935540419320.0,0.6239949889042362,12.278748683927342
149.0,3.84950907050311e+16,2415069373109181.0,0.624157603375526,12.298893590988936
150.0,4.684538520796919e+16,2927923372817286.0,0.6243212479773637,12.319205109593728
151.0,5.700418684944902e+16,3549474518860753.5,0.6244858744728237,12.339678062703006
152.0,6.936225992087431e+16,4302707150739371.5,0.624651434396033,12.360307205999282
153.0,8.439455036852582e+16,5215460466400715.0,0.6248178790659223,12.381087228439041
154.0,1.0267831831397722e+17,6321454216048642.0,0.6249851595999845,12.402012752848615
155.0,1.2491512998096802e+17,7661528847706070.0,0.625153226928043,12.423078336566268
156.0,1.519575684406439e+17,9285145711775970.0,0.6253220318059792,12.44427847211652
157.0,1.8484165514261504e+17,1.1252201592682414e+16,0.625491524829432,12.465607587920811
158.0,2.248262635028303e+17,1.3635223154926822e+16,0.6256616564474698,12.487060049047148
159.0,2.7344091441906166e+17,1.6522016217805192e+16,0.6258323769762633,12.508630158014876
160.0,3.3254371948516646e+17,2.0018869026140136e+16,0.6260036366127102,12.530312155634894
161.0,4.04391664882509e+17,2.4254425485196896e+16,0.62617538544802,12.552100221890527
162.0,4.917259070743873e+17,2.9384373089801372e+16,0.6263475734812552,12.57398847685664
163.0,5.978752878334286e+17,3.5597105878253064e+16,0.626520150632848,12.595970981676336
164.0,7.268816729141885e+17,4.312057440461032e+16,0.6266930667580682,12.618041739579954
165.0,8.836519887173011e+17,5.223057256833481e+16,0.6268662716604385,12.640194696946484
166.0,1.0741425800432616e+18,6.326077076424902e+16,0.6270397151051,12.662423744406016
167.0,1.3055831309391967e+18,7.6614842546486e+16,0.6272133468321266,12.684722717996834
168.0,1.5867476903847457e+18,9.278112193881707e+16,0.6273871165697865,12.707085400373556
169.0,1.928283344182641e+18,1.1235032674665114e+17,0.6275609740477427,12.72950552205814
170.0,2.34310851210663e+18,1.360369931523445e+17,0.6277348690101964,12.751976762735884
171.0,2.846896579537015e+18,1.6470537902996682e+17,0.627908751228967,12.774492752601667
172.0,3.4586612253156685e+18,1.994007261593685e+17,0.6280825705165043,12.797047073764123
173.0,4.2014654045940357e+18,2.413870316508154e+17,0.6282562767388341,12.819633261693747
174.0,5.103280047279088e+18,2.921926775657426e+17,0.6284298198284398,12.842244806718963
175.0,6.19802516759489e+18,3.53665579021982e+17,0.6286031497970838,12.864875155569605
176.0,7.526830626868809e+18,4.280396973607856e+17,0.6287762167485317,12.887517712980753
177.0,9.139560797996613e+18,5.180153789551259e+17,0.6289489708912158,12.91016584334324
178.0,1.1096660639172667e+19,6.2685638545132e+17,0.6291213625508224,12.93281287240294
179.0,1.3471390879842017e+19,7.585071897556782e+17,0.6292933421828234,12.955452089007515
180.0,1.6352536698747781e+19,9.177344929338903e+17,0.6294648603849005,12.97807674691079
181.0,1.984768014517328e+19,1.1102980886700137e+18,0.6296358679092922,13.000680066627972
182.0,2.40871614158771e+19,1.3431572202839895e+18,0.6298063156750684,13.023255237338708
183.0,2.9228870907380638e+19,1.624719947950182e+18,0.6299761547803453,13.04579541883867
184.0,3.546405767986802e+19,1.9651441235651254e+18,0.6301453365143993,13.06829374354416
185.0,4.302434468761148e+19,2.3767004413320596e+18,0.6303138123696795,13.090743318550208
186.0,5.219021483495171e+19,2.874210740912683e+18,0.6304815340537515,13.113137227735278
187.0,6.330127144499594e+19,3.475577185485049e+18,0.6306484535011744,13.135468533914617
188.0,7.676866483539988e+19,4.202421112749956e+18,0.6308145228853019,13.15773028104283
189.0,9.309010680059976e+19,5.080852891844189e+18,0.6309796946299461,13.179915496469063
190.0,1.1286800915176387e+20,6.142400950208678e+18,0.631143921420981,13.202017193237912
191.0,1.3683140924380212e+20,7.425132650235882e+18,0.631307156217871,13.224028372437354
192.0,1.6586248629362937e+20,8.975007640130661e+18,0.6314693522651454,13.245942025593562
193.0,2.0102862650962654e+20,1.0847508354728407e+19,0.631630463103721,13.267751137114058
194.0,2.436211080631081e+20,1.3109606749598743e+19,0.6317904425821529,13.289448686775446
195.0,2.952018525031854e+20,1.5842136714725743e+19,0.631949244867814,13.311027652255095
196.0,3.5765990109236743e+20,1.9142658161981837e+19,0.6321068244580258,13.332481011707484
197.0,4.332797441346626e+20,2.3128909047933043e+19,0.6322631361910558,13.353801746383713
198.0,5.248237018376838e+20,2.7942966568417653e+19,0.6324181352570087,13.374982843292097
199.0,6.356314402320796e+20,3.3756266338824282e+19,0.6325717772086576,13.396017297899204
200.0,7.697401072552407e+20,4.077565874844209e+19,0.6327240179722214,13.416898116871868
201.0,9.320296561196028e+20,4.925071238661744e+19,0.6328748138580489,13.43761832085825
202.0,1.1283980745914961e+21,5.948251082373099e+19,0.6330241215711507,13.458170947303183
203.0,1.3659728742285705e+21,7.1834261147999085e+19,0.6331718982216863,13.478549053300071
204.0,1.6533663502948646e+21,8.67440861569981e+19,0.6333181013353836,13.498745718478231
205.0,2.000984017200747e+21,1.0474045671643254e+20,0.6334626888639112,13.518754047926164
206.0,2.421396863276921e+21,1.2646076952249416e+20,0.6336056191950663,13.538567175140214
207.0,2.929790052506979e+21,1.526737439095247e+20,0.6337468511629137,13.558178265004171
208.0,3.544504459911575e+21,1.8430641866669772e+20,0.6338863440578578,13.577580516798063
209.0,4.2876902498106994e+21,2.2247672160325527e+20,0.6340240576366845,13.596767167238248
210.0,5.186096339949095e+21,2.685326851899719e+20,0.6341599521324355,13.615731493535607
211.0,6.272021109707851e+21,3.240996988824479e+20,0.6342939882641917,13.634466816474887
212.0,7.58445957404439e+21,3.9113746432481794e+20,0.6344261272468062,13.652966503517252
213.0,9.170486774530604e+21,4.7200869098495325e+20,0.6345563308006015,13.671223971926755
214.0,1.1086929317097583e+22,5.695618619912147e+20,0.6346845611609491,13.689232691910656
215.0,1.340237793495864e+22,6.872309002107583e+20,0.6348107810876975,13.70698618976679
216.0,1.6199614693560107e+22,8.291553068078848e+20,0.6349349538745682,13.724478051048028
217.0,1.9578539143672824e+22,1.0003250029177707e+21,0.6350570433585007,13.741701923740779
218.0,2.3659702140595866e+22,1.2067549586906153e+21,0.6351770139289369,13.758651521455082
219.0,2.8588563754663964e+22,1.455695367826087e+21,0.6352948305369049,13.77532062660576
220.0,3.454062346955088e+22,1.755884986158722e+21,0.6354104587040708,13.79170309360252
221.0,4.1727605603170515e+22,2.117856450645604e+21,0.6355238645317294,13.80779285204372
222.0,5.040492134789109e+22,2.5543045307312384e+21,0.635635014709773,13.823583909917252
223.0,6.0880670436991795e+22,3.080529326916078e+21,0.6357438765254501,13.83907035678054
224.0,7.352647582715338e+22,3.714970340401691e+21,0.6358504178720559,13.854246366935511
225.0,8.879054798883994e+22,4.4798500823136485e+21,0.6359546072575706,13.869106202598463
226.0,1.0721343211850813e+23,5.401950338985262e+21,0.6360564138132759,13.883644217067898
227.0,1.2944701911755319e+23,6.513546989959128e+21,0.6361558073022051,13.897854857866328
228.0,1.5627741802618385e+23,7.853535966727357e+21,0.636252758127454,13.911732669856613
229.0,1.8865253022209482e+23,9.468790384856125e+21,0.636347237340457,13.92527229834584
230.0,2.277152725521076e+23,1.141579706168116e+22,0.6364392166492192,13.93846849217409
231.0,2.7484369029381256e+23,1.3762629036938703e+22,0.6365286684264512,13.951316106776789
232.0,3.316992375618923e+23,1.659132038267262e+22,0.6366155657174881,13.963810107198482
233.0,4.002849493345763e+23,2.0000729193253685e+22,0.636699882248179,13.975945571085598
234.0,4.8301554042541186e+23,2.4109989166308278e+22,0.6367815924327112,13.987717691649905
235.0,5.828019793086198e+23,2.9062673126797565e+22,0.6368606713813915,13.999121780604833
236.0,7.031534151307366e+23,3.503180498958829e+22,0.6369370949081686,14.010153271034232
237.0,8.482998745544831e+23,4.222590235653217e+22,0.6370108395381016,14.02080772022621
238.0,1.0233401627990722e+24,5.089626121876125e+22,0.6370818825147515,14.03108081246619
239.0,1.2344201635033789e+24,6.1345746261937006e+22,0.6371502018075468,14.040968361795512
240.0,1.4889479809423257e+24,7.393937763491221e+22,0.6372157761189104,14.050466314695237
