Time,J,A,S,tau
0,100,100,0.838938994,2.092050209
1,0,501.187179,0.689791624,1.35761965
2,252.9085429,568.5144469,0.662524503,1.206244772
3,460.5869466,725.3291984,0.662579212,1.206400776
4,698.9667993,893.036532,0.662668842,1.20665644
5,953.8013583,1107.840636,0.662793341,1.207011738
6,1246.931295,1373.92415,0.662952641,1.207466641
7,1595.134219,1705.412895,0.663146654,1.208021119
8,2018.051015,2119.080463,0.663375277,1.208675134
9,2539.497739,2636.164597,0.663638388,1.209428649
10,3188.679817,3283.854202,0.663935851,1.210281623
11,4002.396288,4096.869433,0.664267508,1.21123401
12,5027.563234,5119.748049,0.664633188,1.212285761
13,6324.454574,6409.800323,0.665032702,1.213436826
14,7971.093382,8040.995791,0.665465844,1.214687147
15,10069.03548,10109.12336,0.665932392,1.216036663
16,12750.89565,12738.67938,0.666432105,1.217485311
17,16190.77121,16091.99483,0.666964731,1.219033021
18,20618.14512,20381.50188,0.667529997,1.220679718
19,26336.38205,25886.26271,0.668127618,1.222425324
20,33748.58439,32974.14346,0.668757289,1.224269754
21,43392.41715,42131.97499,0.669418694,1.226212916
22,55987.34389,54006.60964,0.670111501,1.228254716
23,72501.22079,69460.71499,0.67083536,1.230395049
24,94239.74276,89649.83607,0.671589909,1.232633806
25,122975.6118,116127.421,0.672374772,1.23497087
26,161121.7828,150991.4372,0.673189558,1.237406117
27,211978.9527,197086.7996,0.674033862,1.239939414
28,280082.6263,258288.1247,0.674907265,1.242570622
29,371693.4383,339895.5535,0.675809337,1.24529959
30,495493.2701,449191.5393,0.676739633,1.248126159
31,663578.0743,596227.4729,0.677697696,1.251050162
32,892878.7181,794940.3645,0.678683057,1.254071419
33,1207205.852,1064745.087,0.679695236,1.257189742
34,1640208.305,1432814.624,0.68073374,1.260404929
35,2239709.311,1937355.539,0.681798066,1.263716769
36,3073940.443,2632358.305,0.682887699,1.267125036
37,4240788.972,3594479.05,0.684002116,1.270629494
38,5881400.265,4933095.187,0.685140781,1.27422989
39,8200278.526,6805050.544,0.686303152,1.277925961
40,11495379.69,9436366.81,0.687488674,1.281717427
41,16202883.89,13154430.81,0.688696786,1.285603992
42,22964835.21,18435831.37,0.689926917,1.289585346
43,32730995.17,25977985.25,0.691178491,1.293661163
44,46914409.58,36806612.25,0.692450922,1.297831097
45,67628003.82,52438242.91,0.693743616,1.302094786
46,98048086.29,75126744.32,0.695055976,1.306451851
47,142975338.6,108239440.6,0.696387397,1.310901891
48,209704643.8,156833730.3,0.697737267,1.315444487
49,309380855,228545607.4,0.699104971,1.320079198
50,459122921.5,334965701.9,0.700489888,1.324805564
51,685368972.7,493781166.1,0.701891395,1.329623101
52,1029171363,732126568.3,0.703308861,1.334531304
53,1554612495,1091853908,0.704741655,1.339529643
54,2362302591,1637857443,0.706189142,1.344617566
55,3611020427,2471303137,0.707650686,1.349794493
56,5552716000,3750743984,0.709125645,1.355059821
57,8589345270,5726004871,0.710613381,1.360412921
58,13365656380,8792825589,0.712113251,1.365853135
59,20921418023,13581426676,0.713624612,1.371379778
60,32942439770,21100777334,0.715146823,1.376992138
61,52176592610,32974772500,0.71667924,1.382689471
62,83126715626,51830798127,0.718221222,1.388471004
63,1.3321E+11,81942188942,0.719772129,1.394335935
64,2.1471E+11,1.30296E+11,0.721331322,1.400283428
65,3.48075E+11,2.08374E+11,0.722898165,1.406312617
66,5.67519E+11,3.35144E+11,0.724472022,1.4124226
67,9.30588E+11,5.42102E+11,0.726052263,1.418612445
68,1.53456E+12,8.81808E+11,0.727638259,1.424881184
69,2.54471E+12,1.44242E+12,0.729229385,1.431227812
70,4.24323E+12,2.37253E+12,0.730825022,1.437651291
71,7.11439E+12,3.92389E+12,0.732424553,1.444150546
72,1.19932E+13,6.52502E+12,0.734027367,1.450724464
73,2.03263E+13,1.09089E+13,0.735632857,1.457371895
74,3.46327E+13,1.83355E+13,0.737240423,1.464091649
75,5.93179E+13,3.09805E+13,0.738849469,1.4708825
76,1.02124E+14,5.26188E+13,0.740459408,1.477743179
77,1.76717E+14,8.98297E+13,0.742069656,1.484672379
78,3.07334E+14,1.54133E+14,0.743679638,1.491668752
79,5.3714E+14,2.65791E+14,0.745288786,1.498730907
80,9.43359E+14,4.60593E+14,0.746896537,1.505857414
81,1.66473E+15,8.02042E+14,0.74850234,1.513046798
82,2.95155E+15,1.40328E+15,0.750105646,1.520297542
83,5.25729E+15,2.46676E+15,0.75170592,1.527608087
84,9.40679E+15,4.35619E+15,0.75330263,1.534976829
85,1.69E+16,7.72768E+15,0.754895257,1.542402119
86,3.05E+16,1.38E+16,0.756483287,1.549882267
87,5.53E+16,2.46E+16,0.758066218,1.557415535
88,1.01E+17,4.43E+16,0.759643555,1.565000141
89,1.84E+17,7.99E+16,0.761214812,1.572634259
90,3.38E+17,1.45E+17,0.762779513,1.580316017
91,6.22E+17,2.64E+17,0.764337193,1.588043495
92,1.15E+18,4.81E+17,0.765887394,1.595814731
93,2.14E+18,8.83E+17,0.767429669,1.603627714
94,3.98E+18,1.62E+18,0.76896358,1.61148039
95,7.44E+18,3.00E+18,0.770488701,1.619370658
96,1.40E+19,5.56E+18,0.772004614,1.627296369
97,2.63E+19,1.03E+19,0.77351091,1.635255332
98,4.96E+19,1.93E+19,0.775007192,1.643245309
99,9.39E+19,3.61E+19,0.776493073,1.651264014
100,1.78E+20,6.79E+19,0.777968175,1.659309121
101,3.40E+20,1.28E+20,0.779432131,1.667378254
102,6.50E+20,2.42E+20,0.780884582,1.675468996
103,1.25E+21,4.58E+20,0.782325182,1.683578885
104,2.39E+21,8.70E+20,0.783753593,1.691705414
105,4.61E+21,1.66E+21,0.785169488,1.699846034
106,8.90E+21,3.17E+21,0.786572549,1.707998154
107,1.72E+22,6.07E+21,0.787962469,1.716159139
108,3.34E+22,1.17E+22,0.789338948,1.724326315
109,6.50E+22,2.24E+22,0.7907017,1.732496966
110,1.27E+23,4.33E+22,0.792050445,1.740668337
111,2.47E+23,8.37E+22,0.793384915,1.748837633
112,4.84E+23,1.62E+23,0.794704849,1.757002022
113,9.48E+23,3.15E+23,0.796009996,1.765158634
114,1.86E+24,6.12E+23,0.797300117,1.773304564
115,3.66E+24,1.19E+24,0.798574977,1.78143687
116,7.21E+24,2.33E+24,0.799834355,1.789552579
117,1.42E+25,4.55E+24,0.801078035,1.797648683
118,2.81E+25,8.92E+24,0.802305811,1.805722145
119,5.56E+25,1.75E+25,0.803517486,1.813769895
120,1.10E+26,3.44E+25,0.804712871,1.821788837
121,2.19E+26,6.76E+25,0.805891784,1.829775845
122,4.34E+26,1.33E+26,0.807054053,1.837727771
123,8.63E+26,2.63E+26,0.808199512,1.84564144
124,1.72E+27,5.18E+26,0.809328003,1.853513655
125,3.42E+27,1.03E+27,0.810439377,1.861341199
126,6.83E+27,2.03E+27,0.81153349,1.869120835
127,1.36E+28,4.02E+27,0.812610208,1.87684931
128,2.72E+28,7.97E+27,0.8136694,1.884523354
129,5.44E+28,1.58E+28,0.814710945,1.892139685
130,1.09E+29,3.14E+28,0.815734727,1.899695008
131,2.18E+29,6.25E+28,0.816740638,1.907186019
132,4.36E+29,1.24E+29,0.817728574,1.914609409
133,8.74E+29,2.47E+29,0.818698437,1.92196186
134,1.75E+30,4.93E+29,0.819650138,1.929240053
135,3.51E+30,9.82E+29,0.82058359,1.936440668
136,7.05E+30,1.96E+30,0.821498712,1.943560387
137,1.41E+31,3.91E+30,0.822395431,1.950595895
138,2.84E+31,7.80E+30,0.823273675,1.957543883
139,5.70E+31,1.56E+31,0.824133379,1.964401053
140,1.14E+32,3.11E+31,0.824974484,1.971164115
141,2.30E+32,6.22E+31,0.825796932,1.977829796
142,4.62E+32,1.24E+32,0.826600672,1.984394837
143,9.29E+32,2.49E+32,0.827385656,1.990855999
144,1.87E+33,4.97E+32,0.82815184,1.997210064
145,3.75E+33,9.94E+32,0.828899184,2.003453841
146,7.54E+33,1.99E+33,0.82962765,2.009584161
147,1.52E+34,3.98E+33,0.830337206,2.015597891
148,3.05E+34,7.97E+33,0.831027822,2.021491927
149,6.12E+34,1.59E+34,0.831699469,2.0272632
150,1.23E+35,3.19E+34,0.832352124,2.032908682
151,2.47E+35,6.39E+34,0.832985764,2.038425385
152,4.97E+35,1.28E+35,0.83360037,2.043810365
153,9.99E+35,2.56E+35,0.834195925,2.049060725
154,2.01E+36,5.13E+35,0.834772413,2.054173617
155,4.03E+36,1.03E+36,0.835329823,2.05914625
156,8.10E+36,2.06E+36,0.835868143,2.063975883
157,1.63E+37,4.12E+36,0.836387362,2.068659837
158,3.27E+37,8.25E+36,0.836887474,2.073195495
159,6.56E+37,1.65E+37,0.837368471,2.077580302
160,1.32E+38,3.31E+37,0.837830349,2.081811773
161,2.64E+38,6.62E+37,0.838273102,2.085887491
162,5.31E+38,1.33E+38,0.838696727,2.089805112
163,1.06E+39,2.65E+38,0.839101223,2.093562369
164,2.14E+39,5.31E+38,0.839486586,2.097157071
165,4.29E+39,1.06E+39,0.839852817,2.100587111
166,8.60E+39,2.13E+39,0.840199914,2.103850463
167,1.72E+40,4.26E+39,0.840527876,2.106945187
168,3.46E+40,8.53E+39,0.840836705,2.109869433
169,6.93E+40,1.71E+40,0.841126399,2.112621441
170,1.39E+41,3.42E+40,0.84139696,2.115199544
171,2.78E+41,6.84E+40,0.841648386,2.11760217
172,5.58E+41,1.37E+41,0.841880679,2.119827844
173,1.12E+42,2.74E+41,0.842093839,2.121875192
174,2.24E+42,5.48E+41,0.842287864,2.123742939
175,4.49E+42,1.10E+42,0.842462754,2.125429915
176,8.99E+42,2.20E+42,0.842618508,2.126935053
177,1.80E+43,4.40E+42,0.842755126,2.128257393
178,3.60E+43,8.80E+42,0.842872603,2.129396082
179,7.22E+43,1.76E+43,0.842970939,2.130350375
180,1.44E+44,3.52E+43,0.843050131,2.131119637
181,2.89E+44,7.05E+43,0.843110174,2.131703345
182,5.79E+44,1.41E+44,0.843151065,2.132101087
183,1.16E+45,2.83E+44,0.843172799,2.132312562
184,2.32E+45,5.66E+44,0.84317537,2.132337583
185,4.64E+45,1.13E+45,0.843158772,2.132176074
186,9.30E+45,2.27E+45,0.843122999,2.131828075
187,1.86E+46,4.54E+45,0.843068044,2.131293736
188,3.72E+46,9.09E+45,0.842993898,2.130573324
189,7.45E+46,1.82E+46,0.842900554,2.129667216
190,1.49E+47,3.65E+46,0.842788001,2.128575901
191,2.99E+47,7.31E+46,0.842656231,2.127299981
192,5.98E+47,1.46E+47,0.842505235,2.12584017
193,1.20E+48,2.93E+47,0.842335,2.12419729
194,2.39E+48,5.88E+47,0.842145517,2.122372273
195,4.79E+48,1.18E+48,0.841936775,2.12036616
196,9.60E+48,2.36E+48,0.841708761,2.118180097
197,1.92E+49,4.74E+48,0.841461466,2.115815335
198,3.85E+49,9.50E+48,0.841194877,2.113273231
199,7.70E+49,1.90E+49,0.840908983,2.110555241
200,1.54E+50,3.82E+49,0.840603772,2.107662923
201,3.09E+50,7.66E+49,0.840279233,2.104597932
202,6.18E+50,1.54E+50,0.839935355,2.101362019
203,1.24E+51,3.09E+50,0.839572128,2.09795703
204,2.48E+51,6.20E+50,0.839189541,2.094384902
205,4.97E+51,1.24E+51,0.838787585,2.09064766
206,9.95E+51,2.50E+51,0.838366251,2.086747417
207,1.99E+52,5.02E+51,0.837925532,2.08268637
208,3.99E+52,1.01E+52,0.837465421,2.0784668
209,7.99E+52,2.02E+52,0.836985911,2.074091062
210,1.60E+53,4.07E+52,0.836487,2.069561592
211,3.21E+53,8.18E+52,0.835968682,2.064880897
212,6.42E+53,1.64E+53,0.835430958,2.060051557
213,1.29E+54,3.30E+53,0.834873828,2.055076216
214,2.58E+54,6.64E+53,0.834297294,2.049957588
215,5.16E+54,1.33E+54,0.83370136,2.044698446
216,1.03E+55,2.68E+54,0.833086032,2.039301622
217,2.07E+55,5.40E+54,0.83245132,2.033770005
218,4.15E+55,1.09E+55,0.831797235,2.028106537
219,8.30E+55,2.18E+55,0.831123792,2.022314211
220,1.66E+56,4.39E+55,0.830431007,2.016396067
221,3.33E+56,8.82E+55,0.8297189,2.010355188
222,6.66E+56,1.77E+56,0.828987496,2.004194699
223,1.33E+57,3.56E+56,0.82823682,1.997917764
224,2.66E+57,7.17E+56,0.827466904,1.991527582
225,5.32E+57,1.44E+57,0.826677783,1.985027383
226,1.06E+58,2.89E+57,0.825869493,1.978420429
227,2.13E+58,5.81E+57,0.825042079,1.971710007
228,4.25E+58,1.17E+58,0.824195587,1.964899428
229,8.48E+58,2.34E+58,0.823330069,1.957992024
230,1.69E+59,4.71E+58,0.822445582,1.950991145
231,3.37E+59,9.44E+58,0.821542186,1.943900157
232,6.73E+59,1.89E+59,0.82061995,1.936722437
233,1.34E+60,3.80E+59,0.819678944,1.929461375
234,2.67E+60,7.61E+59,0.818719247,1.922120366
235,5.31E+60,1.52E+60,0.817740943,1.91470281
236,1.05E+61,3.05E+60,0.81674412,1.90721211
237,2.09E+61,6.10E+60,0.815728876,1.899651667
238,4.16E+61,1.22E+61,0.814695311,1.892024883
239,8.24E+61,2.43E+61,0.813643535,1.884335151
240,1.63E+62,4.85E+61,0.812573664,1.876585859
241,3.23E+62,9.68E+61,0.81148582,1.868780384
242,6.38E+62,1.93E+62,0.810380133,1.860922093
243,1.26E+63,3.83E+62,0.80925674,1.853014336
244,2.48E+63,7.62E+62,0.808115787,1.845060451
245,4.89E+63,1.51E+63,0.806957425,1.837063754
246,9.61E+63,3.00E+63,0.805781816,1.829027543
247,1.89E+64,5.94E+63,0.804589128,1.820955094
248,3.70E+64,1.17E+64,0.803379537,1.812849658
249,7.23E+64,2.32E+64,0.802153231,1.804714463
250,1.41E+65,4.57E+64,0.800910401,1.796552706
251,2.75E+65,8.99E+64,0.799651252,1.788367558
252,5.36E+65,1.77E+65,0.798375995,1.780162159
253,1.04E+66,3.46E+65,0.797084852,1.771939615
254,2.02E+66,6.78E+65,0.795778052,1.763703002
255,3.91E+66,1.32E+66,0.794455834,1.755455358
256,7.54E+66,2.58E+66,0.793118449,1.747199687
257,1.45E+67,5.02E+66,0.791766155,1.738938955
258,2.79E+67,9.75E+66,0.790399221,1.730676089
259,5.35E+67,1.89E+67,0.789017924,1.722413976
260,1.02E+68,3.65E+67,0.787622553,1.714155464
261,1.95E+68,7.03E+67,0.786213407,1.705903358
262,3.71E+68,1.35E+68,0.784790794,1.697660421
263,7.03E+68,2.59E+68,0.783355033,1.689429372
264,1.33E+69,4.96E+68,0.781906453,1.681212887
265,2.51E+69,9.45E+68,0.780445393,1.673013597
266,4.71E+69,1.80E+69,0.778972204,1.664834086
267,8.82E+69,3.40E+69,0.777487244,1.656676893
268,1.65E+70,6.43E+69,0.775990886,1.648544511
269,3.06E+70,1.21E+70,0.77448351,1.640439384
270,5.68E+70,2.27E+70,0.772965506,1.632363912
271,1.05E+71,4.25E+70,0.771437278,1.624320442
272,1.93E+71,7.91E+70,0.769899237,1.616311279
273,3.54E+71,1.47E+71,0.768351806,1.608338674
274,6.47E+71,2.72E+71,0.766795417,1.600404834
275,1.18E+72,5.00E+71,0.765230514,1.592511915
276,2.13E+72,9.18E+71,0.763657549,1.584662025
277,3.85E+72,1.68E+72,0.762076986,1.576857222
278,6.92E+72,3.06E+72,0.760489298,1.569099519
279,1.24E+73,5.54E+72,0.758894967,1.561390877
280,2.21E+73,1.00E+73,0.757294486,1.553733209
281,3.91E+73,1.80E+73,0.755688358,1.546128382
282,6.91E+73,3.21E+73,0.754077092,1.538578212
283,1.21E+74,5.72E+73,0.752461211,1.53108447
284,2.12E+74,1.01E+74,0.750841242,1.523648879
285,3.69E+74,1.79E+74,0.749217725,1.516273112
286,6.40E+74,3.14E+74,0.747591207,1.5089588
287,1.10E+75,5.48E+74,0.745962241,1.501707525
288,1.89E+75,9.52E+74,0.744331392,1.494520823
289,3.22E+75,1.65E+75,0.742699231,1.487400185
290,5.47E+75,2.83E+75,0.741066335,1.480347058
291,9.23E+75,4.85E+75,0.739433291,1.473362844
292,1.55E+76,8.25E+75,0.737800691,1.466448902
293,2.59E+76,1.40E+76,0.736169134,1.459606548
294,4.30E+76,2.35E+76,0.734539226,1.452837053
295,7.10E+76,3.94E+76,0.732911579,1.446141649
296,1.17E+77,6.55E+76,0.731286809,1.439521526
297,1.90E+77,1.09E+77,0.729665539,1.432977834
298,3.09E+77,1.79E+77,0.728048396,1.426511682
299,4.99E+77,2.92E+77,0.726436012,1.42012414
300,8.01E+77,4.76E+77,0.724829023,1.413816241
301,1.28E+78,7.70E+77,0.723228068,1.40758898
302,2.03E+78,1.24E+78,0.721633791,1.401443314
303,3.20E+78,1.98E+78,0.720046837,1.395380166
304,5.01E+78,3.15E+78,0.718467854,1.38940042
305,7.81E+78,4.97E+78,0.716897493,1.38350493
306,1.21E+79,7.81E+78,0.715336406,1.377694513
307,1.86E+79,1.22E+79,0.713785246,1.371969955
308,2.86E+79,1.89E+79,0.712244666,1.366332009
309,4.35E+79,2.92E+79,0.710715321,1.360781397
310,6.57E+79,4.48E+79,0.709197864,1.355318809
311,9.89E+79,6.82E+79,0.707692949,1.349944908
312,1.48E+80,1.03E+80,0.706201227,1.344660326
313,2.20E+80,1.56E+80,0.70472335,1.339465667
314,3.24E+80,2.33E+80,0.703259965,1.334361509
315,4.76E+80,3.46E+80,0.701811718,1.329348402
316,6.95E+80,5.12E+80,0.700379253,1.324426871
317,1.01E+81,7.52E+80,0.698963208,1.319597416
318,1.46E+81,1.10E+81,0.697564219,1.314860513
319,2.09E+81,1.60E+81,0.696182917,1.310216614
320,2.98E+81,2.30E+81,0.694819927,1.305666149
321,4.23E+81,3.31E+81,0.693475871,1.301209525
322,5.96E+81,4.72E+81,0.692151364,1.296847131
323,8.35E+81,6.70E+81,0.690847013,1.292579331
324,1.17E+82,9.45E+81,0.689563422,1.288406473
325,1.62E+82,1.32E+82,0.688301184,1.284328883
326,2.23E+82,1.85E+82,0.687060886,1.280346873
327,3.06E+82,2.56E+82,0.685843108,1.276460733
328,4.17E+82,3.54E+82,0.684648421,1.27267074
329,5.67E+82,4.86E+82,0.683477384,1.26897715
330,7.66E+82,6.63E+82,0.682330552,1.265380209
331,1.03E+83,9.00E+82,0.681208466,1.261880144
332,1.38E+83,1.22E+83,0.680111658,1.25847717
333,1.83E+83,1.64E+83,0.67904065,1.255171487
334,2.43E+83,2.19E+83,0.677995952,1.251963282
335,3.20E+83,2.91E+83,0.676978065,1.248852731
336,4.21E+83,3.86E+83,0.675987475,1.245839996
337,5.50E+83,5.09E+83,0.675024659,1.242925229
338,7.16E+83,6.68E+83,0.674090079,1.240108571
339,9.29E+83,8.74E+83,0.673184186,1.237390153
340,1.20E+84,1.14E+84,0.672307417,1.234770095
341,1.54E+84,1.47E+84,0.671460196,1.232248508
342,1.98E+84,1.90E+84,0.670642934,1.229825496
343,2.52E+84,2.45E+84,0.669856025,1.227501152
344,3.21E+84,3.14E+84,0.669099853,1.225275562
345,4.08E+84,4.01E+84,0.668374784,1.223148805
346,5.15E+84,5.10E+84,0.667681171,1.221120953
347,6.50E+84,6.47E+84,0.667019351,1.21919207
348,8.17E+84,8.18E+84,0.666389646,1.217362215
349,1.02E+85,1.03E+85,0.665792362,1.215631439
350,1.28E+85,1.30E+85,0.665227791,1.213999789
351,1.60E+85,1.63E+85,0.664696206,1.212467307
352,1.99E+85,2.03E+85,0.664197866,1.211034029
353,2.47E+85,2.54E+85,0.663733014,1.209699985
354,3.06E+85,3.16E+85,0.663301875,1.208465203
355,3.79E+85,3.92E+85,0.662904657,1.207329704
356,4.68E+85,4.86E+85,0.662541553,1.206293507
357,5.78E+85,6.02E+85,0.662212738,1.205356626
358,7.12E+85,7.43E+85,0.661918369,1.204519071
359,8.77E+85,9.17E+85,0.661658589,1.20378085
360,1.08E+86,1.13E+86,0.661433519,1.203141966
361,1.33E+86,1.39E+86,0.661243268,1.20260242
362,1.63E+86,1.71E+86,0.661087922,1.202162208
363,2.00E+86,2.11E+86,0.660967554,1.201821326
364,2.45E+86,2.59E+86,0.660882217,1.201579763
365,3.01E+86,3.18E+86,0.660831947,1.201437509
366,3.70E+86,3.90E+86,0.660816763,1.201394548
367,4.54E+86,4.79E+86,0.660836667,1.201450864
368,5.58E+86,5.88E+86,0.660891641,1.201606435
369,6.87E+86,7.23E+86,0.660981651,1.20186124
370,8.45E+86,8.88E+86,0.661106646,1.202215251
371,1.04E+87,1.09E+87,0.661266556,1.202668441
372,1.28E+87,1.34E+87,0.661461295,1.203220776
373,1.59E+87,1.66E+87,0.661690759,1.203872222
374,1.96E+87,2.04E+87,0.661954827,1.204622742
375,2.43E+87,2.53E+87,0.66225336,1.205472293
376,3.02E+87,3.13E+87,0.662586202,1.206420831
377,3.75E+87,3.87E+87,0.662953181,1.207468308
378,4.68E+87,4.81E+87,0.663354108,1.20861467
379,5.85E+87,5.99E+87,0.663788776,1.209859863
380,7.32E+87,7.46E+87,0.664256963,1.211203827
381,9.20E+87,9.33E+87,0.664758429,1.212646495
382,1.16E+88,1.17E+88,0.665292919,1.2141878
383,1.46E+88,1.47E+88,0.665860162,1.215827668
384,1.85E+88,1.85E+88,0.666459871,1.217566019
385,2.36E+88,2.34E+88,0.667091742,1.21940277
386,3.01E+88,2.96E+88,0.667755457,1.221337829
387,3.85E+88,3.77E+88,0.668450684,1.2233711
388,4.94E+88,4.81E+88,0.669177073,1.225502482
389,6.37E+88,6.16E+88,0.669934262,1.227731864
390,8.25E+88,7.91E+88,0.670721872,1.23005913
391,1.07E+89,1.02E+89,0.671539513,1.232484156
392,1.40E+89,1.32E+89,0.67238678,1.23500681
393,1.84E+89,1.72E+89,0.673263252,1.237626953
394,2.42E+89,2.25E+89,0.674168498,1.240344434
395,3.20E+89,2.95E+89,0.675102073,1.243159096
396,4.25E+89,3.88E+89,0.67606352,1.246070771
397,5.68E+89,5.13E+89,0.677052368,1.249079281
398,7.62E+89,6.82E+89,0.678068136,1.252184437
399,1.03E+90,9.11E+89,0.67911033,1.255386039
400,1.39E+90,1.22E+90,0.680178447,1.258683875
401,1.90E+90,1.65E+90,0.68127197,1.262077721
402,2.60E+90,2.24E+90,0.682390375,1.265567341
403,3.58E+90,3.05E+90,0.683533126,1.269152485
404,4.96E+90,4.17E+90,0.684699678,1.272832888
405,6.90E+90,5.75E+90,0.685889476,1.276608272
406,9.66E+90,7.95E+90,0.687101959,1.280478342
407,1.36E+91,1.11E+91,0.688336553,1.28444279
408,1.92E+91,1.55E+91,0.689592681,1.288501289
409,2.74E+91,2.18E+91,0.690869755,1.292653496
410,3.92E+91,3.08E+91,0.692167181,1.296899049
411,5.65E+91,4.39E+91,0.69348436,1.301237571
412,8.18E+91,6.28E+91,0.694820685,1.305668662
413,1.19E+92,9.04E+91,0.696175543,1.310191905
414,1.75E+92,1.31E+92,0.697548318,1.31480686
415,2.58E+92,1.91E+92,0.698938388,1.319513068
416,3.82E+92,2.79E+92,0.700345124,1.324310049
417,5.70E+92,4.11E+92,0.701767899,1.329197297
418,8.56E+92,6.09E+92,0.703206077,1.334174285
