Time,J,A,S,tau
0.0,100.0,100.0,0.6160772000894718,16.12101844372646
1.0,313.4488809954766,151.45865487949212,0.6168514852523319,15.046557918510366
2.0,628.6931887150599,199.92597182124615,0.6176222763995813,13.935789994992568
3.0,1034.9368818194248,245.4911334061178,0.6183890250715197,12.78843166987593
4.0,1521.294190912609,288.2478706014389,0.6191512085287226,11.604189861370777
5.0,2076.891142912933,328.29299087370265,0.619908316624291,10.3827866007228
6.0,2690.9689305513048,365.72587139223504,0.62065985111397,9.123959873585278
7.0,3352.9789140035673,400.6479986124201,0.6214053251471992,7.827464446601551
8.0,4031.157490662864,508.6497769181946,0.6215747008849246,7.272402583842773
9.0,4954.979135939918,721.2966572842541,0.6214288509922046,7.144352861121622
10.0,6322.1826567390935,1000.6454831260794,0.6212839670671235,7.020095041286329
11.0,8252.564765106776,1335.2672162279368,0.6211402141488824,6.899528794475635
12.0,10828.076548152754,1714.2043983889741,0.6209977368923023,6.782556872245167
13.0,14095.249480285776,2127.0670480885137,0.6208566624125155,6.669084976018462
14.0,18067.735365883014,2564.6262485975267,0.6207171027087337,6.559021642705898
15.0,22708.685185717903,3145.8920704842476,0.6205791567356966,6.452278144638526
16.0,28339.748851036664,4053.0352665160763,0.6204429121690285,6.348768395851064
17.0,35627.20837679174,5378.514436828952,0.62030844692094,6.248408876780743
18.0,45367.4586867859,7176.709976070179,0.620175830433838,6.151118558919473
19.0,58379.975717015834,9468.180411691828,0.6200451247889679,6.056818837890516
20.0,75419.82484169901,12244.33580149349,0.6199163856569853,5.965433470758522
21.0,97075.63822476157,15565.139183299627,0.6197896631142754,5.876888518117971
22.0,124009.25339960682,19832.684478965766,0.6196650023420325,5.7911122873099545
23.0,157708.15603240128,25631.963652021797,0.6195424442297347,5.708035281049587
24.0,200717.59131243307,33583.54864677473,0.6194220258933696,5.6275901464349865
25.0,256540.45214148372,44253.04513672786,0.6193037811218537,5.549711626419364
26.0,329344.37856611796,58089.331094342975,0.6191877407624591,5.474336512885386
27.0,423511.231145103,75582.81086381001,0.6190739330534226,5.4014036009416095
28.0,543674.6603912628,97840.19657487489,0.6189623839114101,5.3308536446237795
29.0,695961.9626697641,126810.87731839495,0.6188531171804608,5.262629313416565
30.0,889397.004618869,165156.42440537797,0.6187461548477619,5.196675150077612
31.0,1136766.4809619454,215950.91780044924,0.6186415172306771,5.132937529444044
32.0,1454668.1729748358,282379.8717319913,0.6185392231393668,5.071364617857428
33.0,1862794.5041350243,368089.10353790136,0.6184392900183444,5.011906333619543
34.0,2384040.881411237,478316.8187173036,0.6183417340696592,4.954514308426554
35.0,3046720.4896004666,620864.4865788431,0.6182465703603108,4.899141849464649
36.0,3888104.674836236,806419.3926156648,0.6181538129162558,4.845743902306593
37.0,4957796.916126099,1048191.6729906264,0.6180634748045525,4.794277014783375
38.0,6319520.84658794,1361638.814621059,0.6179755682052323,4.7446993017002415
39.0,8051720.448253669,1765652.4807771347,0.6178899007283013,4.696973707303277
40.0,10251520.006672807,2281025.05531001,0.6175118343277081,4.655776555470196
41.0,13030781.116064295,2933007.8591538225,0.616559873965377,4.625393806237791
42.0,16522028.336595682,3756484.47876786,0.6150485338593217,4.605329438954495
43.0,20888994.305309113,4792940.609605184,0.6129948816909789,4.59510261098078
44.0,26328990.87549618,6092442.689487289,0.6104663589390213,4.59349987020162
45.0,33077600.2860051,7729327.695955071,0.607909246872266,4.59349987020162
46.0,41443307.745530166,9783413.506525826,0.6054277238918329,4.59349987020162
47.0,51796424.48573365,12349263.125567885,0.6030234343623816,4.59349987020162
48.0,64579375.80504348,15541588.722774692,0.6006979664586389,4.59349987020162
49.0,80320451.56102635,19498861.999673482,0.5984528512757812,4.59349987020162
50.0,99648158.05660528,24398878.793390177,0.5962895620188574,4.59349987020162
51.0,123331254.07568137,30457719.683596954,0.5942095133050549,4.59349987020162
52.0,152305086.7153327,37932546.991996534,0.5922140605493234,4.59349987020162
53.0,187697990.87529978,47130285.71009915,0.5903044994344648,4.59349987020162
54.0,230864193.47338793,58417763.98615007,0.5884820654596309,4.59349987020162
55.0,283422516.4862322,72242066.56057735,0.5867479335593045,4.59349987020162
56.0,347319704.2725315,89147808.14471534,0.5851032177951768,4.59349987020162
57.0,424906931.6560546,109791924.14684959,0.5835489711087845,4.59349987020162
58.0,519024257.3649672,134962765.98808154,0.5820861851256609,4.59349987020162
59.0,633097102.8167509,165604369.10953704,0.5807157900060449,4.59349987020162
60.0,771250634.9436553,202852472.03209522,0.5794386543485778,4.59349987020162
61.0,938456138.255317,248079361.77895576,0.5782555851238834,4.59349987020162
62.0,1140718871.299402,302943262.95934445,0.5771673276417706,4.59349987020162
63.0,1385308354.5800374,369445137.9131121,0.5761745655446351,4.59349987020162
64.0,1681036342.0771208,449996529.9155162,0.5752779208218161,4.59349987020162
65.0,2038591262.4587348,547506187.4832194,0.5744779538399453,4.59349987020162
66.0,2470949728.9625816,665490725.6862367,0.5737751633846484,4.59349987020162
67.0,2993891522.0528073,808210239.7892871,0.5731699867093133,4.59349987020162
68.0,3626643345.288352,980832032.4467072,0.5726627995870249,4.59349987020162
69.0,4392679164.501503,1189628714.3897147,0.572253916362183,4.59349987020162
70.0,5320711064.96372,1442222424.494811,0.5719435899987579,4.59349987020162
71.0,6445919411.256936,1747890395.3851979,0.5717320121226015,4.59349987020162
72.0,7811490470.094645,2117946868.1863012,0.5716193130557093,4.59349987020162
73.0,9470547546.05921,2566217984.9609966,0.5716055618408293,4.59349987020162
74.0,11488581248.454712,3109630739.9480205,0.5716907662553098,4.59349987020162
75.0,13946509479.473455,3768945610.0807714,0.5718748728136042,4.59349987020162
76.0,16944534834.910387,4569673577.915287,0.5721577667583607,4.59349987020162
77.0,20607020195.69877,5543229013.920256,0.5725392720405452,4.59349987020162
78.0,25088671403.17048,6728381841.419607,0.5730191512895622,4.59349987020162
79.0,30582400827.236034,8173088190.711441,0.5735971057748466,4.59349987020162
80.0,37329352931.19723,9936801596.82856,0.5742727753608976,4.59349987020162
81.0,45631713750.769905,12093398843.28661,0.5750457384582093,4.59349987020162
82.0,55869115370.379715,14734895804.47924,0.5759155119730185,4.59349987020162
83.0,68519698885.64181,17976180411.365395,0.5768815512592413,4.59349987020162
84.0,84187232355.3715,21961055960.405113,0.5779432500763835,4.59349987020162
85.0,103636117654.02805,26869975016.817257,0.5790999405576087,4.59349987020162
86.0,127836697257.30228,32929960838.60151,0.5803508931925142,4.59349987020162
87.0,158024039737.24625,40427368887.32341,0.5816953168294868,4.59349987020162
88.0,195774409092.13828,49724346726.11017,0.5831323587028096,4.59349987020162
89.0,243104996870.21768,61280121834.964226,0.5846611044899437,4.59349987020162
90.0,302604335239.73926,75678606028.78638,0.5862805784046221,4.59349987020162
91.0,377603274052.86176,93664284124.30424,0.5879897433315575,4.59349987020162
92.0,472399716890.46344,116188996101.67247,0.5897875010086945,4.59349987020162
93.0,592554774448.8687,144473082769.48618,0.5916726922630081,4.59349987020162
94.0,745284023993.0334,180085520461.86884,0.5936440973058759,4.59349987020162
95.0,939975726866.6611,225049223730.09338,0.5957004360940303,4.59349987020162
96.0,1188878925180.8506,281979788748.0464,0.5978403687620208,4.59349987020162
97.0,1508017816158.6238,354268920186.3264,0.6000624961297134,4.59349987020162
98.0,1918415759044.6614,446327002799.6857,0.6023653603002687,4.59349987020162
99.0,2447734096234.9614,563905207945.7512,0.6047474453411295,4.59349987020162
100.0,3132455990479.089,714525593753.0652,0.6072071780478172,4.59349987020162
101.0,4020834719291.3203,908053312303.1293,0.6097429288322864,4.59349987020162
102.0,5177018251342.491,1157279277796.3838,0.6123252552717885,4.593916125452164
103.0,6686662443214.337,1475438687888.5515,0.6145131098633523,4.601370418841656
104.0,8655832539092.386,1880218614539.0981,0.6161588632725662,4.618175585518839
105.0,11220441587934.87,2394917620744.195,0.6172606535961388,4.644502444282964
106.0,14556160601981.637,3048928431484.2817,0.6178195547616463,4.680513021936563
107.0,18888235290146.55,3881481956250.8423,0.6179401338399398,4.724798938019406
108.0,24512784741626.074,4949876856756.579,0.6180229240768031,4.771289924435135
109.0,31829978749540.145,6319254174219.562,0.6181077824064082,4.81939733704645
110.0,41356830563285.87,8071294493290.602,0.6181946850619418,4.869146526189061
111.0,53759449196126.12,10309389159433.38,0.6182836074073876,4.920563527179039
112.0,69894243555454.65,13164741612153.951,0.6183745238948357,4.973675051673368
113.0,90861580584049.12,16810462322357.566,0.6184674080168383,5.028508478205473
114.0,118091166494919.22,21469838726768.97,0.6185622322533455,5.085091842161115
115.0,153438849252282.78,27424343586505.55,0.6186589680126805,5.143453824597313
116.0,199299998011185.6,35028424413982.91,0.6187575855650718,5.2036237405954635
117.0,258751519804754.06,44727715293191.766,0.6188580539687725,5.265631526406925
118.0,335729252381886.6,57083633668547.44,0.6189603409864128,5.329507725934419
119.0,435253192329710.25,72809368607001.61,0.6190644129916137,5.395283476262849
120.0,563726241594863.9,92808535662369.9,0.6191702348633313,5.462990492169055
121.0,729301507141914.2,118219597035915.89,0.6192777698669527,5.532661050015774
122.0,942331750200046.5,150469965976712.78,0.6193869795202639,5.604327970392945
123.0,1215913203264552.8,191342007841891.56,0.619497823441446,5.678024600313216
124.0,1566540917853414.2,243054351206156.84,0.6196102591781553,5.7537847942706755
125.0,2014904463568866.5,308366376513858.8,0.619724242012943,5.83164289474031
126.0,2586850823490735.5,390705776325020.25,0.6198397247441433,5.911633712023107
127.0,3314559809226033.5,494318994075610.7,0.6199566574367164,5.993792503321449
128.0,4237933363462431.5,624448806999343.6,0.6200749871403148,6.078154951734816
129.0,5406245682369198.0,787541871759594.0,0.6201946575699301,6.164757144518024
130.0,6880056499329882.0,991492367631431.8,0.6203156087426855,6.253635551687309
131.0,8733417517374801.0,1245927407384685.8,0.6204377765676825,6.344827004399369
132.0,1.105640748046841e+16,1562545314782207.0,0.6205610923784878,6.438368673868879
133.0,1.395798865066508e+16,1955510964428329.2,0.6206854824051109,6.534298051066199
134.0,1.7569272648702316e+16,2441911289273015.0,0.6208108671731957,6.632652927106947
135.0,2.2047084274578372e+16,3042277090813306.0,0.6209371608233534,6.733471375849817
136.0,2.757794525854563e+16,3781169151572407.5,0.6210642703393005,6.836791737712187
137.0,3.4382333445623316e+16,4687834551791205.0,0.621192094672392,6.9426526064872975
138.0,4.2719232126853656e+16,5796932828062502.0,0.6213205237489011,7.051092819144933
139.0,5.289073297489107e+16,7149339911166819.0,0.6214494373448247,7.162151450311827
140.0,6.524684043430876e+16,8793023390594835.0,0.6215787038116252,7.27586781075175
141.0,8.019010818509461e+16,1.0783994916447374e+16,0.6217081786325269,7.392281452359175
142.0,9.81801102641682e+16,1.3187327950140856e+16,0.6218377027888935,7.511432179918752
143.0,1.1973726359739974e+17,1.6078240650745512e+16,0.6219671009091183,7.633360072209778
144.0,1.4544634877040538e+17,1.954320816551755e+16,0.6220961791784576,7.758105511683462
145.0,1.759588963301967e+17,2.3681103447244364e+16,0.6222247229759047,7.8857092267642885
146.0,2.1199434136627667e+17,2.8604335189440136e+16,0.6223524942066734,8.016212347840483
147.0,2.543396159890941e+17,3.4439967111475056e+16,0.6224792282780304,8.149656479689206
148.0,3.038475912070785e+17,4.133074625302856e+16,0.6226046307161093,8.286083790248265
149.0,3.6143227487314874e+17,4.9436084787557256e+16,0.6227283733235495,8.425537124237373
150.0,4.28063047625599e+17,5.893286772426112e+16,0.6228500898771859,8.568060137912834
151.0,5.0475521966420525e+17,7.0016130174925544e+16,0.6229693712650118,8.713697465186453
152.0,5.925587679348036e+17,8.289948591683301e+16,0.6230857600677577,8.862494913302188
153.0,6.925440411632995e+17,9.78153263665321e+16,0.6231987444161332,9.014499697896108
154.0,8.057849248370113e+17,1.1501468945670056e+17,0.6233077511608214,9.169760718539342
155.0,9.333388672162479e+17,1.3476679769791302e+17,0.6234121382038614,9.328328883779962
156.0,1.0762258955389752e+18,1.573581647983605e+17,0.6235111859641875,9.490257487328247
157.0,1.2354046135341386e+18,1.8309129706520586e+17,0.623604087808372,9.655602648486582
158.0,1.4117468966987292e+18,2.1228291179322566e+17,0.6236899394586225,9.824423819527741
159.0,1.606012720855476e+18,2.452616388785176e+17,0.6237677271722701,9.996784370174607
160.0,1.8188236373717878e+18,2.823652401775529e+17,0.6238363147906669,10.17275225495771
161.0,2.0506354647644058e+18,3.239373497884424e+17,0.623894429236264,10.352400784672412
162.0,2.3017174315290255e+18,3.703235390097781e+17,0.6239406444949478,10.535809499039315
163.0,2.5721288554692736e+18,4.218670640997851e+17,0.6239733647330301,10.723065134421919
164.0,2.8616977095808814e+18,4.7890408434936634e+17,0.6239908044085717,10.914262779012818
165.0,3.1700109623379727e+18,5.417583693245363e+17,0.6239909688426979,11.10950706090468
166.0,3.4963987181474657e+18,6.107356499044004e+17,0.6239716300057506,11.30891364133199
167.0,3.8399304822780984e+18,6.861178254994077e+17,0.6239303042304369,11.512610689699569
168.0,4.1994165897158354e+18,7.681566257679771e+17,0.6238642256845276,11.720740645384186
169.0,4.573409504915213e+18,8.570673650422973e+17,0.6237703188475087,11.933462145016064
170.0,4.960222655051897e+18,9.530223062823322e+17,0.623645170373273,12.150952067844498
171.0,5.357943942641233e+18,1.0561443348934399e+18,0.62348499920512,12.373407818156965
172.0,5.764459790316127e+18,1.1665006511435704e+18,0.6232856264167294,12.601049752526901
173.0,6.177483680345894e+18,1.2840967087998118e+18,0.6230424449101148,12.834123772425878
174.0,6.594589208318492e+18,1.408870540423144e+18,0.6227503897891605,13.072904054598423
175.0,7.013246955498867e+18,1.5406875879932485e+18,0.6224039103494502,13.317695885588824
176.0,7.430864301955002e+18,1.6793361541502605e+18,0.6219969448533866,13.568838553155054
177.0,7.844827158951114e+18,1.8245236821363016e+18,0.6215228995150599,13.826708230864353
178.0,8.252542657959557e+18,1.9758739402978688e+18,0.6209746333936472,14.091720773098722
179.0,8.65148165102353e+18,2.1329253334093816e+18,0.6203444511767312,14.364334316198178
180.0,9.039221486935377e+18,2.2951304908764244e+18,0.6196241067924325,14.64505148404871
181.0,9.413480478355014e+18,2.4618571835838054e+18,0.6188048167438128,14.934421424351195
182.0,9.77215826610155e+18,2.632391016653625e+18,0.6178772934045562,15.233040732498148
183.0,1.0113365915902018e+19,2.805939680650437e+18,0.616831793234452,15.541553834494689
184.0,1.0435452467197032e+19,2.981639164843512e+18,0.6156581866860087,15.860652223383696
185.0,1.0737025890303711e+19,3.15856194902313e+18,0.6143460513714389,16.191072406374747
186.0,1.1016968037499324e+19,3.335727089867671e+18,0.6128847904820062,16.533592337599245
187.0,1.1274443052197523e+19,3.512112385831285e+18,0.611263777639761,16.88902613156293
188.0,1.1508899176516538e+19,3.68666844562492e+18,0.6094725282593245,17.25821688989218
189.0,1.1720064084466354e+19,3.8583344129788626e+18,0.6075008960713568,17.642027534036085
190.0,1.1907933961272283e+19,4.0260551081868037e+18,0.6053392917400934,18.041329620786946
191.0,1.2072756733788312e+19,4.188799242207463e+18,0.6029789185708989,18.456990225117156
192.0,1.2215010246868423e+19,4.3455778900155213e+18,0.6004120159410689,18.889857155015726
193.0,1.2335376600317889e+19,4.495463304358117e+18,0.5976321129397271,19.34074261888195
194.0,1.2434712405012365e+19,4.637606133483376e+18,0.5946342551908086,19.81040638972593
195.0,1.2514018483602297e+19,4.771252403959943e+18,0.59141523888759,20.299537813839166
196.0,1.2574406491528751e+19,4.895756222583916e+18,0.5879737701315366,20.80873988898963
197.0,1.2617068327398746e+19,5.010591929887374e+18,0.5843106238584834,21.338512608263198
198.0,1.264324498125274e+19,5.115358622121078e+18,0.5804286791797088,21.889242542990566
199.0,1.2654199445157999e+19,5.20979156434092e+18,0.576333067784152,22.46118429759671
200.0,1.2651190331948933e+19,5.293754781329963e+18,0.5720309949943163,23.054460249068473
201.0,1.263545328757109e+19,5.36723645912099e+18,0.5675316359636727,23.66905851245577
202.0,1.2608180424455373e+19,5.430349879916663e+18,0.5628460917207887,24.304823565674564
203.0,1.2570508086603815e+19,5.483317585583524e+18,0.5579870663069622,24.961466372447177
204.0,1.2523510283027388e+19,5.526456415389038e+18,0.552968584453349,25.638575699864745
205.0,1.2468189177434307e+19,5.560168327122875e+18,0.5478057733423815,26.33562218266332
206.0,1.2405470107693167e+19,5.584924763388474e+18,0.5425145232677498,27.051971115735785
207.0,1.233620955242893e+19,5.601245936236296e+18,0.5371111429995998,27.786906752605823
208.0,1.2261186746872386e+19,5.609692390424186e+18,0.5316121029279404,28.539638094702227
209.0,1.20664706468711e+19,5.041377653543588e+18,0.5260337457856163,29.30932218395869
210.0,1.1864911688625375e+19,4.478035250305536e+18,0.5203920343410858,30.09507689049428
211.0,1.166953188441155e+19,3.9788124426765937e+18,0.5147023414199196,30.895997645645917
212.0,1.1480047875910705e+19,3.5362489491351936e+18,0.5089792774656818,31.71117123046161
213.0,1.129619106295496e+19,3.14377458757592e+18,0.5032365564098343,32.539688231283
214.0,1.1117706718791821e+19,2.7956004938112973e+18,0.4974868994945493,33.380653744422304
215.0,1.0944353164720413e+19,2.486623406266901e+18,0.4917419739681184,34.23319626714835
216.0,1.0775900993790298e+19,2.2123417037784822e+18,0.4860123634585589,35.096474785574685
217.0,1.0612132350233047e+19,1.9687829210260751e+18,0.4803075648108656,35.96968417976639
218.0,1.0452840255956031e+19,1.7524399019954145e+18,0.47463600690417784,36.85205909213402
219.0,1.0297827980855312e+19,1.5602148772489114e+18,0.46900508692635245,37.74287643815838
220.0,1.01469084552167e+19,1.389370645506355e+18,0.4634212197535452,38.641456756208086
221.0,9.99990371904345e+18,1.2374873630368579e+18,0.4578898967348131,39.54716458100803
222.0,9.8566444031834e+18,1.1024246676438657e+18,0.4524157509171802,40.45940800578099
223.0,9.716969246264465e+18,9.822887677872641e+17,0.4470026253012373,41.37763763275909
224.0,9.580724641881817e+18,8.75403365509e+17,0.44165364209461494,42.301345051352556
225.0,9.4477642140926e+18,7.802840994322953e+17,0.43637127121945873,43.23006097371074
226.0,9.31794842044248e+18,6.956161726729573e+17,0.4311573966729343,44.16335314271309
227.0,9.191144178355659e+18,6.202344212982998e+17,0.42601337988225035,45.1008240941985
228.0,9.067224512668248e+18,5.5310586813535885e+17,0.4209401195018609,46.04210884007748
229.0,8.946068226539293e+18,4.9331446660422195e+17,0.41593810693561817,46.986872551294375
230.0,8.82755959218842e+18,4.4004758896869306e+17,0.41100747752582867,47.93480827541804
231.0,8.711588060272569e+18,3.925841144787947e+17,0.40614805737839427,48.88563472143509
232.0,8.598047987618158e+18,3.502839746062805e+17,0.401359405871228,49.83909413844397
233.0,8.486838379942468e+18,3.12578786369652e+17,0.396640854062421,50.79495029609838
234.0,8.377862648971894e+18,2.789636656825572e+17,0.39199153922990626,51.75298657574794
235.0,8.271028385081574e+18,2.489900262952288e+17,0.38741043567622613,52.71300418747117
236.0,8.166247143179176e+18,2.222591891583357e+17,0.38289638213515204,53.67482050775685
237.0,8.063434241105266e+18,1.9841673413743872e+17,0.37844810606601,54.638267535664184
238.0,7.962508570503079e+18,1.771475299708532e+17,0.3740642451100212,55.603190465239756
239.0,7.863392417447016e+18,1.5817126082571043e+17,0.36974336599270635,56.56944636321769
240.0,7.766011293114868e+18,1.4123852178997216e+17,0.36548398113474245,57.53690294717411
