Time,J,A,S,tau
0,100,100,0.999575309,5.555555556
1,91.41058725,216.8722351,0.996806416,4.830531584
2,161.2304915,331.559151,0.993626674,4.072214633
3,305.1110167,443.8398325,0.989981698,3.280208784
4,523.1747057,542.7262047,0.988248867,3.103003768
5,743.9416102,716.4335807,0.986774686,3.043341756
6,1012.393711,965.1621796,0.985128039,2.985274036
7,1378.980095,1273.304305,0.983291094,2.92875922
8,1852.075047,1660.923301,0.981244582,2.873757737
9,2431.953497,2177.225479,0.978967744,2.820231641
10,3153.295629,2855.314283,0.976438301,2.768144451
11,4061.66194,3725.226558,0.973632432,2.717461005
12,5189.79656,4843.244306,0.970524769,2.66814735
13,6577.426595,6280.876467,0.967088416,2.620170633
14,8279.955698,8115.932758,0.963294992,2.57349902
15,10357.17106,10443.77458,0.959114707,2.528101621
16,12871.84145,13382.59019,0.954516464,2.483948425
17,15894.51301,17070.57643,0.949468006,2.441010253
18,19501.20526,21667.91251,0.943936097,2.399258708
19,23769.61732,27359.85928,0.937886761,2.358666136
20,28777.59041,34356.1417,0.931285556,2.319205598
21,34599.94469,42889.39833,0.924097909,2.280850837
22,41303.7486,53212.77384,0.916289507,2.243576255
23,48943.33263,65594.93751,0.907826733,2.207356893
24,57554.74204,80312.57357,0.898677168,2.172168411
25,67149.59292,97640.32394,0.888810142,2.137987077
26,77775.12103,117766.0776,0.878077997,2.107270406
27,89694.53806,140498.1595,0.865815857,2.091311565
28,102788.7676,165820.7168,0.851832222,2.089155594
29,116552.398,194034.6716,0.836619841,2.089155594
30,130810.4808,225027.069,0.820264244,2.089155594
31,145339.4116,258546.3427,0.80274563,2.089155594
32,159805.988,294282.9754,0.784054852,2.089155594
33,173862.6538,331781.6827,0.76419489,2.089155594
34,187138.3427,370460.1128,0.743182227,2.089155594
35,199250.3764,409623.5768,0.721048069,2.089155594
36,209827.3377,448478.8282,0.697839318,2.089155594
37,218527.9994,486160.885,0.673619257,2.089155594
38,225060.6832,521766.87,0.648467852,2.089155594
39,229201.241,554395.0876,0.622481628,2.089155594
40,230807.2817,583187.6105,0.595773074,2.089155594
41,229828.0119,607373.0845,0.568469535,2.089155594
42,226306.4784,626306.4826,0.540711564,2.089155594
43,220381.2326,639502.1824,0.512650807,2.089155594
44,212272.7111,646658.9744,0.484447387,2.089155594
45,202269.557,647673.4378,0.456266903,2.089155594
46,190714.5607,642641.1004,0.428277143,2.089155594
47,177980.4211,631846.0847,0.400644577,2.089155594
48,164449.5357,615739.9976,0.373530822,2.089155594
49,150495.7493,594911.8715,0.347089199,2.089155594
50,136466.2284,570052.6952,0.321461512,2.089155594
51,122668.068,541917.1138,0.296775209,2.089155594
52,109359.2033,511285.4434,0.273141018,2.089155594
53,96743.70335,478928.6651,0.250651166,2.089155594
54,84971.11118,445578.4395,0.229378239,2.089155594
55,80263.29014,404610.5525,0.156097282,2.512544419
56,75745.83896,357533.8351,0.068894332,3.512505461
57,65926.94734,315433.6738,0.02903215,4.512466502
58,55160.16642,277860.7848,0.011672253,5.512427544
59,45270.01007,244395.4088,0.004474615,6.512388585
60,36837.28863,214646.9151,0.001634968,7.512349627
61,29893.28353,188253.1595,0.000569273,8.512310668
62,24265.03189,164879.6439,0.00018888,9.51227171
63,19731.18848,144218.5092,5.97E-05,10.51223275
64,16083.52634,125987.3965,1.80E-05,11.51219379
65,13145.65845,109928.209,0,12.51215483
66,10774.49476,95805.80069,0,13.51211588
67,8855.965409,83406.61787,0,14.51207692
68,7299.625524,72537.31478,0,15.51203796
69,6033.767748,63023.36277,0,16.511999
70,5001.416476,54707.67262,0,17.51196004
71,4157.872015,47449.32337,0,18.51192108
72,3466.699072,41122.1554,0,19.51188212
73,2898.981449,35613.55615,0,20.51184317
74,2431.548431,30823.25424,0,21.51180421
75,2045.665,26662.17959,0,22.51176525
76,1726.331459,23051.42329,0,23.51172629
77,1461.447578,19921.22826,0,24.51168733
78,1241.183389,17210.05663,0,25.51164837
79,1057.541558,14863.73741,0,26.51160942
80,904.0634113,12834.69082,0,27.51157046
81,775.4792633,11081.19809,0,28.5115315
82,667.4699324,9566.743136,0,29.51149254
83,576.5120999,8259.426884,0,30.51145358
84,499.7222783,7131.428304,0,31.51141462
85,434.7278655,6158.517712,0,32.51137566
86,379.5749043,5319.623633,0,33.51133671
87,332.6548145,4596.451312,0,34.51129775
88,292.6367483,3973.134256,0,35.51125879
89,258.4191531,3435.927356,0,36.51121983
90,229.0893354,2972.938044,0,37.51118087
91,203.88392,2573.889531,0,38.51114191
92,182.1741191,2229.903407,0,39.51110296
93,163.4291303,1933.321595,0,40.511064
94,147.2079958,1677.54097,0,41.51102504
95,133.1385251,1456.873411,0,42.51098608
96,120.9096971,1266.421045,0,43.51094712
97,110.2600118,1101.968678,0,44.51090816
98,100.9670988,959.8909482,0,45.5108692
99,92.84519545,837.070046,0,46.51083025
100,85.73556278,730.8260313,0,47.51079129
101,79.50385966,638.8557002,0,48.51075233
102,74.03665987,559.1796567,0,49.51071337
103,69.23617858,490.0973044,0,50.51067441
104,65.02043625,430.1471698,0,51.51063545
105,61.31762223,378.0736288,0,52.51059649
106,58.06814456,332.7973331,0,53.51055754
107,55.22001702,293.3905608,0,54.51051858
108,52.72863135,259.0556072,0,55.51047962
109,50.5558707,229.1063944,0,56.41354062
110,48.66957118,202.9524979,0,56.41354598
111,47.04194204,180.0856158,0,2.099481459
112,45.64795332,160.068201,0,2.089307685
113,44.4681394,142.5229164,0,2.089307685
114,43.48407109,127.1246262,0,2.089307685
115,42.68060128,113.5927497,0,2.089307685
116,42.04489213,101.6850181,0,2.089307685
117,41.56596435,91.19210499,0,2.089307685
118,41.23446566,81.93300613,0,2.089307685
119,41.04247336,73.75107689,0,2.089307685
120,40.98333651,66.51063617,0,2.089307685
121,41.0513149,60.09407079,0,2.089307685
122,41.2416149,54.39932492,0,2.089307685
123,41.55025423,49.33775572,0,2.089307685
124,41.97391656,44.83229173,0,2.089307685
125,42.5098367,40.81585383,0,2.089307685
126,43.15561205,37.23000582,0,2.089307685
127,43.90908061,34.02379789,0,2.089307685
128,44.76847328,31.15273359,0,2.089307685
129,45.73215119,28.57791755,0,2.089307685
130,46.79850769,26.26532259,0,2.089307685
131,47.96598783,24.18514115,0,2.089307685
132,49.23297122,22.31122382,0,2.089307685
133,50.59773937,20.62061867,0,2.089307685
134,52.05848534,19.09313495,0,2.089307685
135,53.6131242,17.71101593,0,2.089307685
136,55.25942844,16.45860148,0,2.089307685
137,56.99486559,15.3220855,0,2.089307685
138,58.81667138,14.28926465,0,2.089297434
139,60.72181363,13.34934791,0,2.096078618
140,62.707033,12.49277546,0,2.117994067
141,64.76872759,11.7110756,0,2.150212349
142,66.90311913,10.99672355,0,2.183565542
143,69.10609843,10.34303733,0,2.217832488
144,71.37339605,9.744065213,0,2.253031253
145,73.7005611,9.19450562,0,2.289180222
146,76.08297692,8.689628829,0,2.326298097
147,78.51589987,8.225210068,0,2.364403907
148,80.99450655,7.797470118,0,2.403517005
149,83.51392744,7.403025148,0,2.443657086
150,86.06926904,7.038841795,0,2.484844188
151,88.65565317,6.702197368,0,2.527098714
152,91.26824558,6.39064484,0,2.570441442
153,93.90229376,6.101982261,0,2.614893547
154,96.55315364,5.834225586,0,2.660476625
155,99.21629974,5.585586141,0,2.707212729
156,101.8873582,5.354448384,0,2.755124397
157,104.5621203,5.139351792,0,2.804234702
158,107.2365597,4.938974134,0,2.854567295
159,109.9068299,4.752117956,0,2.906146482
160,112.5692857,4.577696606,0,2.958997279
161,115.2204827,4.41472319,0,3.013145506
162,117.857181,4.262300192,0,3.068617872
163,120.4763406,4.119611192,0,3.125442113
164,123.0751232,3.985911912,0,3.183647098
165,125.6508882,3.860523374,0,3.243262988
166,128.2011895,3.742825554,0,3.304321409
167,130.723761,3.632251598,0,3.36685565
168,133.2165177,3.528283077,0,3.430900909
169,135.6775511,3.430444844,0,3.496494515
170,138.1051168,3.338301406,0,3.563676264
171,140.4976254,3.251452529,0,3.63248868
172,142.8536339,3.169530588,0,3.702977428
173,145.1718448,3.092197776,0,3.775191778
174,147.4510977,3.019143177,0,3.849185083
175,149.6903564,2.950079569,0,3.925015087
176,151.8887019,2.88474242,0,4.002744755
177,154.0453375,2.822887789,0,4.082442949
178,156.1595754,2.764289861,0,4.164184931
179,158.230822,2.708739489,0,4.248053046
180,160.2585924,2.65604395,0,4.334138371
181,162.2424931,2.606023848,0,4.42254057
182,164.1822148,2.558512764,0,4.513369232
183,166.0775429,2.513357207,0,4.606746363
184,167.9283368,2.470413301,0,4.702804782
185,169.7345361,2.429548207,0,4.801692314
186,171.4961597,2.390638068,0,4.903571605
187,173.2132888,2.353566992,0,5.008620316
188,174.886085,2.318228183,0,5.117037394
189,176.5147624,2.284520592,0,5.229036927
190,178.0996082,2.252351213,0,5.344858598
191,179.6409617,2.221632155,0,5.464760667
192,181.139222,2.192281915,0,5.589028523
193,182.5948418,2.164223979,0,5.717971718
194,184.0083205,2.137386651,0,5.851926387
195,185.3802112,2.111703143,0,5.991259242
196,186.7111035,2.087110265,0,6.136361874
197,188.0016368,2.063549463,0,6.287661653
198,189.2524805,2.040965046,0,6.445609473
199,190.4643464,2.019305383,0,6.610693423
200,191.6379728,1.998521425,0,6.783425131
201,192.7741308,1.978567403,0,6.964349831
202,193.8736153,1.959400095,0,7.154036463
203,194.9372448,1.940978796,0,7.353080171
204,195.9658584,1.923265334,0,7.562097448
205,196.9603104,1.906223447,0,7.781721383
206,197.9214715,1.889819303,0,8.012599568
207,198.8502212,1.874020596,0,8.255385191
208,199.7474498,1.858797194,0,8.510734526
209,200.6140518,1.844120339,0,8.779296426
210,201.4509261,1.829963064,0,9.061709067
211,202.2589721,1.816299765,0,9.358586711
212,203.0390884,1.803106232,0,9.670519933
213,203.7921692,1.790359634,0,9.998055632
214,204.5191047,1.778038201,0,10.34170578
215,205.220776,1.766121508,0,10.70191941
216,205.8980572,1.75458997,0,11.07909968
217,206.551809,1.743425268,0,11.47357158
218,207.1828838,1.732609741,0,11.8856078
219,207.7921152,1.722126958,0,12.31538606
220,208.3803302,1.711960901,0,12.76304243
221,208.9483298,1.702096816,0,13.22859128
222,209.4969056,1.692520409,0,13.71201201
223,210.0268365,1.683217884,0,14.21320703
224,210.5388663,1.674176724,0,14.73196013
225,211.0337336,1.665384591,0,15.26804444
226,211.5121628,1.656829579,0,15.82116402
227,211.9748442,1.648500772,0,16.3909274
228,212.4224613,1.640387436,0,16.97693093
229,212.8556709,1.632479498,0,17.57869987
230,213.275111,1.624767342,0,18.19573594
231,213.6814061,1.617241647,0,18.82750625
232,214.0751503,1.609893737,0,19.47344637
233,214.4569307,1.602715084,0,20.13298333
234,214.8273059,1.595697706,0,20.80551789
235,215.1868197,1.588833902,0,21.49045329
236,215.5360003,1.582116246,0,22.18717957
237,215.8753498,1.575537761,0,22.89509449
238,216.205362,1.569091617,0,23.6135973
239,216.4888463,1.388946127,0,24.34209073
240,216.4887835,0.510959526,0,25.07998929
241,216.4887242,0.187969396,0,25.82671893
242,216.4886684,0.069149299,0,26.58171858
243,216.4886157,0.025438315,0,27.34444134
244,216.4885659,0.009358127,0,28.11435516
245,216.4885186,0.003442624,0,28.89094327
246,216.4884737,0.001266456,0,29.67370427
247,216.4884309,0.000465898,0,30.4621519
248,216.4883899,0.000171392,0,31.25581463
249,216.4883507,6.31E-05,0,32.05423502
250,216.4883131,2.32E-05,0,32.85696892
251,216.4882768,0,0,33.66358443
252,216.4882418,0,0,34.47366084
253,216.488208,0,0,35.28678733
254,216.4881751,0,0,36.10256171
255,216.4881431,0,0,36.92058886
256,216.4881119,0,0,37.74047927
257,216.4880813,0,0,38.56184735
258,216.4880514,0,0,39.38430972
259,216.4880219,0,0,40.20748336
260,216.4879929,0,0,41.03098373
261,216.4879641,0,0,41.85442264
262,216.4879357,0,0,42.6774058
263,216.4879073,0,0,43.49953228
264,216.4878791,0,0,44.32038655
265,216.4878509,0,0,45.13954807
266,216.4878226,0,0,45.95656851
267,216.4877942,0,0,46.77098237
268,216.4877656,0,0,47.5823181
269,216.4877366,0,0,48.39005053
270,216.4877073,0,0,49.19363393
271,216.4876775,0,0,49.99250896
272,216.4876472,0,0,50.78603245
273,216.4876162,0,0,51.57353737
274,216.4875845,0,0,52.35432834
275,216.4875519,0,0,53.12758531
276,216.4875183,0,0,53.89246194
277,216.4874837,0,0,54.64805605
278,216.4874479,0,0,55.39328451
279,216.4874107,0,0,56.12703255
280,216.487372,0,0,56.84806302
281,216.4873317,0,0,57.5549463
282,216.4872895,0,0,58.24616332
283,216.4872453,0,0,58.91991609
284,216.4871988,0,0,59.5742984
285,216.4871498,0,0,60.20702795
286,216.4870981,0,0,60.8156335
287,216.4870433,0,0,61.39720707
288,216.4869851,0,0,61.94850699
289,216.4869233,0,0,62.46567815
290,216.4868573,0,0,62.94439754
291,216.4867867,0,0,63.37950309
292,216.4867111,0,0,63.76501222
293,216.4866299,0,0,64.09383672
294,216.4865424,0,0,64.3575091
295,216.4864481,0,0,64.5458691
296,216.486346,0,0,64.64662459
297,216.4862354,0,0,64.6447022
298,216.4861153,0,0,64.52142613
299,216.4859845,0,0,64.25350382
300,216.4858418,0,0,63.81148878
301,216.4856859,0,0,63.15793031
302,216.4855151,0,0,62.24484948
303,216.4853276,0,0,61.0110014
304,216.4851214,0,0,59.37950115
305,216.4848943,0,0,57.25830416
306,216.4846434,0,0,54.54974979
307,216.484366,0,0,51.18012064
308,216.4840587,0,0,47.16072801
309,216.4837174,0,0,42.66027587
310,216.483338,0,0,38.01127682
311,216.4829153,0,0,33.58685324
312,216.4824437,0,0,29.64248994
313,216.4819166,0,0,26.26646449
314,216.4813266,0,0,23.43233788
315,216.4806651,0,0,21.06549704
316,216.4799222,0,0,19.08382539
317,216.4790869,0,0,17.41419565
318,216.4781462,0,0,15.99655675
319,216.4770853,0,0,14.7831646
320,216.4758873,0,0,13.73645086
321,216.4745328,0,0,12.8268448
322,216.4729992,0,0,12.03094566
323,216.4712608,0,0,11.33008683
324,216.4692879,0,0,10.70924875
325,216.4670463,0,0,10.15623191
326,216.4644968,0,0,9.661051096
327,216.4615938,0,0,9.215456504
328,216.4582852,0,0,8.812589805
329,216.4545106,0,0,8.446702926
330,216.4502004,0,0,8.112954547
331,216.4452744,0,0,7.807242057
332,216.4396398,0,0,7.526070464
333,216.4331899,0,0,7.266451841
334,216.4258012,0,0,7.025821063
335,216.4173311,0,0,6.801969052
336,216.4076151,0,0,6.592987412
337,216.3964633,0,0,6.397223504
338,216.3836565,0,0,6.213243075
339,216.3689415,0,0,6.039799066
340,216.3520263,0,0,5.875805024
341,216.3325738,0,0,5.720314159
342,216.310195,0,0,5.572499023
343,216.284441,0,0,5.431636903
344,216.2547947,0,0,5.297094181
345,216.220661,0,0,5.16831526
346,216.1813524,0,0,5.044814491
347,216.136077,0,0,4.92616478
348,216.0839259,0,0,4.811989486
349,216.023854,0,0,4.701958053
350,215.9546524,0,0,4.595779777
351,215.8749468,0,0,4.4931956
352,215.7831455,0,0,4.393979082
353,215.6774252,0,0,4.297927959
354,215.5557238,0,0,4.204861802
355,215.4156177,0,0,4.114622597
356,215.2544365,0,0,4.027065394
357,215.0689945,0,0,3.942064492
358,214.8558262,0,0,3.859502796
359,214.6107962,0,0,3.779278117
360,214.3294346,0,0,3.701294568
361,214.0063756,0,0,3.625468019
362,213.6358511,0,0,3.551719314
363,213.2110815,0,0,3.479976689
364,212.7245745,0,0,3.410174164
365,212.1678885,0,0,3.342249506
366,211.5313739,0,0,3.276146463
367,210.8045421,0,0,3.211810723
368,209.9754267,0,0,3.14919238
369,209.0308725,0,0,3.088243709
370,207.956286,0,0,3.028919968
371,206.7355207,0,0,2.971178368
372,205.3510175,0,0,2.914978225
373,203.7835001,0,0,2.860280553
374,202.0122254,0,0,2.807047855
375,200.0148504,0,0,2.755244185
376,197.767547,0,0,2.704834846
377,195.2453142,0,0,2.655786225
378,192.4220295,0,0,2.608065898
379,189.2709497,0,0,2.561642382
380,185.7651877,0,0,2.516485055
381,181.87819,0,0,2.47256426
382,177.5847882,0,0,2.429851092
383,172.8618583,0,0,2.388317373
384,167.6895366,0,0,2.347935748
385,162.0528372,0,0,2.308679496
386,155.9424182,0,0,2.270522548
387,149.356805,0,0,2.233439585
388,142.3036433,0,0,2.197405801
389,134.8015741,0,0,2.162397031
390,126.8815058,0,0,2.128382848
391,118.587925,0,0,2.101057364
392,109.9797943,0,0,2.089669363
393,101.1306434,0,0,2.08921567
394,92.1281517,0,0,2.08921567
395,83.07263447,0,0,2.08921567
396,74.07463599,0,0,2.08921567
397,65.25139278,0,0,2.08921567
398,56.72235889,0,0,2.08921567
399,48.60384309,0,0,2.08921567
400,41.00330852,0,0,2.08921567
401,34.01358357,0,0,2.08921567
402,27.70750478,0,0,2.08921567
403,22.13371015,0,0,2.08921567
404,17.31382657,0,0,2.08921567
405,13.24125941,0,0,2.08921567
406,9.887597415,0,0,2.08921567
407,7.196987149,0,0,2.08921567
408,5.098048225,0,0,2.08921567
409,3.508630348,0,0,2.08921567
410,2.342229344,0,0,2.08921567
411,1.514097537,0,0,2.08921567
412,0.946203389,0,0,2.08921567
413,0.570688848,0,0,2.08921567
414,0.33165618,0,0,2.08921567
415,0.185419417,0,0,2.08921567
416,0.099569542,0,0,2.08921567
417,0.051281194,0,0,2.08921567
418,0.025295128,0,0,2.08921567
419,0.011934301,0,0,2.089515627
420,0.005379186,0,0,3.042723766
421,0.002313794,0,0,4.042684808
422,0.000948893,0,0,5.042645849
423,0.00037073,0,0,6.042606891
424,0.000137907,0,0,7.042567932
425,4.88E-05,0,0,8.042528974
426,1.64E-05,0,0,9.042490015