Time,J,A,S,tau
0.0,100.0,100.0,0.7047905930855021,10.1010101010101
1.0,138.98574078253753,241.32133985115732,0.7154887359962213,10.387905214792502
2.0,324.7007254564216,382.0623702994125,0.726368526500521,10.676399543615002
3.0,652.9463217496477,522.2990009416168,0.7374315036960124,10.966392899138853
4.0,1119.8953591243665,662.1075819704782,0.7486796271746503,11.25779688668256
5.0,1722.0769998677981,801.5617936460018,0.7601148950288837,11.550523148525409
6.0,2456.3601476892804,940.7327850572841,0.7717393420675207,11.84448336316834
7.0,3319.9386069864495,1079.689299717555,0.7835550378814417,12.139589244326
8.0,4310.316278293081,1218.4978019406626,0.7955640847709341,12.435752539467114
9.0,5425.295537892973,1357.2225770334592,0.8077686153703834,12.732885028345544
10.0,6662.964855959641,1495.9258416150992,0.8201707905228185,13.03089852098775
11.0,8021.687546633359,1634.6678393776522,0.8327727962577758,13.329704855559589
12.0,9500.092586638208,1773.5069247391557,0.8455768410921498,13.629215896072784
13.0,11097.065714723187,1912.4996403730556,0.8585851525478115,13.929343529850932
14.0,12811.733706119885,2051.7008261178057,0.8717999711442765,14.229999664414915
15.0,14657.830021657372,2164.8957460379515,0.8764917065726439,14.342441757524055
16.0,16537.588500682894,2369.412097943398,0.8769198413209526,14.361405257260165
17.0,18537.090883031535,2695.184725367367,0.8773078597250753,14.378665318224249
18.0,20776.152257452675,3138.789892123636,0.8776558702675511,14.394205564934973
19.0,23370.222098398786,3697.0731543639567,0.8779639595683073,14.408010677994152
20.0,26431.018488636713,4367.13836221721,0.8782321922229671,14.420066423386283
21.0,30067.127466028716,5146.337299696627,0.8784606106620478,14.430359680165122
22.0,34384.564929905915,6032.260311016028,0.878649234995265,14.438878468125191
23.0,39487.3182906262,7022.727196800173,0.8787980629014556,14.44561197277229
24.0,45477.85348432177,8115.779177954037,0.8789070694867576,14.450550570818498
25.0,52457.60311931886,9309.671168964293,0.8789762071782302,14.4536858531028
26.0,60527.436039543274,10602.864643677267,0.8790054056219818,14.455010646522837
27.0,69788.10207326587,11994.021066593417,0.8789945715885736,14.454519034142347
28.0,80340.66376662733,13481.99586891946,0.878943588878102,14.452206374476523
29.0,92289.03360037872,15063.482885740581,0.878852318237946,14.448069319138247
30.0,105737.72608446564,16724.381185087623,0.8787205973118865,14.442105827717642
31.0,120728.61330667124,18543.6281137736,0.8785482406135892,14.4343151800189
32.0,137381.75729000597,20627.826142195,0.8783350394270619,14.42469799096364
33.0,155932.6122025589,23079.639585376735,0.8780807618074641,14.413256218468309
34.0,176730.00113735665,25998.38758467085,0.87778515255514,14.399993171865518
35.0,200235.11885734525,29480.526937592378,0.8774479332113662,14.384913518211413
36.0,227021.2457014342,33620.11404459309,0.8770688020693436,14.368023285677502
37.0,257774.439891394,38509.243679812884,0.8766474342131375,14.349329865153456
38.0,293295.01131620473,44238.46892883269,0.8761834815450791,14.328842010560047
39.0,334499.6743155073,50897.205416586,0.8756765728619302,14.306569835443339
40.0,382424.5618053668,58574.11818958376,0.875126313943719,14.282524808022712
41.0,438229.0356002403,67357.49488392167,0.8745322876477849,14.256719744759202
42.0,503200.0814840324,77335.60756991731,0.8738940540417843,14.229168800504013
43.0,578757.5647330598,88597.05998532801,0.8732111505715937,14.199887456422351
44.0,666465.3750475843,101223.09224014686,0.8724830922263629,14.168892506637755
45.0,768010.4980654665,115308.53784318813,0.8717093717592801,14.136202041747508
46.0,885193.0704730975,131045.32442466788,0.8708894599297999,14.101835430265552
47.0,1020047.54595482,148736.23696275626,0.87002280577496,14.06581329793137
48.0,1174988.1505042363,168793.40414825757,0.8691088369251821,14.028157504595447
49.0,1352959.7944142788,191737.59676741404,0.8681469599519206,13.98889111922482
50.0,1557595.8565272538,218198.27873658488,0.8671365607562699,13.948038392593974
51.0,1793384.5739051793,248914.39675927436,0.8660770050004778,13.905624727941028
52.0,2065845.6207752747,284735.8847331731,0.8649676385845468,13.861676649607313
53.0,2381718.515006756,326625.8619271522,0.863807788170525,13.816221769727285
54.0,2749164.5120609384,375663.5084501833,0.862596761757145,13.769288753042876
55.0,3177983.677952554,433047.6021283359,0.8613338493075271,13.720907279923223
56.0,3679848.8604046083,500100.7033944372,0.860018323432697,13.671108007677345
57.0,4268558.396784331,578273.8850665105,0.8586494401337122,13.619922530253504
58.0,4960312.903073899,669145.1040017809,0.8572264396052038,13.567383336424891
59.0,5773988.018325517,774437.8633148989,0.8557485471031632,13.513523766566713
60.0,6731418.349725925,896137.6442761164,0.8542149738797872,13.458377968134739
61.0,7857865.580580425,1036645.9160433711,0.8526249181881913,13.401980849959868
62.0,9182741.553682394,1198940.4129229786,0.8509775663597595,13.344368035477322
63.0,10740614.514727643,1386742.4697242212,0.8492720939568569,13.28557581501245
64.0,12572530.161816584,1604692.9604438962,0.84750766700356,13.225641097248122
65.0,14727683.814355899,1858538.4584272269,0.8456834432961436,13.164601360020239
66.0,17265480.304314107,2155328.879736973,0.8437985737950574,13.102494600454163
67.0,20258046.87002987,2503628.281828494,0.8418522041159648,13.039359284885721
68.0,23793207.831982188,2913740.071924262,0.839843476085827,12.975234298147784
69.0,27978033.988778915,3397949.5368302823,0.8377715294037299,12.910158893121226
70.0,32942970.54185608,3970782.888719361,0.8356355033857804,12.844172639842496
71.0,38846643.86059492,4649279.428820357,0.8334345388090123,12.77731537483134
72.0,45881417.93282936,5453286.49434558,0.831167779849968,12.709627150786385
73.0,54279693.69509425,6405906.221637146,0.8288343761112674,12.641148186451634
74.0,64321278.807148635,7534213.028106528,0.8264334847477267,12.571918816934676
75.0,76342442.61444795,8870285.61757613,0.8239642726919705,12.501979444732752
76.0,90747326.1071652,10452589.906835591,0.8214259189774844,12.431370491360742
77.0,108022435.32346025,12327740.135669818,0.8188176171475917,12.360132349765573
78.0,128755268.48191698,14552681.955151174,0.8161385777651493,12.288305337755078
79.0,153658224.15217763,17197351.602108106,0.8133880310262579,12.215929652342822
80.0,183598830.14856455,20347853.421104033,0.8105652294518467,12.143045325160827
81.0,219637871.71996734,24110195.91879634,0.8076694506662695,12.069692179237673
82.0,263077220.95466322,28614663.448424667,0.8047000002768894,11.995909786934195
83.0,315518890.40314734,34020889.06521964,0.8016562148348891,11.921737429079652
84.0,378937699.94055957,40523603.350358784,0.7985374648529227,11.84721405601999
85.0,455769444.57400537,48359383.61475708,0.7953431579322995,11.772378249486595
86.0,549017669.2652481,57814787.75112494,0.7920727419258174,11.697268186582384
87.0,662382532.2985945,69236721.2886771,0.7887257081736603,11.621921605100805
88.0,800419157.5496736,83045897.51186179,0.7853015948177671,11.546375770357896
89.0,968732151.340969,99754304.32137221,0.7817999901168451,11.470667444123558
90.0,1174218507.5367308,119987988.26098266,0.778220535841373,11.394832854812236
91.0,1425374928.6626048,144516349.732358,0.7745629306921199,11.318907669561009
92.0,1732684929.5736754,174289358.46756813,0.770826933702683,11.242926968325678
93.0,2109112416.963346,210484614.1830055,0.7670123677104942,11.166925219180353
94.0,2570730073.898079,254565671.27141178,0.7631191227806695,11.090936255857534
95.0,3137512126.7868223,308353749.65094936,0.7591471596129375,11.014993257004082
96.0,3834340423.0395575,374115316.08420396,0.7550965129767419,10.939128726729267
97.0,4692265096.359903,454667714.9779683,0.7509672950302966,10.863374477576658
98.0,5750073964.117167,553508495.1486467,0.7467596986285643,10.787761614802774
99.0,7056258402.244898,674975445.6439648,0.742474000582199,10.712320522215832
100.0,8671448185.308577,824446376.8857511,0.7381105647569608,10.637080850306955
101.0,10671450256.741203,1008593845.1835115,0.7336698451526866,10.562071505363095
102.0,13151075967.722452,1235710426.2268193,0.7291523888319579,10.487320640462823
103.0,16228932933.783457,1516125652.084078,0.724558838675842,10.412855648359356
104.0,20053507735.213448,1862744023.3889518,0.7198899360841231,10.338703155170576
105.0,24810922125.32254,2291729355.672951,0.715146523402385,10.26488901632021
106.0,30734782626.9522,2823377495.355359,0.7103295462334608,10.191438313438802
107.0,38118741008.5096,3483216466.6584744,0.7054400555259167,10.11837535281305
108.0,47332493740.031906,4303384769.867321,0.7004792094422552,10.045723665171797
109.0,58842083069.48143,5324353123.592673,0.6954482749934947,9.973506006751435
110.0,73235588821.85162,6597076597.831017,0.6903486294219733,9.901744361594417
111.0,91255572410.67656,8185695902.195742,0.6851817613165997,9.830459945025236
112.0,113840014105.07501,10170948839.288631,0.6799492714454405,9.759673208247342
113.0,142174001762.09857,12654506550.6167,0.6746528732913086,9.689403844003898
114.0,177755121127.92267,15764515451.056576,0.6692943932769514,9.619670793244964
115.0,222476403928.21466,19662702236.41312,0.6638757706674931,9.550492252743528
116.0,278731836011.72394,24553488769.778786,0.6583990571389924,9.481885683602998
117.0,349550856438.8078,30695662757.822273,0.6528664160033012,9.413867820599023
118.0,438769992173.5821,38417262870.64957,0.6472801210808837,9.346454682299102
119.0,551251824298.5895,48134485550.239624,0.6416425552148377,9.279661581904058
120.0,693163975470.6698,60375625467.145836,0.6359562084210386,9.213503138756378
121.0,872333912365.8246,75811352716.08115,0.6302236756712926,9.147993290461287
122.0,1098699393518.1095,95293037043.7336,0.6244476543080247,9.08314530556799
123.0,1384879707209.98,119901379777.86224,0.6186309410912338,9.018971796759292
124.0,1746899903545.354,151008330058.85107,0.6127764288805106,8.955484734499237
125.0,2205109547125.7607,190356156453.31708,0.6068871029569909,8.89269546109015
126.0,2785349591106.9165,240158628017.32535,0.6009660369923113,8.830614705091808
127.0,3520436284347.524,303230524911.99,0.5950163886738432,8.769252596057122
128.0,4452049954874.916,383153184128.76935,0.5890413949976834,8.708618679540402
129.0,5633139563578.854,484485592767.2276,0.5830443672430896,8.648721932335972
130.0,7130981932992.915,613032858780.9357,0.5770286856442087,8.589570777906637
131.0,9031069010549.818,776186978007.363,0.5709977937770638,8.531173101963292
132.0,11442039835342.943,983359005701.2838,0.5649551926818173,8.473536268158803
133.0,14501929482764.092,1246527359237.52,0.5589044347422675,8.416667133860981
134.0,18386079457814.08,1580934314052.1702,0.5528491173463925,8.360572065971333
135.0,23317147790547.98,2005972032616.4458,0.5467928763534488,8.305256956758063
136.0,29577777478458.566,2546310841360.2173,0.540739379394702,8.250727239673559
137.0,37526633682167.195,3233336034331.089,0.5346923190362558,8.196987905128285
138.0,47618707810811.766,4106975733572.2856,0.5286554058336468,8.14404351619487
139.0,60431015896754.69,5218022131107.205,0.5226323613088893,8.091898224217676
140.0,76695097765662.75,6631073363061.248,0.5166269108814492,8.040555784304985
141.0,97338066442100.42,8428255541317.796,0.5106427767851967,7.990019570682367
142.0,123534384623880.28,10713926983972.107,0.504683671003739,7.940292591887532
143.0,156771086004331.25,13620621934787.645,0.49875328825664117,7.891377505788351
144.0,198929849160055.97,17316561851171.873,0.4928552990689006,7.843276634407279
145.0,252390210039933.4,22015150336248.332,0.48699334295568275,7.795991978536851
146.0,320159303967801.75,27986974459343.06,0.4811710217536955,7.749525232132201
147.0,406034897902244.3,35574963366342.17,0.47539189312973656,7.703877796467974
148.0,514810149053696.94,45213509508059.35,0.46965946429586314,7.659050794048201
149.0,652530561611471.5,57452548463076.41,0.46397718595933496,7.615045082258922
150.0,826816093418831.4,72987832822600.53,0.4583484465339669,7.571861266754494
151.0,1047264416610646.4,92698942692589.47,0.4527765666378249,7.529499714569631
152.0,1325955136400347.5,117696968433758.27,0.4472647939003117,7.487960566950228
153.0,1678079540791300.8,149384297296620.16,0.44181629809964484,7.44724375189705
154.0,2122726434315305.8,189529551191058.28,0.4364341666495367,7.407348996417235
155.0,2683862065510727.5,240361467148502.06,0.4311214004515808,7.368275838479509
156.0,3391551365137311.5,304686412916768.6,0.42588091012739476,7.330023638669781
157.0,4283478791119419.0,386035316834282.4,0.42071551264226703,7.292591591544527
158.0,5406840802811852.0,488847116925779.0,0.4156279283292564,7.25597873668026
159.0,6820698514678650.0,618697490137677.2,0.41062077832023075,7.220183969417828
160.0,8598899280759193.0,782583705802336.8,0.4056965823878442,7.1852060513010665
161.0,1.0833701103128518e+16,989279060728538.1,0.4008577571997959,7.1510436202098315
162.0,1.3640264877667422e+16,1249773602801140.8,0.3961066149842248,7.11769520018803
163.0,1.7162218137567806e+16,1577821848541482.2,0.39144536260263013,7.085159210967729
164.0,2.157854165841741e+16,1990623019686709.0,0.3868761010243322,7.053433977190871
165.0,2.711208868806663e+16,2509665187218910.0,0.382400825194204,7.022517737330568
166.0,3.4040117830399496e+16,3161771804534417.0,0.37802142428323976,6.992408652314259
167.0,4.270730732123461e+16,3980397815854375.5,0.3737396823094921,6.963104813851439
168.0,5.354182442750389e+16,5007233340641814.0,0.3695572791150153,6.934604252468889
169.0,6.707515395648262e+16,6294186365161094.0,0.36547579168271926,6.906904945256655
170.0,8.39665506294539e+16,7905832546403924.0,0.36149669577546356,6.880004823328263
171.0,1.0503317892865878e+17,9922440767572428.0,0.35762136787831766,6.853901778998834
172.0,1.3128724943400978e+17,1.2443708087252126e+16,0.35385108742368904,6.828593672684971
173.0,1.6398176232730314e+17,1.5593368253758032e+16,0.3501870392779737,6.8040783395304585
174.0,2.0466683887416982e+17,1.952487514412778e+16,0.346630316467511,6.7803535957618895
175.0,2.5525907499740134e+17,2.4428407888022292e+16,0.34318192312093765,6.757417244778517
176.0,3.181269066570818e+17,3.0539500617845452e+16,0.33984277760451476,6.735267082980629
177.0,3.9619566095671494e+17,3.814966936012202e+16,0.33661371582666194,6.713900905340882
178.0,4.930768117702219e+17,4.76194945201572e+16,0.33349549468774686,6.69331651072303
179.0,6.132270030170419e+17,5.939472343042346e+16,0.3304887956511542,6.673511706952503
180.0,7.621436943753987e+17,7.402608786021118e+16,0.3275942284117828,6.654484315643348
181.0,9.466058799345723e+17,9.219369132805378e+16,0.32481233463838355,6.636232176785973
182.0,1.1749702991720745e+18,1.1473701720753931e+17,0.32214359176653506,6.618753153100158
183.0,1.4575359878926134e+18,1.4269185011110646e+17,0.3195884168195722,6.602045134157758
184.0,1.8069930151438113e+18,1.7733570146401088e+17,0.31714717023538636,6.586106040279422
185.0,2.2389749617492004e+18,2.202436996228439e+17,0.31482015967773647,6.570933826209687
186.0,2.7727392942269814e+18,2.733573628590515e+17,0.3126076438114959,6.556526484574649
187.0,3.432005494513059e+18,3.390692397893337e+17,0.3105098360221278,6.542882049126367
188.0,4.245987892067019e+18,4.203271028503966e+17,0.30852690806061056,6.529998597778076
189.0,5.250668946686848e+18,5.2076224636939264e+17,0.30665899359601034,6.517874255434185
190.0,6.490369661358723e+18,6.448475114870733e+17,0.30490619165891375,6.506507196618906
191.0,8.019687385856312e+18,7.98091987631884e+17,0.3032685699599915,6.495895647907296
192.0,9.905888281097646e+18,9.872809844654528e+17,0.3017461680690514,6.48603789016238
193.0,1.223186232292347e+19,1.220771923212295e+18,0.3003390004409128,6.4769322605817585
194.0,1.509977543845717e+19,1.5088593322715044e+18,0.2990470592757145,6.468577154557206
195.0,1.8635585992466305e+19,1.8642253031577613e+18,0.29787031720226653,6.46097102735055
196.0,2.299463343550033e+19,2.3024957098452675e+18,0.2968087297741027,6.454112395588921
197.0,2.8368558199076123e+19,2.842927397212738e+18,0.29586223776903914,6.447999838582377
198.0,3.4993875715231257e+19,3.5092576585986995e+18,0.29503076928409677,6.442631999466813
199.0,4.316260731732968e+19,4.330754945457015e+18,0.2943142416186993,6.438007586174868
200.0,5.323547080358735e+19,5.343519269036916e+18,0.293712562940097,6.434125372237451
201.0,6.565825881523112e+19,6.592092649524984e+18,0.29322563372598903,6.4309841974183515
202.0,8.09821904702102e+19,8.131454845506558e+18,0.2928533479803161,6.428582968184254
203.0,9.988921919310386e+19,1.0029498216249588e+19,0.2925955942191797,6.426920658012382
204.0,1.2322352787195113e+20,1.2370098886048045e+19,0.29245225622480725,6.4259963075378
205.0,1.52030754582474e+20,1.525693059573713e+19,0.2924232135664307,6.425809024542332
206.0,1.8760688488661307e+20,1.881820426166514e+19,0.29250834188787317,6.426357983786875
207.0,2.3155924133192385e+20,2.321256223914991e+19,0.29270751296256137,6.427642426688805
208.0,2.8588262413294207e+20,2.8636414038577783e+19,0.29302059451757395,6.429661660845983
209.0,3.5305444321816864e+20,3.533307283976608e+19,0.2934474498292373,6.4324150594088225
210.0,4.361536741674588e+20,4.360414347773948e+19,0.2939879370936557,6.435902060301685
211.0,5.3900972400359814e+20,5.382372753967736e+19,0.29464190857643996,6.4401221652948255
212.0,6.663888771219253e+20,6.645615602988428e+19,0.2954092095467629,6.445074938927914
213.0,8.242279955000113e+20,8.207814259428105e+19,0.2962896770017357,6.450760007286154
214.0,1.0199276833706448e+21,1.0140648050421144e+20,0.29728313818795005,6.457177056629804
215.0,1.262720338083998e+21,1.253326971733017e+20,0.29838940892789007,6.4643258318779075
216.0,1.564132578353594e+21,1.549664469380127e+20,0.2996082917597594,6.472206134946874
217.0,1.938566700584067e+21,1.9168988656421762e+20,0.30093957390011306,6.48081782294449
218.0,2.4040323591966394e+21,2.372258643176089e+20,0.3023830250395227,6.490160806219874
219.0,2.9830679743625476e+21,2.9372349529593106e+20,0.303938394982321,6.500235046269767
220.0,3.703901920042928e+21,3.6386563478552786e+20,0.30560541114229695,6.511040553501519
221.0,4.601916947927325e+21,4.510039506748362e+20,0.3073837759070071,6.522577384853059
222.0,5.721498337616031e+21,5.593288029759053e+20,0.3092731638841534,6.534845641270042
223.0,7.118367924164121e+21,6.940830488500714e+20,0.31127321904423616,6.547845465040367
224.0,8.862533705265386e+21,8.618313131965189e+20,0.3133835517744247,6.561577036986177
225.0,1.1042019783387073e+22,1.0707993395085801e+21,0.3156037358592828,6.57604057351342
226.0,1.3767586018078505e+22,1.3313019360802924e+21,0.3179333054046484,6.591236323519044
227.0,1.7178703568223198e+22,1.6562829850986516e+21,0.32037175172157395,6.60716456515582
228.0,2.1451125080285723e+22,2.0619972675113881e+21,0.3229185201878076,6.623825602454872
229.0,2.680647954117569e+22,2.568871865167992e+21,0.3255730071047285,6.641219761805787
230.0,3.352444014362451e+22,3.202595027704609e+21,0.3283345565682113,6.6593473882944085
231.0,4.19581628503082e+22,3.9954933020493433e+21,0.3312024573721413,6.678208841898366
232.0,5.255388317818735e+22,4.988274130603477e+21,0.3341759399635808,6.697804493540271
233.0,6.587580175918696e+22,6.232231959691783e+21,0.3372541734688058,6.718134720998673
234.0,8.263769814677473e+22,7.792042402106895e+21,0.3404362628095032,6.739199904676853
235.0,1.0374310594557696e+23,9.749302687367143e+21,0.3437212459283983,6.761000423229592
236.0,1.3033638362420202e+23,1.22070194649711e+22,0.3471080911434573,6.78353664904807
237.0,1.6386765369111664e+23,1.5295299488238658e+22,0.3505956946495644,6.806808943603162
238.0,2.0617539548453066e+23,1.917856788172686e+22,0.35418287818621674,6.830817652647407
239.0,2.5959151072824e+23,2.4064726648219693e+22,0.3578683868892908,6.855563101276059
240.0,3.270749965145203e+23,3.0216777909387596e+22,0.36165088734433176,6.881045588847673
241.0,4.1238203341127254e+23,3.79675783420447e+22,0.36552896585807915,6.907265383764813
242.0,5.202824225576026e+23,4.773857139998426e+22,0.3695011269640844,6.9342227181155325
