Time,J,A,S,tau
0.0,100.0,100.0,0.5560611891665244,7.4074074074074066
1.0,531.9863774869567,314.3234290925004,0.5453144154198105,7.2972773186858735
2.0,1552.4716041147663,505.8256768075477,0.5343544627513028,7.183290471583276
3.0,3023.4968553767108,676.3078266582,0.5231975872638945,7.065435081646094
4.0,4826.395537809041,827.4377730871823,0.5118603412897855,6.943698074037366
5.0,6859.752826049324,960.7574028471917,0.5003597608829657,6.818067485356441
6.0,9037.541365203504,1077.6924258297165,0.48871330994498885,6.6885324777379935
7.0,11277.31111485372,1190.8537072129643,0.4806426981292818,6.598805832482158
8.0,13636.56236193125,1542.5971176137,0.4782759872321599,6.575733280065165
9.0,16874.276503280616,2159.3976550057205,0.47590706220080653,6.55275974755513
10.0,21594.0055241767,2976.4995074328567,0.4735367287208132,6.529891731294683
11.0,28134.64928514113,3938.707100272035,0.4711657958637142,6.507135614120245
12.0,36629.2717593335,4999.253417009031,0.4687950755904441,6.484497664596453
13.0,47054.639296097426,6118.698323625304,0.46642538224942315,6.461984036346766
14.0,59251.768098047236,7311.534986507956,0.4640575320703899,6.439600767534504
15.0,73241.35389310845,8910.02172314794,0.4616923426482714,6.417353780483469
16.0,90038.90673122623,11246.868780579349,0.4593306324301081,6.395248881361346
17.0,111335.28881553699,14514.485410321247,0.4569732201980085,6.373291760009934
18.0,139024.954374796,18796.560272373103,0.4546209245485377,6.351487989890299
19.0,174882.97074544732,24094.457182149814,0.45227456337248634,6.329843028125999
20.0,220357.05551847818,30350.03414789606,0.44993495333540956,6.3083622156463015
21.0,276432.32036353654,37613.7696446188,0.4476029093605455,6.287050777424498
22.0,344174.49407476914,46405.9569589994,0.4452792441091759,6.265913822857749
23.0,425963.1458296022,57586.64687516125,0.4429647674688799,6.2449563461656865
24.0,526035.7987694301,72118.51449754067,0.44066028604514823,6.224183226936718
25.0,650355.7708215675,90905.26206312251,0.43836660265699984,6.203599230734255
26.0,806098.8522898165,114689.368024238,0.4360845158385293,6.1832090097774595
27.0,1000956.5225743396,144027.2665018888,0.43381481934810917,6.163017103728448
28.0,1242526.538865809,179627.72113432744,0.4315583016846908,6.143027940525057
29.0,1538858.9697065554,222912.71418446652,0.4293157456128552,6.123245837291195
30.0,1900208.9767540062,276228.4693421777,0.42708792769684467,6.103675001323763
31.0,2340852.956550024,342745.0043206249,0.42487561784528854,6.084319531131954
32.0,2880243.3244543313,426186.8039324502,0.4226795788666454,6.065183417538493
33.0,3543230.7838671417,530500.244145666,0.4205005660362859,6.04627054483629
34.0,4359361.9597669095,659697.7638502199,0.41833932667398516,6.02758469202946
35.0,5362044.966013149,818248.3009822393,0.41617922410722535,6.00942353107344
36.0,6588715.144152935,1011356.6613107166,0.4138898045519864,5.9939982549315
37.0,8081805.896442001,1246444.2259360033,0.4114447549345593,5.981739846694427
38.0,9893009.37529731,1533360.4454782307,0.40884627985870037,5.972600251914214
39.0,12086772.372479307,1884147.260742053,0.4060969122218102,5.966531303059075
40.0,14742478.184752245,2312578.559740935,0.40319950921306474,5.963484738761841
41.0,17954796.333106074,2834170.1307544396,0.40017669294822916,5.963087794330832
42.0,21834774.89153674,3468288.6857055994,0.3971642134885334,5.963087794369129
43.0,26514464.49368142,4236510.2273688875,0.39418695344923854,5.963087794369129
44.0,32146962.61496041,5164931.0651509445,0.39124600510136637,5.963087794369129
45.0,38912013.537793644,6285731.350380054,0.388342438204147,5.963087794369129
46.0,47023363.07723527,7637855.925047896,0.38547729942371833,5.963087794369129
47.0,56735725.15045424,9267186.360134045,0.38265161180711565,5.963087794369129
48.0,68350299.70869151,11227860.361927912,0.3798663743099102,5.963087794369129
49.0,82222365.77556908,13583383.205137428,0.3771225613777695,5.963087794369129
50.0,98768447.99869676,16407646.081024779,0.37442112257966637,5.963087794369129
51.0,118474525.24989319,19787694.566026647,0.3717629823000341,5.963087794369129
52.0,141907868.58482236,23826820.629313428,0.3691490394820513,5.963087794369129
53.0,169732359.20178178,28647337.27667007,0.36658016742030775,5.963087794369129
54.0,202726006.71828246,34393270.55751919,0.3640572136084311,5.963087794369129
55.0,241799788.8208016,41233769.979236804,0.36158099964218654,5.963087794369129
56.0,288018838.4450718,49366352.055577576,0.35915232116949936,5.963087794369129
57.0,342625026.74550486,59021143.90965234,0.3567719478869665,5.963087794369129
58.0,407062563.6583261,70466681.64699957,0.354440623582091,5.963087794369129
59.0,483009697.1119281,84016836.6405165,0.35215906624157095,5.963087794369129
60.0,572416157.7426859,100038539.94303337,0.3499279681666278,5.963087794369129
61.0,677548665.4256853,118960275.75702432,0.347747996174147,5.963087794369129
62.0,801039255.6886333,141281664.16534734,0.3456197917990118,5.963087794369129
63.0,945947038.1049528,167583724.78784588,0.3435439715631302,5.963087794369129
64.0,1115818170.1794887,198541257.70958024,0.34152112726658884,5.963087794369129
65.0,1314764987.789297,234937473.99446055,0.33955182630994113,5.963087794369129
66.0,1547547588.0816622,277681478.5943057,0.33763661206574586,5.963087794369129
67.0,1819678685.4517508,327828481.6808848,0.33577600424864557,5.963087794369129
68.0,2137534053.6521647,386603037.62190825,0.3339704993472579,5.963087794369129
69.0,2508496837.0452433,455425229.9740365,0.33222057104273517,5.963087794369129
70.0,2941103912.7451425,535940584.37811697,0.3305266706800426,5.963087794369129
71.0,3445240496.7175016,630053924.3473839,0.32888922774101353,5.963087794369129
72.0,4032329901.825438,739969938.3919904,0.3273086503234496,5.963087794369129
73.0,4715581195.666072,868239078.6747961,0.3257853256634775,5.963087794369129
74.0,5510271557.604388,1017811906.7586882,0.3243196206294678,5.963087794369129
75.0,6434045897.185776,1192102133.2055638,0.32291188225129386,5.963087794369129
76.0,7507323243.44581,1395057650.571614,0.3215624382476153,5.963087794369129
77.0,8753698860.323,1631244861.3459716,0.3202715975361624,5.963087794369129
78.0,10200458273.49982,1905943324.7004564,0.31903965077675606,5.963087794369129
79.0,11879179900.613409,2225256772.3561525,0.3178668708776095,5.963087794369129
80.0,13826358709.431202,2596243125.1291213,0.3167535135129761,5.963087794369129
81.0,16084257988.720854,3027061938.984135,0.3156998176372895,5.963087794369129
82.0,18701768468.980778,3527151266.3779054,0.3147060059627726,5.963087794369129
83.0,21735505720.340908,4107427138.826617,0.313772285459054,5.963087794369129
84.0,25251033911.479137,4780519890.089138,0.31289884780534194,5.963087794369129
85.0,29324322387.48749,5561046448.042949,0.31208586984040537,5.963087794369129
86.0,34043425546.03838,6465926930.486315,0.31133351399404224,5.963087794369129
87.0,39510462813.0234,7514753313.214512,0.3106419286940556,5.963087794369129
88.0,45843989412.93822,8730218415.320297,0.31001124874939856,5.963087794369129
89.0,53181618859.18615,10138621941.255001,0.30944159570204227,5.963087794369129
90.0,61683185745.147095,11770456850.801903,0.3089330781629814,5.963087794369129
91.0,71534473618.48482,13661094551.713846,0.3084857921168729,5.963087794369129
92.0,82951670675.27689,15851583716.77414,0.308099821197157,5.963087794369129
93.0,96186422645.92816,18389593816.651436,0.30777523692378406,5.963087794369129
94.0,111531776833.39886,21330516254.916313,0.30751209891746184,5.963087794369129
95.0,129329319305.35548,24738751978.86239,0.3073104550819545,5.963087794369129
96.0,149977635523.26407,28689222755.295513,0.30717034175160823,5.963087794369129
97.0,173942219951.21753,33269155124.126102,0.30709178380049357,5.963087794369129
98.0,201766823887.54883,38580184295.02796,0.30707479471948385,5.963087794369129
99.0,234087339196.33667,44740814148.82323,0.3071193766645228,5.963087794369129
100.0,271648180209.0521,51889320646.32379,0.3072255204666943,5.963087794369129
101.0,315321895273.4818,60187179397.86645,0.30739320560530187,5.963087794369129
102.0,366131397983.1798,69823142991.14989,0.3076224001433352,5.963087794369129
103.0,425277328456.02826,81018020518.96736,0.307913060638098,5.963087794369129
104.0,494170429052.92224,94030346076.36383,0.30826513201353606,5.963087794369129
105.0,574470756517.1268,109163085971.51122,0.3086785473984032,5.963087794369129
106.0,668132365474.6254,126771667482.62035,0.30915322792532984,5.963087794369129
107.0,777458038019.1321,147273436957.66092,0.3096890825091249,5.963087794369129
108.0,905164634677.8843,171158917591.96396,0.31028600759038794,5.963087794369129
109.0,1054462510074.7969,199005183875.4897,0.3109438868488334,5.963087794369129
110.0,1229147555949.4673,231491933395.48566,0.31166259088036646,5.963087794369129
111.0,1433712503889.3647,269420562300.77017,0.3124419768571898,5.963087794369129
112.0,1673481664410.601,313736930899.2644,0.31328188816068375,5.963087794369129
113.0,1954774205650.0933,365558567749.98724,0.3141821539886216,5.963087794369129
114.0,2285098211963.555,426207413647.39105,0.3151425889333484,5.963087794369129
115.0,2673381257154.7593,497249065158.31665,0.31616299254605323,5.963087794369129
116.0,3130253970755.621,580539699768.5426,0.31724314888509414,5.963087794369129
117.0,3668392736857.496,678282511077.5844,0.3183828260444271,5.963087794369129
118.0,4302935639056.821,793095757448.5417,0.31958177566262574,5.963087794369129
119.0,5051972179614.498,928095076080.1443,0.3208397324222369,5.963087794369129
120.0,5937151257819.377,1086992211511.3875,0.3221564135462727,5.963087794369129
121.0,6984417381049.1455,1274214458234.4507,0.32353151828249477,5.963087794369129
122.0,8224915958300.188,1495049127140.3682,0.32496472737901233,5.963087794369129
123.0,9696061733152.58,1755819616195.6677,0.3264557025563379,5.963087794369129
124.0,11442867257172.348,2064097631949.5974,0.32800408599011727,5.963087794369129
125.0,13519562190879.781,2428961265001.845,0.3296094997913012,5.963087794369129
126.0,15991597904485.822,2861308508579.5786,0.3312715454889429,5.963087794369129
127.0,18938039736429.035,3374241596621.857,0.33298980351702506,5.963087794369129
128.0,22454529214862.367,3983533357761.125,0.3347638327250765,5.963087794369129
129.0,26656930923528.375,4708196846649.7705,0.3365931698976158,5.963087794369129
130.0,31685855782507.676,5571181287906.022,0.3384773292873501,5.963087794369129
131.0,37712153657530.086,6600228771937.396,0.34041580216131706,5.963087794369129
132.0,44943661157103.13,7828922486330.071,0.34240805638207034,5.963087794369129
133.0,53633609466367.49,9297971918409.443,0.3444535360106938,5.963087794369129
134.0,64091050663293.49,11056793422348.832,0.3465516609336005,5.963087794369129
135.0,76693638572177.52,13165467367845.15,0.348701826510228,5.963087794369129
136.0,91903543346479.11,15697138914049.176,0.35090340327239955,5.963087794369129
137.0,110287583668404.02,18740975848047.008,0.3531557366488718,5.963087794369129
138.0,132541055443107.08,22405873166841.22,0.3554581467197482,5.963087794369129
139.0,159519202174812.97,26824979664188.582,0.35780992801955464,5.963087794369129
140.0,192274535490765.7,32161362755703.93,0.3602103493854341,5.963087794369129
141.0,232105300531866.4,38615032955706.85,0.36265865382768975,5.963087794369129
142.0,280614678480132.78,46431650738745.35,0.36515405847999877,5.963087794369129
143.0,339785262302585.75,55913463180612.37,0.3676957545547621,5.963087794369129
144.0,412073829798842.75,67432805415196.055,0.37028290738747804,5.963087794369129
145.0,500526945911508.56,81449181760084.7,0.3729146564989697,5.963087794369129
146.0,608932080406424.1,98530411893148.66,0.3755901157253752,5.963087794369129
147.0,742000407297469.8,119379339568573.22,0.37830837340075046,5.963087794369129
148.0,905605998018484.4,144867264813240.16,0.38106849257412456,5.963087794369129
149.0,1107080523768729.9,176075876119844.3,0.3838695113117396,5.963087794369129
150.0,1355589901344559.5,214350412376061.9,0.386710443013351,5.963087794369129
151.0,1662614747813874.8,261366019264216.16,0.38959027682185227,5.963087794369129
152.0,2042547608202921.8,319212493620000.3,0.39250797805494153,5.963087794369129
153.0,2513469798389395.0,390500547597718.5,0.3954624887091076,5.963087794369129
154.0,3098131192993636.0,478496658783170.5,0.39845272801227455,5.963087794369129
155.0,3825196800200868.5,587294584829734.0,0.40147762973068524,5.963087211332483
156.0,4730901494856035.0,721727859806389.1,0.40445182411805486,5.964424907705816
157.0,5859976983417491.0,887566883620582.2,0.40727260123048425,5.96871985364284
158.0,7267828492589962.0,1092250848981033.1,0.40993762641556075,5.976002081888821
159.0,9023842794974776.0,1345009989137870.5,0.4124455330579196,5.986291119233693
160.0,1.1214953792533348e+16,1657299605908636.8,0.4147953243587828,5.999605400078453
161.0,1.3950127193013734e+16,2043339461199561.5,0.4169860501672834,6.015967344524718
162.0,1.736581330406324e+16,2521719375799225.0,0.41909478179773124,6.034146084387942
163.0,2.163663897758456e+16,3116144306163206.5,0.42122020316903513,6.052546563782412
164.0,2.6984479629671296e+16,3855046438356597.0,0.42336195534746124,6.071159603169892
165.0,3.3688491120032344e+16,4773910293799239.0,0.42551932625744576,6.089981510603891
166.0,4.210018105458116e+16,5917047391125999.0,0.4276915979628996,6.109008505657846
167.0,5.2662460222141816e+16,7339815160369527.0,0.42987804704938826,6.1282367185228175
168.0,6.593364392160762e+16,9111586487464016.0,0.43207794501433067,6.147662189143672
169.0,8.2618870287762e+16,1.132066091653383e+16,0.43429055866457456,6.167280866396022
170.0,1.0361332154377693e+17,1.4078432270185946e+16,0.436515150520686,6.1870886073062845
171.0,1.3005387907663464e+17,1.7524666577916186e+16,0.4387509792272675,6.207081176317163
172.0,1.63383539486047e+17,2.1834823629488076e+16,0.44099729996860226,6.227254244600929
173.0,2.0543335177783795e+17,2.7229282551574196e+16,0.4432533648889061,6.247603389422859
174.0,2.5852661541987008e+17,3.3984973130283588e+16,0.44551842351645593,6.268124093557192
175.0,3.256113504445474e+17,4.245061521071599e+16,0.4477917231908513,6.288811744757998
176.0,4.104312866565558e+17,5.30670795895423e+16,0.4500725094926672,6.309661635287259
177.0,5.177477746937536e+17,6.639200829077767e+16,0.45236002667472214,6.330668961502595
178.0,6.5362289065199e+17,8.313048075701822e+16,0.45465351809420373,6.351828823507268
179.0,8.25779789798519e+17,1.0417384675323386e+17,0.45695222664492635,6.3731362248644015
180.0,1.0440618863562332e+18,1.3064890529316771e+17,0.4592553951889243,6.394586072377997
181.0,1.3210183042201144e+18,1.6398023874949162e+17,0.46156226698663944,6.416173175943061
182.0,1.672650918638785e+18,2.059701088614377e+17,0.46387208612495423,6.437892248467168
183.0,2.119371635335576e+18,2.589015325634238e+17,0.46618409794233306,6.459737905865798
184.0,2.687232937238845e+18,3.25669492884433e+17,0.46849754945034267,6.481704667133701
185.0,3.409508139043949e+18,4.099474118752645e+17,0.47081168975083953,6.503786954494579
186.0,4.328718403767257e+18,5.1639849604611085e+17,0.47312577044812487,6.525979093631308
187.0,5.499231065483956e+18,6.509441855121967e+17,0.4754390460553874,6.548275313998892
188.0,6.990588939117488e+18,8.211053540164984e+17,0.47775077439477165,6.5706697492223185
189.0,8.891775824197832e+18,1.0364372367874616e+18,0.48006021699043494,6.593156437581424
190.0,1.1316685931486886e+19,1.3090857859808878e+18,0.48236663945397384,6.615729322584836
191.0,1.44111460572063e+19,1.6544992969101197e+18,0.48466931186163137,6.6383822536350365
192.0,1.836193822527018e+19,2.0923377245468992e+18,0.4869675091227187,6.661108986786471
193.0,2.340839585620836e+19,2.6476338456252247e+18,0.48926051133871934,6.683903185598577
194.0,2.9857258358226174e+19,3.352276429910766e+18,0.49154760415295323,6.706758422084966
195.0,3.8101975397788656e+19,4.2468992421636634e+18,0.4938280790885121,6.7296681777614396
196.0,4.8647143573546746e+19,5.383297705847876e+18,0.49610123387709143,6.752625844802168
197.0,6.214026365197381e+19,6.827514761663596e+18,0.49836637277615375,6.775624727279674
198.0,7.941227857186012e+19,8.663791707889568e+18,0.5006228068747187,6.798658042520908
199.0,1.0152992360442112e+20,1.0999616439275788e+19,0.5028698543856228,6.821718922577641
200.0,1.2986299478256992e+20,1.3972198896419512e+19,0.5051068409286532,6.844800415772947
201.0,1.6617067544096604e+20,1.7756750592956471e+19,0.5073330997980323,6.867895488390645
202.0,2.1271317212341394e+20,2.2577077076951745e+19,0.5095479722187568,6.890997026451206
203.0,2.723946827898064e+20,2.8719159618565767e+19,0.5117508075908175,6.9140978375958895
204.0,3.489477778629476e+20,3.654850359327917e+19,0.513940963717358,6.937190653104523
205.0,4.4717109220668663e+20,4.653239188451174e+19,0.5161178070231719,6.960268129993231
206.0,5.7323386560249745e+20,5.926838016085923e+19,0.5182807127572251,6.983322853248957
207.0,7.350698904826295e+20,7.55207722433615e+19,0.5204290651819012,7.006347338171413
208.0,9.42883141267936e+20,9.626747290788997e+19,0.5225622577511787,7.029334032812805
209.0,1.2097985829589287e+21,1.2275992849754266e+20,0.5246796932713371,7.052275320558761
210.0,1.5527031872900893e+21,1.5660003841543235e+20,0.526780784051623,7.075163522798567
211.0,1.9933236440720388e+21,1.99838832427788e+20,0.528864952040185,7.097990901719373
212.0,2.559619099719544e+21,2.5510275966704756e+20,0.5309316289450726,7.120749663222247
213.0,3.287574090718071e+21,3.257559808723196e+20,0.5329802563456986,7.143431959931271
214.0,4.223500832800451e+21,4.16108242302521e+20,0.5350102857870664,7.166029894338106
215.0,5.427017897737405e+21,5.316814866653071e+20,0.5370211788634299,7.188535522046674
216.0,6.974870552330289e+21,6.795524561217225e+20,0.5390124072897395,7.210940855127786
217.0,8.965858146500326e+21,8.687913601294446e+20,0.5409834529573437,7.233237865598445
218.0,1.1527193175507052e+22,1.1110257069158842e+21,0.5429338079816238,7.255418488994576
219.0,1.4822655681055481e+22,1.421163688763297e+21,0.544862974734348,7.277474628064205
220.0,1.9063141880233237e+22,1.8183215090707763e+21,0.5467704658648459,7.299398156566233
221.0,2.452021854740848e+22,2.327016116565139e+21,0.5486558043121512,7.321180923168285
222.0,3.154356505663659e+22,2.978693232014627e+21,0.5505185233017864,7.342814755459279
223.0,4.058351735592667e+22,3.8136903841836806e+21,0.5523581663356116,7.364291464056074
224.0,5.221997072528794e+22,4.883759040793163e+21,0.5541742871696188,7.385602846813189
225.0,6.719970847155004e+22,6.255296765016705e+21,0.5559664497802769,7.40674069313189
226.0,8.648448361997107e+22,8.013505749043918e+21,0.5577342283249132,7.427696788361748
227.0,1.113127426151526e+23,1.0267726446371285e+22,0.559477207088582,7.448462918296912
228.0,1.4327945746683044e+23,1.3158284583864134e+22,0.561194980424637,7.469030873761344
229.0,1.8443855315238895e+23,1.6865298561087627e+22,0.5628871526871765,7.489392455282314
230.0,2.3743491203348023e+23,2.1619966416996874e+22,0.5645533381524741,7.509539477843678
231.0,3.0567472476578053e+23,2.771908327418271e+22,0.5661931609369116,7.529463775724955
232.0,3.93543879913988e+23,3.554368386285365e+22,0.5678062549045328,7.549157207412383
233.0,5.06690227869415e+23,4.558295706497121e+22,0.5693922635686213,7.568611660581421
234.0,6.523863219594707e+23,5.8465027360649824e+22,0.5709508399891282,7.58781905715708
235.0,8.399957786598991e+23,7.499642098314879e+22,0.572481646660432,7.606771358424148
236.0,1.0815757713759458e+24,9.621279489720326e+22,0.5739843553973385,7.625460570209939
237.0,1.392649309687943e+24,1.2344416045588596e+23,0.575458647214558,7.643878748119894
238.0,1.7932015880037046e+24,1.583985148054197e+23,0.5769042122006406,7.66201800281256
239.0,2.308963178155537e+24,2.032694884513147e+23,0.5783207493911402,7.679870505342459
240.0,2.9730559711593165e+24,2.6087450139218654e+23,0.5797079666344667,7.697428492520771
241.0,3.8281202539845794e+24,3.3483217869636614e+23,0.5810655804570125,7.714684272321568
242.0,4.929043259414283e+24,4.297906882966319e+23,0.5823933159257547,7.731630229328384
