Time,J,A,S,tau
0.0,100.0,100.0,0.6510406561416919,27.027027027027028
1.0,86.7662333566367,44.90388576057602,0.649703065211642,27.916504596187693
2.0,74.0631047983103,24.33368153159527,0.6483569414761532,28.80988594667906
3.0,61.851687057358774,16.48887234225832,0.6470037569403071,29.706852972544926
4.0,50.09481609510467,13.34695403306221,0.6456447878456297,30.607124050796237
5.0,38.75759790497963,11.955400294424804,0.6442811766605813,31.51043325964627
6.0,27.807244745768294,11.226875624763089,0.6429139425829166,32.416529233442276
7.0,17.212917160669225,10.760303297708441,0.6415439917165582,33.32517404607634
8.0,6.945572524562355,10.407162832400285,0.6401721268561418,34.23614212917563
9.0,0.0,10.112049337330422,0.6387990568759211,35.14921922441687
10.0,0.0,9.85343955169893,0.6374254057618184,36.06420136423409
11.0,0.0,9.622798968196253,0.6360517210823187,36.98089390597823
12.0,0.0,9.416269296016873,0.634678482147165,37.89911058897211
13.0,0.0,9.2320860117497,0.633306107742421,38.81867262841014
14.0,0.0,9.068730534576291,0.631934963487928,39.73940784057913
15.0,0.0,8.925404189080272,0.630565368809977,40.66114980163345
16.0,0.0,8.801143608658025,0.6291976036872793,41.58373702011711
17.0,0.0,8.695440440447804,0.6278319148575882,42.507012163887204
18.0,0.0,8.607648691528137,0.6264685221245053,43.43082126163367
19.0,0.0,8.53735977236272,0.6251076240335492,44.355012971422
20.0,0.0,8.484231738476648,0.6237494037166268,45.27943781769076
21.0,0.0,8.447911841135634,0.6223940343035866,46.20394747095167
22.0,0.0,8.428321968461319,0.6210416843768446,47.12839401418694
23.0,0.0,8.425207283291774,0.6196925232621913,48.05262921899531
24.0,0.0,8.43869123490191,0.618346726290374,48.976503818347645
25.0,0.0,8.468671934218019,0.6170044800097415,49.899866777607635
26.0,0.0,8.51541597022711,0.6156659875062581,50.82256454260824
27.0,0.0,8.579031362686,0.6143314735629641,51.74444030578376
28.0,0.0,8.659871689590934,0.6130011902470998,52.66533320387325
29.0,0.0,8.75831807058501,0.611675422115724,53.58507756811251
30.0,0.0,8.874774447941562,0.6103544921447249,54.503502064266065
31.0,0.0,9.009904648913642,0.6090387672065416,55.42042889673242
32.0,0.0,9.164196391373657,0.6077286642724701,56.33567290344537
33.0,0.0,9.338560915681533,0.6064246564567687,57.24904067278295
34.0,0.0,9.533637206660302,0.6051272793665252,58.16032961312157
35.0,0.0,9.750532144025692,0.6038371379535176,59.069326947840295
36.0,0.0,9.99011994833627,0.6025549129242247,59.975808772418
37.0,0.0,10.253634142555075,0.6012813684659057,60.87953891670332
38.0,0.0,10.542292037999758,0.6000173587682502,61.780267980457864
39.0,0.0,10.857387032149228,0.598763836378526,62.67773209558519
40.0,0.0,11.200531381720458,0.5975218590675545,63.571651902115356
41.0,0.0,11.573093598423036,0.5962925982598625,64.46173128604264
42.0,0.0,11.97704514028038,0.595077346482093,65.34765625346394
43.0,0.0,12.413913684732165,0.5938775252019741,66.22909373347838
44.0,0.0,12.885943349521645,0.5926946928181067,67.1056903445544
45.0,0.0,13.394932785912037,0.591530551279319,67.97707134303731
46.0,0.0,13.943262831580608,0.5903869540937529,68.84283934103053
47.0,0.0,14.533149315805735,0.5892659112421104,69.70257345535836
48.0,0.0,15.166946315857999,0.5881695960209008,70.55582812850776
49.0,0.0,15.847359580181479,0.5871003479052693,71.40213250416164
50.0,0.0,16.576648279324242,0.5860606764459902,72.24098958697196
51.0,0.0,17.357894816685096,0.585053261533569,73.07187588977486
52.0,0.0,18.19332233083592,0.5840809524326428,73.89424118559891
53.0,0.0,20.40914060306028,0.583146764363503,74.70750853584364
54.0,0.0,40.439813918427376,0.5822538705568773,75.51107492176746
55.0,0.0,61.19052803717551,0.581405592989842,76.30431192733325
56.0,0.0,82.71121131362494,0.5806053876002586,77.08656714444398
57.0,0.0,105.0535581754674,0.5798568253296237,77.85716606689482
58.0,0.0,128.27020576727142,0.579163568504637,78.61541452486816
59.0,0.0,152.41442930710284,0.5785293418679545,79.36060174507709
60.0,0.0,177.53977453237363,0.5779578979217181,80.09200411732276
61.0,0.0,203.6996395724816,0.5774529766466644,80.80888958448381
62.0,0.0,230.94679240125126,0.5770182593362397,81.51052274124419
63.0,0.0,259.3328359330078,0.5766573168632535,82.19617057227359
64.0,105.08551361293131,288.90761985632656,0.5763735525545665,82.86510879381065
65.0,250.44593184087182,319.71860929073705,0.5761701403823509,83.51662871482314
66.0,418.74477863476244,351.81021843079486,0.5760499591455779,84.15004451284996
67.0,612.1532485984396,385.2231222836952,0.5760155239223822,84.76470076696322
68.0,833.0162592709248,419.9935619942726,0.5760689160488908,85.35998007658667
69.0,1083.8585571692508,456.1526554514765,0.5762117125922279,85.93531062056857
70.0,1367.3894627550733,493.7257433023974,0.5764449183189673,86.49017332219024
71.0,1686.5064487935158,532.7317741351956,0.5767689002024543,87.02410855314427
72.0,2044.2969864852516,573.1827594958585,0.577183327560004,87.53672203753358
73.0,2444.038549428985,615.0833123060072,0.5776871190385309,88.02768979342466
74.0,2889.1965813175725,658.4302812119672,0.5782783976023618,88.49676196708558
75.0,3383.4200048318557,703.2125093891116,0.5789544567357451,88.9437652423684
76.0,3930.534377893813,749.4106965858047,0.5797117349834788,89.36860407764212
77.0,4534.5327553060515,796.9973901768319,0.5805458030167137,89.77126039500847
78.0,5199.562537882438,845.9371384636748,0.5814513652031599,90.15179159213096
79.0,5929.911407345591,896.1866826501423,0.5824222644306423,90.51032787703842
80.0,6729.9878830672105,947.69537143796,0.5834515091088798,90.84706740237017
81.0,7604.301295975758,1000.4055609936611,0.5845312984887199,91.16227124543164
82.0,8557.436565931817,1054.2531768799854,0.5856530635953128,91.45625691682788
83.0,9594.027454074701,1109.1683217229474,0.5868075159241305,91.72939119407776
84.0,10718.726179578684,1165.07588486524,0.5879846942177431,91.9820829891182
85.0,11936.170099634219,1221.8962283582882,0.5891740226400155,92.21477548935663
86.0,13250.945592535698,1279.545854686016,0.5903643679438701,92.42793851339263
87.0,14667.549770185415,1337.9380682647436,0.5915440993134967,92.62206099988406
88.0,16190.348501396158,1396.9835974718303,0.5927011443444771,92.7976439502922
89.0,17823.533682900183,1456.591188554069,0.5938230482169531,92.95519374815453
90.0,19571.07586565924,1516.6681503099235,0.5948970261557511,93.09521611997685
91.0,21436.678572922225,1577.1208301517527,0.5959100179795235,93.218210798954
92.0,23423.725709622762,1637.8550493215168,0.5968487345842716,93.32466675233927
93.0,25535.22798385014,1698.7764731606778,0.5976997049027785,93.41505807690267
94.0,27804.83624193844,1705.4470847649686,0.6046404075140434,89.06647890532315
95.0,30106.732076136257,1667.869436432092,0.6200075027566005,78.9046064162565
96.0,32376.543863429804,1630.7524400645748,0.6375550033856877,67.44874444253907
97.0,34609.985552479455,1594.0974806256447,0.6526682422802016,57.751607310665015
98.0,36802.67047620429,1557.9059754974373,0.6633707092679413,50.76142424798951
99.0,38948.57054641202,1523.8088857609405,0.670271059134227,45.81006481524038
100.0,41020.556602325014,1590.814992784166,0.6743731561580515,42.182241283949175
101.0,43223.62135101781,1774.5189380516892,0.6764320736033944,39.416931182011545
102.0,45781.613750246855,2057.007034286749,0.67695508590659,37.23585332088055
103.0,48893.69129298158,2428.02347060213,0.6762831806181441,35.46711777744374
104.0,52746.30710058815,2881.7116545834742,0.674651990687554,34.0000736779568
105.0,57519.78795558907,3414.8608438747456,0.6722296498602194,32.76052537466067
106.0,63392.036022140914,4025.9020441874577,0.6691399720567126,31.696833570781898
107.0,70540.41201504368,4714.305928723401,0.6654767565311722,30.77190181178884
108.0,79142.6018965956,5480.1924132314525,0.6613129157540327,29.958342844568932
109.0,89376.60068847444,6324.067518084503,0.6567064498759205,29.2354639449957
110.0,101420.18106201469,7246.630930323306,0.6517044769225889,28.587316173713678
111.0,115449.85289095697,8248.629777116246,0.6463460146334938,28.00139680278088
112.0,131639.46844888432,9330.740508815836,0.640663947122947,27.46776126430148
113.0,150158.43408316068,10493.470772423178,0.6346864438793381,26.978401117625882
114.0,171169.71391644405,11737.074943951211,0.6284380111715597,26.526794968882278
115.0,194827.29543721702,13061.481258882273,0.6219402631423353,26.107587355290242
116.0,221274.05740899197,14466.223396697875,0.615212525438626,25.716340507861567
117.0,250638.58602541735,15950.385400689122,0.6082722818822299,25.34935665757555
118.0,283032.6186347301,17512.55070490142,0.6011355381391585,25.00353319343697
119.0,318562.66025424725,19114.839426726056,0.5938170981918892,24.676255939742582
120.0,357158.920915434,20640.018121970028,0.5863307845339212,24.3653107179629
121.0,398472.087194649,22078.871952473557,0.578689616402485,24.068817645968778
122.0,442126.4673544554,23432.1129819465,0.5709059555171511,23.78517412850046
123.0,487729.992452235,24708.26800833733,0.5629916187093122,23.513010863566763
124.0,534909.6203485634,26062.460286247446,0.5549579725448327,23.251155260966872
125.0,583771.9595793542,27725.79809600043,0.5468160082054346,22.99860102191141
126.0,634992.8128181839,29882.372630487356,0.5385764035760175,22.75448332777371
127.0,689683.1139343567,32688.18857729057,0.5302495720132707,22.518057780802586
128.0,749299.8517639388,36281.5604018409,0.5218457013546695,22.288682834669082
129.0,815579.0847901443,40788.15820147422,0.513374784403899,22.065804897132345
130.0,890477.494673093,46323.30798556159,0.5048466422560322,21.848945779829528
131.0,976117.6903561631,52992.76265275625,0.49627094138958516,21.637691962878538
132.0,1074734.0417946328,60892.559366801164,0.48765720537304247,21.431685452943803
133.0,1188616.655370558,70108.30726170623,0.47901482201871265,21.23061598532654
134.0,1320053.8238963708,80714.1279786739,0.47035304658390914,21.03421431686678
135.0,1471272.9740919834,92771.38652568095,0.4616810014497494,20.84224648455795
136.0,1644380.7155259587,106327.34249233028,0.4530076729331919,20.65450885082829
137.0,1841302.6732228645,121413.81749601144,0.4443419057114014,20.47082384227057
138.0,2063722.5835503677,138045.89691826922,0.43569239468305554,20.29103635414551
139.0,2313032.3959140535,156216.21928477238,0.4270676759227574,20.115010487354255
140.0,2590258.8202679497,175770.34902133793,0.4184761157716066,19.94262695432114
141.0,2895621.885302539,196414.72233423867,0.4099258973060716,19.773780615847155
142.0,3228302.0482116765,217859.7538007781,0.40142500916064944,19.608378545478708
143.0,3586530.932336208,239848.09089691262,0.39298123113855493,19.446338269904373
144.0,3967766.9104461567,262376.79283065186,0.38460212077177636,19.28758627065531
145.0,4369511.780039126,285825.5073658284,0.3762950007927597,19.132056697789608
146.0,4790221.638821575,310835.8897935743,0.36806694319325595,18.979690263890927
147.0,5229813.684110022,338219.32787585177,0.3599247579050444,18.83043329224499
148.0,5689894.365214975,368892.38062536536,0.35187497993503125,18.68423690175702
149.0,6173788.331360636,403825.9206481487,0.3439238575860888,18.541056310358737
150.0,6686424.017986377,444001.8958335969,0.33607734130101874,18.400850234067896
151.0,7234102.610630508,490375.2911274508,0.328341074161906,18.26358037367016
152.0,7824183.671053211,543840.0604939427,0.32072038334510145,18.129210978488533
153.0,8464718.605782507,605193.1326701755,0.3132190777445687,17.99778518119142
154.0,9164059.716180464,674745.4361104334,0.3057775423592881,17.8733373386567
155.0,9929427.796831638,752630.9942409046,0.298360364554213,17.758240152100214
156.0,10766779.274638487,838977.9376733378,0.2909735492497451,17.652216017996256
157.0,11680791.265567861,933716.7300508304,0.2836229188148106,17.555015194860108
158.0,12674443.855317757,1036473.3169597171,0.27631440581152716,17.46639575313382
159.0,13748691.263626242,1146481.2625337034,0.2690540177856864,17.386123030035694
160.0,14901729.090699315,1262652.7558500571,0.2618478234111166,17.31396933853282
161.0,16128771.230066873,1383717.7999671365,0.25470192370857914,17.24971354067223
162.0,17422146.13666497,1508522.2353356108,0.2476224219766634,17.19314072700685
163.0,18772033.00583939,1636303.9785462564,0.2406153963491189,17.144041949940878
164.0,20167670.576566324,1766786.3215164088,0.23368687039502692,17.102213913998327
165.0,21598560.2746574,1900163.5809787617,0.22684277990457113,17.067458718435176
166.0,23055457.074644875,2037030.746281115,0.22008894461187914,17.0395836504951
167.0,24531060.857033253,2178278.54791923,0.2134310369446931,17.018400949075158
168.0,26020375.303657353,2324978.473475491,0.2068745533223726,17.00372759073687
169.0,27520797.147061534,2478268.549673985,0.20042478362364294,16.99538510207747
170.0,29031888.323346946,2639271.766541846,0.19408815125775294,16.993111875375625
171.0,30554971.48740694,2810011.9797430015,0.1879256072394673,16.99309747652468
172.0,32094971.720055338,2992002.8941046484,0.1819717155466636,16.99309747652468
173.0,33658473.05575836,3185909.2827817723,0.17622556524060273,16.99309747652468
174.0,35252142.5792232,3392092.5767540317,0.17068563472351034,16.99309747652468
175.0,36882259.348892644,3610573.4030268122,0.16535004440218465,16.99309747652468
176.0,38554048.081050925,3840959.5061004874,0.16021659747124384,16.99309747652468
177.0,40271512.76859783,4082408.1454970017,0.15528278045861382,16.99309747652468
178.0,42036691.4885178,4333639.044995353,0.15054581694409347,16.99309747652468
179.0,43849431.049592674,4593035.114698418,0.14600268602602237,16.99309747652468
180.0,45707185.30268707,4858810.255663043,0.14165015766603714,16.99309747652468
181.0,47605241.15146309,5129205.105469195,0.1374848206911914,16.99309747652468
182.0,49537207.68113972,5402646.447916281,0.1335031110007329,16.99309747652468
183.0,51495658.36340702,5677856.521336899,0.1297013378137886,16.99309747652468
184.0,53472893.631196216,5953908.922705377,0.12607571406628032,16.99309747652468
185.0,55461661.61020505,6230241.558876381,0.12262238235330761,16.99309747652468
186.0,57455727.3560983,6506633.933152084,0.1193374374023456,16.99309747652468
187.0,59450135.58343332,6783158.615330672,0.11621694545258329,16.99309747652468
188.0,61442017.53878495,7060204.4620644525,0.11325699105614759,16.99309747652468
189.0,63430178.882617526,7338546.067357444,0.11045366247735962,16.99309747652468
190.0,65415672.71446223,7619071.143946234,0.10780308969518095,16.99309747652468
191.0,67401881.09067237,7902667.720196633,0.10530147028238551,16.99309747652468
192.0,69393958.66750625,8190178.731222035,0.10294507519947309,16.99309747652468
193.0,71398495.23684543,8482354.82120783,0.10073026455878846,16.99309747652468
194.0,73423355.39092915,8779793.309074517,0.09865350972117422,16.99309747652468
195.0,75477210.19230816,9082898.379271647,0.09671140545299907,16.99309747652468
196.0,77569049.46493968,9391881.683664361,0.09490067494720474,16.99309747652468
197.0,79708061.08561406,9706747.866009763,0.09321818486539003,16.99309747652468
198.0,81903331.96790408,10027329.027456421,0.09166096255416929,16.99309747652468
199.0,84163378.08734292,10353365.841901954,0.09022619432366394,16.99309747652468
200.0,86496384.89205986,10684546.638336107,0.08891123314966139,16.99309747652468
201.0,88910338.34228092,11020581.877094308,0.08771361794499732,16.99309747652468
202.0,91412570.57025209,11361277.076110573,0.08663106998588696,16.99309747652468
203.0,94010402.90434365,11706556.745535284,0.08566149331295192,16.99309747652468
204.0,96711665.23089682,12056512.391819179,0.08480299329160461,16.99309747652468
205.0,99524065.2590901,12411440.729727749,0.08405387504093326,16.99309747652468
206.0,102455987.07871597,12771851.172345897,0.08341263708686568,16.99309747652468
207.0,105517242.13732794,13138498.037133155,0.08287798738717525,16.99309747652468
208.0,108718300.45561802,13512375.66179534,0.08244884581812194,16.99309747652468
209.0,112071028.90189533,13894682.809916114,0.08212433227095169,16.99309747652468
210.0,115589483.2003896,14286814.464854898,0.08190377903899182,16.99309747652468
211.0,119289098.87044872,14690350.610253202,0.0817867382106515,16.99309747652468
212.0,123187299.60366763,15107015.85828764,0.08177296335657121,16.99309747652468
213.0,127303558.96592027,15538672.575805726,0.0818624256366985,16.99309747652468
214.0,131659705.73541887,15987295.300849613,0.08205530903901863,16.99309747652468
215.0,136279759.6183985,16454960.52814581,0.08235201094666957,16.99309747652468
216.0,141190124.12305084,16943839.284417015,0.08275313956780178,16.99309747652468
217.0,146419701.30226034,17456199.961926877,0.08325951285959612,16.99309747652468
218.0,152000094.41771507,17994420.345870502,0.08387215749883073,16.99309747652468
219.0,157965784.63045803,18561009.878288675,0.08459230976786832,16.99309747652468
220.0,164354242.45420745,19158635.83138177,0.08542141150431445,16.99309747652468
221.0,171206297.9436904,19790155.313343853,0.086361106127958,16.99309747652468
222.0,178566537.116076,20458651.09675665,0.08741323433861554,16.99309747652468
223.0,186483617.66548333,21167479.719657563,0.0885798345807635,16.99309747652468
224.0,195010906.76190343,21920319.54131927,0.08986313524315845,16.99309747652468
225.0,204207039.04288554,22721224.481120553,0.09126555029406713,16.99309747652468
226.0,214136617.80078527,23574680.48054875,0.09278967337890383,16.99309747652468
227.0,224871014.81696647,24485665.599871997,0.0944382709450762,16.99309747652468
228.0,236489294.16456646,25459712.947072215,0.09621427453997441,16.99309747652468
229.0,249079254.44219974,26502978.050645526,0.09812077217245449,16.99309747652468
230.0,262738620.2929709,27622314.53091842,0.10016099923090636,16.99309747652468
231.0,277576306.00631815,28825342.785878077,0.10233832602483724,16.99309747652468
232.0,293713992.4862353,30120544.52226439,0.10465624765921475,16.99309747652468
233.0,311287749.387829,31517352.62455755,0.10711837032638358,16.99309747652468
234.0,330449928.97341985,33026255.743168592,0.1097283970095178,16.99309747652468
235.0,351371284.9833714,34658916.0441793,0.11249011187266653,16.99309747652468
236.0,374243363.2390061,36428303.056891814,0.11540736331957585,16.99309747652468
237.0,399281212.52504814,38348846.47030599,0.11848404567078262,16.99309747652468
238.0,426726426.7895501,40436612.81061742,0.12172407973928491,16.99309747652468
239.0,456850482.3315328,42709508.62965893,0.1251313926451209,16.99309747652468
240.0,489959117.07795984,45187506.18138806,0.1287098928976432,16.99309747652468
241.0,526396286.6594958,47892917.697155334,0.13246344987911854,16.99309747652468
242.0,566549439.5580709,50850697.40772688,0.13639586804022955,16.99309747652468
243.0,610855648.3226309,54088798.56994191,0.140510860119643,16.99309747652468
244.0,659808017.4699608,57638595.24856031,0.14481202170154162,16.99309747652468
245.0,713963254.718494,61535342.18227857,0.1493028032845202,16.99309747652468
246.0,773950405.1511556,65818712.824501276,0.15398648174226584,16.99309747652468
247.0,840481285.5954893,70533416.61397573,0.15886613013153444,16.99309747652468
248.0,914361829.8885605,75729944.28877743,0.1639445889181349,16.99309747652468
249.0,996504654.4655695,81465366.1250164,0.16922443778464033,16.99309747652468
250.0,1087945263.0495806,87804240.05596821,0.17470796311537876,16.99309747652468
251.0,1189859372.7363758,94819760.62844379,0.18039712900859817,16.99309747652468
252.0,1303580992.5757074,102594947.6860629,0.1862935519473944,16.99309747652468
253.0,1430628272.8364778,111224070.81663127,0.19239846724940574,16.99309747652617
254.0,1572734935.405265,120797794.99303435,0.19868809766505274,16.99421131267369
255.0,1731812832.585321,131360080.06605011,0.20506417960674903,17.00078462236428
256.0,1909869272.3831224,143006117.87193576,0.2115067731964885,17.013457746110713
257.0,2109133670.947722,155849955.41706023,0.21800858017249006,17.032284834434495
258.0,2332098773.094944,170017997.77619177,0.22456229931915095,17.057317265358048
259.0,2581541874.5833836,185650317.92298454,0.2311606681542285,17.088603679315366
