Time,J,A,S,tau
0.0,100.0,100.0,0.8214061412384371,20.0
1.0,1171.945592470326,539.6105612240689,0.8178522913860353,19.863682338873428
2.0,4268.471257451406,952.5907196477918,0.8146175705371956,19.73710414521453
3.0,9260.27279269036,1340.9590689494892,0.8116865549424319,19.62015085312206
4.0,16026.306065194685,1706.5720840227539,0.8090446596234042,19.51270508394626
5.0,24453.109008898555,2051.1353786833483,0.806678118613815,19.414648162804266
6.0,34434.19332096504,2376.2167986455247,0.8045739308477173,19.325860195291913
7.0,45869.49175521146,2683.2584095081143,0.802719809596139,19.246220143355277
8.0,58664.866271475934,2973.587245879514,0.8011041366408743,19.175605897832238
9.0,72731.66132820667,3248.4252041713876,0.7997159189932821,19.11389435058835
10.0,87986.31946104491,3508.89782166394,0.7985447497128219,19.06096146323655
11.0,104349.98686951213,3756.0426396948847,0.7975807713039849,19.016682334763495
12.0,121748.24276955191,3990.816298465207,0.7968146409226325,18.980931267983113
13.0,140110.7210935687,4214.101764124473,0.7962374999514166,18.953581831946696
14.0,159370.94988277054,4426.713759472404,0.7958409447087965,18.934506923085507
15.0,179466.05811910334,4629.404779110074,0.7956169988955891,18.923578825684253
16.0,200336.52575822716,4822.87046916904,0.7955580877249732,18.920669270305464
17.0,221926.0809011038,5007.753497513781,0.7956570164772357,18.925649486299214
18.0,244181.4042887475,5184.648767826428,0.7959069465920756,18.938390258389017
19.0,267053.40014745796,5352.7627012671455,0.7964341376870612,18.96396364618821
20.0,290852.6502318586,6125.107110797462,0.7999372021869265,19.10872521708598
21.0,319720.7369584315,8058.724492072289,0.8033679620452945,19.25369736815917
22.0,358937.8873098326,11068.803569813823,0.8067270274429776,19.39883268689589
23.0,413270.1730011842,15076.17082696907,0.8100150418837301,19.544082756497406
24.0,487001.1178192468,20006.855556462568,0.8132326793312415,19.689398160436635
25.0,583961.8587001554,25791.693783778253,0.816380641435199,19.834728487587967
26.0,707560.1897658814,32365.964941007805,0.8194596548328846,19.980022338540714
27.0,860808.0578906344,39669.06260228232,0.8224704685420101,20.12522733251101
28.0,1046348.5948171463,47644.188624706585,0.8254138514407262,20.270290115511095
29.0,1266481.1903960619,56238.07981041027,0.8282905898392527,20.415156368929466
30.0,1523186.1891359796,65400.75270819887,0.8311014851389558,20.559770819503672
31.0,1818148.672516631,75085.26842657951,0.833847351572394,20.70407725148376
32.0,2152779.7215067255,85247.53235411635,0.8365290140809738,20.848018514575354
33.0,2528239.1776107936,95846.08519699814,0.8391473061840125,20.991536542379325
34.0,2945455.9677788448,106841.9301847928,0.8417030680654345,21.134572362921226
35.0,3405146.687649944,118198.37586740775,0.8441971446396929,21.277066113551477
36.0,3907835.6923360312,129880.87663071654,0.8466303837901327,21.418957057970598
37.0,4453871.955048745,141856.89856010288,0.8490036346029103,21.560183605310822
38.0,5043446.659637567,154095.79227548625,0.8513177458008772,21.70068332568146
39.0,5676608.44876153,166568.6767038597,0.8535735641203677,21.840392973698826
40.0,6353280.115068757,179248.32380411896,0.8557719329920553,21.979248509093367
41.0,7073268.6750089,192109.09246360188,0.8579136907364048,22.11718511115298
42.0,7836239.972769709,205471.9964416558,0.8599996697842912,22.25413721488178
43.0,8645056.300539928,221724.53953459542,0.8620306953450658,22.390038534458977
44.0,9513322.606110143,243801.46755427972,0.8640075839767251,22.52482208409523
45.0,10465580.46837198,274363.8628468517,0.8659311426169143,22.6584202096266
46.0,11535815.66913529,315814.7193464239,0.8678021675450118,22.79076461847758
47.0,12766104.163593344,370314.9390646173,0.8696214434120844,22.921786411425792
48.0,14205389.419494722,439798.3976391078,0.8713897423274035,23.051416115940533
49.0,15908380.066592356,525986.2696199402,0.8731078230077914,23.179583721482388
50.0,17934564.275296405,630400.403061673,0.8747764299633496,23.306218716035186
51.0,20347330.572195657,754376.2546345997,0.8763962927660061,23.431250125394083
52.0,23213196.111236773,899074.8619892852,0.8779681253463482,23.554606553669153
53.0,26601111.65678771,1065494.3648641363,0.8794926253253611,23.676216225704607
54.0,30581867.400890887,1254480.9489500232,0.8809704734212972,23.796007032074968
55.0,35227572.096639276,1466739.1359390693,0.8824023328725541,23.913906575650675
56.0,40611206.508748375,1702841.625850654,0.8837888489102428,24.029842220514542
57.0,46806237.59214588,1963238.638897298,0.8851306482528138,24.143741142822773
58.0,53886304.13359032,2248266.766233735,0.8864283386506874,24.25553038423748
59.0,61924952.84802755,2558157.4323489266,0.887682508459796,24.365136907515694
60.0,70995420.43583724,2893044.9734087456,0.8888937262460347,24.472487654168052
61.0,81170458.95191795,3252974.1519759726,0.8900625403697504,24.577509604567883
62.0,92522229.7336946,3637907.407490042,0.8911894786923333,24.68012984126297
63.0,105122164.82039171,4047731.9330581715,0.8922750481607402,24.780275612710962
64.0,119040971.70190845,4482266.0156808365,0.8933197346429518,24.877874402111253
65.0,134348540.557198,4941265.227775739,0.8943240024256502,24.97285399755815
66.0,151113963.4081115,5424428.707013572,0.8952882941343612,25.0651425626178
67.0,169405475.35871643,5931510.0053082965,0.8962130303706292,25.15466871294721
68.0,189291472.76879236,6465150.981145457,0.8970986094141056,25.241361594201667
69.0,210854305.8103476,7034972.207328569,0.8979454071388259,25.325150961476623
70.0,234214377.78501782,7657565.905714533,0.8987537766921603,25.405967262530766
71.0,259552535.4450162,8355711.629305447,0.8995240482459652,25.483741722374972
72.0,287129646.0009447,9157641.359278467,0.9002565288129388,25.558406430792015
73.0,317303788.02317977,10096366.68412998,0.9009515020356347,25.629894432941814
74.0,350545186.04256606,11209056.82387433,0.9016092279725536,25.698139821335655
75.0,387449412.40549177,12536466.196211915,0.9022299428963821,25.76307783080405
76.0,428748972.7768231,14122409.288528092,0.9028138590864677,25.824644935473945
77.0,475323557.71030563,16013279.146319976,0.9033611646305815,25.882778947678386
78.0,528209196.5481013,18257608.4411694,0.9038720232228387,25.93741911897598
79.0,588606491.3678346,20905670.26413139,0.9043465739598107,25.988506243044128
80.0,657888143.4520438,24009116.058324125,0.9047849311371956,26.035982760355864
81.0,737605807.4976555,27620649.670974214,0.9051871840329997,26.079792864588928
82.0,829496455.2837901,31793733.916128565,0.9055533966993645,26.119882609900365
83.0,935488498.2555168,36582327.78453935,0.9058836077524101,26.15620001971436
84.0,1057707548.0898993,42040653.75331553,0.9061778301510106,26.188695196366034
85.0,1198482019.866948,48222992.057432204,0.9064360509741353,26.21732043142811
86.0,1360348617.9066348,55183500.36244605,0.906658231193926,26.24203031645683
87.0,1546057757.374861,62976057.43863237,0.9068443054450012,26.26278185383132
88.0,1758579080.0155714,71654127.60007405,0.906994181790329,26.27953456772181
89.0,2001106505.4104583,81270648.90083176,0.907107741476259,26.29225061354704
90.0,2277063961.4348783,91877935.58193716,0.9071848386919471,26.300894888112456
91.0,2590110832.045639,103527599.45662764,0.9072253003273049,26.305435137272408
92.0,2944147350.937976,116270487.78192809,0.9072289257081806,26.305842063447766
93.0,3343320054.8602657,130156609.95991062,0.9071954863559367,26.30208942902756
94.0,3792026881.0039396,145236625.93705636,0.9071247257474594,26.294154157032377
95.0,4294932591.296895,161574338.12021074,0.907016359038692,26.282016432123747
96.0,4857040725.632741,179269762.912174,0.9068700727702821,26.26565980093459
97.0,5483848828.476651,198481386.8571091,0.9066855247312626,26.24507125201336
98.0,6181587513.136537,219446842.718966,0.9064623435693494,26.220241316392986
99.0,6957541117.250221,242501234.65084994,0.9062001286332703,26.191164145301094
100.0,7820435551.123148,268093751.91300973,0.9058984497233448,26.15783758319845
101.0,8780911263.710947,296803137.2112295,0.9055568468004507,26.120263250254666
102.0,9852058175.620777,329351124.5272354,0.9051748298342986,26.07844660001796
103.0,11050021058.58472,366615100.5422467,0.9047518785410841,26.032396982024913
104.0,12394673782.355984,409639412.21655196,0.9042874421958703,25.982127693384257
105.0,13910359066.769072,459645704.60355353,0.9037809394475161,25.927656023368275
106.0,15626693147.818262,518042350.80715215,0.9032317581520388,25.86900328998833
107.0,17579433944.42125,586433072.1263188,0.9026392552257438,25.806194868228605
108.0,19811412176.28444,666624827.7694713,0.9020027565222365,25.739260209630523
109.0,22373522981.275692,760634988.5604444,0.9013215567424189,25.668232852127034
110.0,25325775027.9514,870697910.853559,0.900594919370853,25.59315042056345
111.0,28738395808.975716,999270916.4153771,0.8998220766470288,25.51405461747355
112.0,32692989303.213425,1149039703.8981843,0.899002229574745,25.430991203783428
113.0,37283741817.48543,1322923194.7347548,0.8981345479735601,25.344009969232186
114.0,42618670832.13414,1524077800.1436439,0.8972181705764903,25.25316469234543
115.0,48820910416.11956,1755901089.7121494,0.896252205178143,25.158513089854463
116.0,56030024895.3363,2022034837.8103175,0.8952357288350747,25.06011675569799
117.0,64403346898.63134,2326367293.9967647,0.8941677881319096,24.958041089167804
118.0,74117320344.0109,2673034641.1184607,0.8930473995111607,24.85235521223776
119.0,85368840378.72746,3066424419.5693603,0.891873549671379,24.743131876659962
120.0,98376610416.54092,3511219480.2484293,0.890645196041103,24.630447360773452
121.0,113382771133.2637,4012557287.4705496,0.8893612673336535,24.514381356247213
122.0,130655356478.36974,4576330615.532705,0.8880206641883865,24.395016845047447
123.0,150492217622.95038,5209625474.138945,0.8866222599041504,24.27243996697834
124.0,173227057213.15747,5921290617.463745,0.8851649012696073,24.146739878240982
125.0,199238220767.47955,6722633417.897636,0.8836474094971397,24.01800860155562
126.0,228960876508.11258,7628235284.786195,0.8820685812728839,23.886340867882843
127.0,262903173358.89114,8656881936.471073,0.8804271899177242,23.75183395078109
128.0,301666972998.5578,9832601607.21104,0.8787219866712856,23.614587493992296
129.0,345973650547.92377,11185806206.59268,0.876951702097037,23.47470333291447
130.0,396695577987.0043,12754518969.636873,0.87511504764807,23.332285310070652
131.0,454893530339.9514,14585695470.016045,0.8732107173374776,23.18743908695383
132.0,521860295787.7055,16736609693.605816,0.8712373895743998,23.04027195045292
133.0,599170912415.5239,19276301901.840862,0.8691937291506924,22.890892616934554
134.0,688739397434.2205,22287072942.14834,0.8670783893798684,22.739411033689166
135.0,792881796936.6495,25866002962.791477,0.8648900144007692,22.585938178480447
136.0,914385385001.9875,30126475389.143562,0.8626272416493616,22.430585858423953
137.0,1056583420785.0372,35199684118.34725,0.8602887044996539,22.27346650887719
138.0,1223434706709.07,41236096116.49618,0.8578730350795088,22.114692993102533
139.0,1419606998242.629,48406838343.485825,0.8553788672656388,21.954378403503778
140.0,1650562944591.346,56904978176.8456,0.8528048398597848,21.792635865125273
141.0,1922646529466.7544,66946665447.95002,0.8501495999457391,21.62957834214567
142.0,2243168843178.284,78772312010.92064,0.8474118064335807,21.46531844829459
143.0,2620492775324.916,92648685648.34694,0.8445901337873676,21.299968261713563
144.0,3064121646242.421,108873312162.35628,0.8416832759373073,21.133639144914888
145.0,3584803668324.3843,127782623049.63078,0.8386899503756152,20.966441570439972
146.0,4194670746421.919,149765208448.9042,0.8356089024365123,20.798484952641466
147.0,4907434465416.572,175281413409.136,0.8324389097490213,20.62987748623071
148.0,5738669385989.657,204890307416.30402,0.8291787868623491,20.460725992249834
149.0,6706214438847.256,239284899132.72284,0.825827390038496,20.29113577155065
150.0,7830725187593.97,279336179302.76434,0.8223836222039502,20.12121046622024
151.0,9136408739394.533,326146226682.6187,0.8188464380519126,19.951051929253868
152.0,10651970695093.668,381110353824.4084,0.8152148492897713,19.780760102568046
153.0,12411792186861.709,445987790969.93134,0.8114879300163967,19.610432903566004
154.0,14457350369707.04,522979736406.99054,0.8076648221985387,19.4401661211156
155.0,16838898447123.775,614812981310.103,0.8037447412388742,19.270053320792876
156.0,19617369334239.914,724828432279.1746,0.7997269817027338,19.100185756476538
157.0,22866470301587.73,857069756960.649,0.7956109229815497,18.930652294814358
158.0,26674972889628.695,1016371056689.6289,0.7913960351460588,18.76153934449425
159.0,31149035338474.87,1208438215168.352,0.7870818846850709,18.592930797972176
160.0,36414593552321.17,1439920997776.4731,0.7826681403700554,18.424907978512977
161.0,42619563677984.96,1718472692842.1526,0.7781545789889226,18.257549598481237
162.0,49935929998266.77,2052803345030.6833,0.7735410911134969,18.090931723584323
163.0,58561447901374.18,2452749403298.3096,0.768827686732465,17.925127746770173
164.0,68721269127305.766,2929394349447.8604,0.7640145008023115,17.760208368804946
165.0,80669423347370.73,3495291159386.1875,0.7591017986709271,17.596241586645018
166.0,94690882197268.75,4164834372652.1494,0.7540899812841398,17.43329268922821
167.0,111104399942821.58,4954840907212.504,0.7489795902796613,17.27142425906659
168.0,130267221882347.98,5885374689903.398,0.7437713127160126,17.110696181928173
169.0,152581932263320.53,6980859659050.963,0.7384659857061923,16.95116566032677
170.0,178506599209857.22,8271473521851.242,0.7330646005341542,16.792887235621826
171.0,208568215901959.7,9794833170030.814,0.7275683066895773,16.635912812054826
172.0,243380195121644.2,11597892289104.256,0.7219784152395621,16.480291689698202
173.0,283663274379785.94,13739020028659.059,0.7162964021210043,16.326070597697218
174.0,330269691803252.9,16290094785402.611,0.7105239106421805,16.17329373645176
175.0,384209171692043.6,19338541041824.3,0.7046627538883115,16.022002818761173
176.0,446675294384575.94,22989065492259.316,0.6987149162393621,15.872237119620877
177.0,519070190112439.5,27364998852204.883,0.6926825547483707,15.72403352402793
178.0,603024692036403.4,32609017988547.758,0.6865679995774597,15.577426582813583
179.0,700412328081000.1,38883346992735.32,0.6803737542196038,15.43244856593931
180.0,813353881061443.6,46369659051487.086,0.6741024947715416,15.28912952287037
181.0,944214446734678.2,55269333990579.445,0.6677570688915474,15.147497340254283
182.0,1095591952168126.2,65804881568588.85,0.6613404938448211,15.007577805472868
183.0,1270305515568906.8,78223516603018.89,0.654855954118648,14.869394667648617
184.0,1471385095485547.0,92803788606164.45,0.6483067981942954,14.73296970319034
185.0,1702076626800271.0,109865849956374.22,0.6416965347643607,14.598322779104988
186.0,1965860248241011.2,129785671589789.92,0.6350288282843188,14.465471919159212
187.0,2266498973077968.0,153012465632737.56,0.6283074936960263,14.334433369746197
188.0,2608110421586130.0,180088514043752.56,0.6215364907072828,14.205221664659172
189.0,2995259091860287.0,211669371643063.66,0.6147199173073092,14.077849691600012
190.0,3433066411916349.0,248541934734125.16,0.6078620025957958,13.952328758054806
191.0,3927321959672768.0,291637750647232.44,0.600967099118879,13.828668655573574
192.0,4484570855329975.0,342038696709221.75,0.5940396746023077,13.70687772476551
193.0,5112167880269716.0,400972573894387.1,0.587084303023419,13.586962919760277
194.0,5818275560230795.0,469798713655899.75,0.5801056552545433,13.46892987068272
195.0,6611779950966341.0,549986417470225.56,0.573108489273742,13.352782945923348
196.0,7502143006470058.0,643091479278579.9,0.5660976397835004,13.238525313929024
197.0,8499181673593335.0,750739714919219.4,0.5590780076274039,13.12615900293798
198.0,9612836501145888.0,874624835571381.9,0.5520545486739548,13.015684959801547
199.0,1.0852912692012638e+16,1016529148475890.0,0.5450322626603648,12.907103108022708
200.0,1.2228912547838818e+16,1178367583287009.8,0.5380161815551187,12.800412403911121
201.0,1.3749942309479132e+16,1362253538382362.5,0.5310113578593979,12.695610891600934
202.0,1.542469086678802e+16,1570578748351630.2,0.5240228529835868,12.59269575691983
203.0,1.7261580400502622e+16,1806089065242011.5,0.5170557252350476,12.491663379180824
204.0,1.926894810715446e+16,2071941599148522.5,0.5101150180669551,12.392509382127521
205.0,2.1455263201190948e+16,2371722632218115.0,0.5032057483556194,12.295228683155628
206.0,2.3829299720484132e+16,2709411086226283.5,0.49633289482450377,12.199815541031382
207.0,2.640019186237696e+16,3089281367726801.0,0.48950138667892645,12.106263602103303
208.0,2.917733229194402e+16,3515752827773350.0,0.48271609246238983,12.014565944983456
209.0,3.2169962031427452e+16,3993214128521099.5,0.47598180947614777,11.924715123793451
210.0,3.53867732702502e+16,4525845856733025.0,0.4693032530002925,11.836703209318614
211.0,3.88351768000639e+16,5117498627858160.0,0.4626850469328935,11.750521830826234
212.0,4.252062968577587e+16,5771640180504184.0,0.45613171282228987,11.666162244659702
213.0,4.644766409642514e+16,6488717172955005.0,0.449591237372754,11.585721588897547
214.0,5.061498007998072e+16,7264731624283734.0,0.4429494703496172,11.513470171922066
215.0,5.500966012886844e+16,8099655609884152.0,0.43620314202438487,11.449436039209067
216.0,5.9614652386314456e+16,8993607715205120.0,0.4293564502717956,11.393393509269826
217.0,6.441000714956008e+16,9946633015407366.0,0.4224142038676581,11.345122611304596
218.0,6.937344896401689e+16,1.0958700200203152e+16,0.41538181158293846,11.30440890495317
219.0,7.448108907609805e+16,1.2029579088211798e+16,0.40826526568974725,11.271043304013567
220.0,7.970805087407178e+16,1.3158621635649166e+16,0.4010711201826726,11.244821903829193
221.0,8.502882822537773e+16,1.4344495414070898e+16,0.39380646442936107,11.225545815662437
222.0,9.041740989363674e+16,1.558493112557451e+16,0.386478891310308,11.213020999457207
223.0,9.584735791919606e+16,1.6876468406892134e+16,0.37909579727279097,11.207080880358054
224.0,1.0128877669283478e+17,1.8217902671678172e+16,0.3716967939605168,11.206472957311577
225.0,1.0670976760912282e+17,1.9617851848907056e+16,0.36442365121642406,11.206472706145279
226.0,1.1209656869833563e+17,2.107069469751446e+16,0.357298735821412,11.206472706145279
227.0,1.1743323854457232e+17,2.256813640850616e+16,0.350326429424231,11.206472706145279
228.0,1.2270020988594574e+17,2.4101482538624536e+16,0.3435107757426597,11.206472706145279
229.0,1.2787526255862547e+17,2.5661926076117776e+16,0.33685548769549584,11.206472706145279
230.0,1.3293458155580637e+17,2.7240772978700452e+16,0.3303639496526156,11.206472706145279
231.0,1.3785389438940667e+17,2.882957325261007e+16,0.3240392207040443,11.206472706145279
232.0,1.426094853520629e+17,3.042015089244543e+16,0.31788404150464467,11.206472706145279
233.0,1.4717910640460202e+17,3.2004565803551324e+16,0.31190084004990176,11.206472706145279
234.0,1.5154265235321446e+17,3.3575021960417852e+16,0.3060917400337481,11.206472706145279
235.0,1.5568253247966016e+17,3.5123839401612596e+16,0.30045857255895336,11.206472706145279
236.0,1.595823270764092e+17,3.664559535455329e+16,0.29500288622690407,11.206472706145279
237.0,1.6322832786755747e+17,3.813731398227418e+16,0.2897259560378179,11.206472706145279
238.0,1.6661427353429e+17,3.959477351428344e+16,0.28462881061355155,11.206472706145279
239.0,1.6973791016891043e+17,4.1012992943637976e+16,0.27971222444037214,11.206472706145279
240.0,1.7259989444481472e+17,4.238657959771741e+16,0.2749767517960659,11.206472706145279
241.0,1.7520414346089872e+17,4.3709892062950536e+16,0.27042273937189726,11.206472706145279
242.0,1.7755663496825872e+17,4.497752963361368e+16,0.2660503305834457,11.206472706145279
243.0,1.7966384107797888e+17,4.618471860604784e+16,0.2618594932662987,11.206472706145279
244.0,1.8153379383223923e+17,4.732728430450291e+16,0.25785003828528663,11.206472706145279
245.0,1.831770926155942e+17,4.8401677530030504e+16,0.25402162768812336,11.206472706145279
