Time,J,A,S,tau
0,100,100,0.968370372,8.547008547
1,366.9589643,182.4714107,0.969670961,7.911382279
2,839.7055717,262.8640662,0.971001951,7.261868923
3,1514.105911,341.2033027,0.972363491,6.598476447
4,2385.490938,417.5166106,0.973755752,5.921203293
5,3448.688473,491.8321543,0.975178899,5.230052333
6,4691.014261,785.4147101,0.975452283,5.097971257
7,6762.58338,1304.600589,0.975541886,5.05524666
8,10204.25314,2017.70057,0.975630171,5.013269707
9,15499.40055,2912.757048,0.975717144,4.972035189
10,23094.43665,3977.521233,0.975802812,4.931537969
11,33324.37577,5473.901843,0.975887181,4.89177297
12,47471.3425,8089.730371,0.975970256,4.852735176
13,68465.76812,12331.6733,0.976052042,4.814419625
14,100441.6597,18646.53129,0.976132542,4.776821406
15,148546.739,27421.92111,0.976211761,4.739935658
16,218611.4168,39463.67745,0.976289702,4.703757562
17,318613.7976,57275.34594,0.976366367,4.668282345
18,462898.6202,84757.53636,0.976441759,4.633505274
19,675204.5859,126860.2364,0.976515879,4.599421657
20,990738.5495,189337.1282,0.97658873,4.566026838
21,1457199.746,279740.3399,0.976660313,4.533316202
22,2138920.077,411578.2478,0.976730628,4.50128517
23,3131060.685,607878.1365,0.976799677,4.469929199
24,4580808.725,903316.5497,0.976867461,4.439243784
25,6711793.022,1345513.366,0.976933979,4.409224458
26,9848721.561,1999622.263,0.976999232,4.379866792
27,14451448.5,2963330.748,0.97706322,4.351166396
28,21181819.91,4389577.338,0.977125943,4.323118918
29,31016485.16,6512134.693,0.977187401,4.29572005
30,45406527.1,9672356.348,0.977247594,4.268965523
31,66479454.25,14359546.83,0.97730652,4.242851115
32,97310190.36,21289507.35,0.977364181,4.217372646
33,142337253.8,31533275.87,0.977420574,4.192525984
34,208014903.3,46694423.09,0.9774757,4.168307047
35,303773703.8,69136302.74,0.977529558,4.144711801
36,443351827.1,102303772.9,0.977582147,4.121736265
37,646643970.1,151230116.4,0.977633467,4.099376513
38,942381213.1,223322809.9,0.977683516,4.077628675
39,1372100030,329499207.8,0.977732295,4.056488937
40,1995926885,485766178.5,0.977779802,4.035953546
41,2900806132,715473184.1,0.977826036,4.016018811
42,4212140377,1052646660,0.977870998,3.996681106
43,6110462951,1546936259,0.977914686,3.977936869
44,8855529025,2270776528,0.9779571,3.959782606
45,12820983813,3329598028,0.977998238,3.942214894
46,18543832249,4876466228,0.978038101,3.925230379
47,26794779527,7133303672,0.978076688,3.908825784
48,38678591526,10421688152,0.978113998,3.892997903
49,55777614957,15207169104,0.978150031,3.877743609
50,80356763285,22162695135,0.978184787,3.863059854
51,1.15655E+11,32259449666,0.978218264,3.848943669
52,1.66303E+11,46897297258,0.978250463,3.835392168
53,2.38908E+11,68092043971,0.978281383,3.822402545
54,3.42901E+11,98743360857,0.978311023,3.809972084
55,4.91731E+11,1.43017E+11,0.978339385,3.798098149
56,7.04564E+11,2.06893E+11,0.978366467,3.786778196
57,1.0087E+12,2.98943E+11,0.97839227,3.776009768
58,1.44302E+12,4.31443E+11,0.978416793,3.765790497
59,2.06283E+12,6.21965E+11,0.978440036,3.756118105
60,2.94686E+12,8.9563E+11,0.978461999,3.746990409
61,4.20705E+12,1.28833E+12,0.978482683,3.738405317
62,6.00261E+12,1.85129E+12,0.978502088,3.730360829
63,8.55991E+12,2.65762E+12,0.978520213,3.722855042
64,1.22008E+13,3.81152E+12,0.97853706,3.715886147
65,1.73828E+13,5.46147E+12,0.978552627,3.70945243
66,2.47565E+13,7.81897E+12,0.978566917,3.703552275
67,3.5247E+13,1.11851E+13,0.978579928,3.698184162
68,5.01701E+13,1.59883E+13,0.978591662,3.693346669
69,7.13977E+13,2.28381E+13,0.978602119,3.68903847
70,1.01593E+14,3.26017E+13,0.9786113,3.685258338
71,1.4455E+14,4.6512E+13,0.978619205,3.682005144
72,2.05667E+14,6.63225E+13,0.978625835,3.679277857
73,2.92643E+14,9.45266E+13,0.978631191,3.677075546
74,4.16451E+14,1.3467E+14,0.978635273,3.675397375
75,5.92748E+14,1.91795E+14,0.978638083,3.674242608
76,8.43884E+14,2.73076E+14,0.978639621,3.673610608
77,1.20179E+15,3.88717E+14,0.978639888,3.673500833
78,1.71214E+15,5.53242E+14,0.978638886,3.673912842
79,2.44026E+15,7.87328E+14,0.978636614,3.674846287
80,3.47975E+15,1.12043E+15,0.978633075,3.676300921
81,4.96478E+15,1.5945E+15,0.97862827,3.678276588
82,7.08789E+15,2.26937E+15,0.9786222,3.680773233
83,1.01E+16,3.23037E+15,0.978614866,3.683790892
84,1.45E+16,4.59931E+15,0.978606269,3.687329696
85,2.07E+16,6.55013E+15,0.978596411,3.691389869
86,2.97E+16,9.33147E+15,0.978585294,3.695971729
87,4.25E+16,1.33E+16,0.978572918,3.701075684
88,6.10E+16,1.90E+16,0.978559286,3.706702233
89,8.75E+16,2.70E+16,0.9785444,3.712851964
90,1.26E+17,3.86E+16,0.97852826,3.719525553
91,1.81E+17,5.51E+16,0.978510868,3.726723764
92,2.61E+17,7.88E+16,0.978492228,3.734447447
93,3.76E+17,1.13E+17,0.978472339,3.742697535
94,5.43E+17,1.61E+17,0.978451205,3.751475044
95,7.84E+17,2.31E+17,0.978428826,3.760781074
96,1.13E+18,3.31E+17,0.978405207,3.770616802
97,1.64E+18,4.75E+17,0.978380347,3.780983485
98,2.38E+18,6.81E+17,0.97835425,3.791882457
99,3.46E+18,9.79E+17,0.978326918,3.803315127
100,5.03E+18,1.41E+18,0.978298353,3.815282976
101,7.32E+18,2.03E+18,0.978268558,3.827787557
102,1.07E+19,2.92E+18,0.978237534,3.840830495
103,1.56E+19,4.21E+18,0.978205284,3.85441348
104,2.27E+19,6.08E+18,0.978171812,3.868538267
105,3.33E+19,8.78E+18,0.978137118,3.883206678
106,4.87E+19,1.27E+19,0.978101207,3.898420594
107,7.14E+19,1.84E+19,0.97806408,3.914181956
108,1.05E+20,2.66E+19,0.978025741,3.930492762
109,1.54E+20,3.86E+19,0.977986192,3.947355068
110,2.26E+20,5.60E+19,0.977945435,3.964770979
111,3.33E+20,8.14E+19,0.977903475,3.982742652
112,4.91E+20,1.18E+20,0.977860313,4.001272295
113,7.24E+20,1.72E+20,0.977815953,4.020362158
114,1.07E+21,2.51E+20,0.977770397,4.040014539
115,1.58E+21,3.65E+20,0.977723649,4.060231774
116,2.33E+21,5.33E+20,0.977675711,4.081016241
117,3.45E+21,7.77E+20,0.977626587,4.102370353
118,5.10E+21,1.13E+21,0.977576279,4.12429656
119,7.55E+21,1.66E+21,0.977524791,4.146797343
120,1.12E+22,2.42E+21,0.977472126,4.169875213
121,1.65E+22,3.54E+21,0.977418286,4.19353271
122,2.45E+22,5.18E+21,0.977363275,4.2177724
123,3.63E+22,7.57E+21,0.977307095,4.242596873
124,5.38E+22,1.11E+22,0.97724975,4.268008739
125,7.97E+22,1.62E+22,0.977191242,4.294010631
126,1.18E+23,2.37E+22,0.977131574,4.320605197
127,1.75E+23,3.47E+22,0.977070749,4.347795105
128,2.59E+23,5.07E+22,0.97700877,4.375583034
129,3.83E+23,7.42E+22,0.976945639,4.403971679
130,5.66E+23,1.08E+23,0.976881359,4.432963745
131,8.36E+23,1.59E+23,0.976815932,4.462561948
132,1.23E+24,2.32E+23,0.97674936,4.492769015
133,1.82E+24,3.38E+23,0.976681645,4.523587679
134,2.68E+24,4.93E+23,0.97661279,4.555020683
135,3.94E+24,7.19E+23,0.976542796,4.587070776
136,5.79E+24,1.05E+24,0.976471664,4.619740714
137,8.49E+24,1.52E+24,0.976399395,4.653033261
138,1.24E+25,2.21E+24,0.976325992,4.686951187
139,1.82E+25,3.21E+24,0.976251453,4.72149727
140,2.65E+25,4.65E+24,0.976175781,4.756674294
141,3.87E+25,6.72E+24,0.976098975,4.792485054
142,5.62E+25,9.71E+24,0.976021034,4.828932355
143,8.14E+25,1.40E+25,0.975941958,4.866019011
144,1.18E+26,2.02E+25,0.975861747,4.903747853
145,1.70E+26,2.90E+25,0.975780398,4.942121723
146,2.45E+26,4.15E+25,0.97569791,4.981143483
147,3.51E+26,5.94E+25,0.97561428,5.020816015
148,5.03E+26,8.49E+25,0.975529506,5.061142222
149,7.18E+26,1.21E+26,0.975443584,5.102125035
150,1.02E+27,1.72E+26,0.975356509,5.143767414
151,1.45E+27,2.43E+26,0.975268279,5.186072351
152,2.05E+27,3.44E+26,0.975178886,5.229042877
153,2.88E+27,4.85E+26,0.975088326,5.272682062
154,4.05E+27,6.82E+26,0.974996591,5.316993025
155,5.66E+27,9.55E+26,0.974903674,5.361978933
156,7.89E+27,1.33E+27,0.974809567,5.407643009
157,1.10E+28,1.86E+27,0.974714262,5.453988533
158,1.51E+28,2.58E+27,0.974617747,5.501018855
159,2.09E+28,3.57E+27,0.974520013,5.548737389
160,2.86E+28,4.93E+27,0.974421049,5.597147628
161,3.91E+28,6.77E+27,0.97432084,5.646253139
162,5.32E+28,9.27E+27,0.974219375,5.696057578
163,7.21E+28,1.27E+28,0.974116639,5.746564683
164,9.72E+28,1.72E+28,0.974012616,5.797778288
165,1.30E+29,2.33E+28,0.97390729,5.849702317
166,1.74E+29,3.14E+28,0.973800645,5.902340795
167,2.32E+29,4.23E+28,0.97369266,5.955697844
168,3.07E+29,5.66E+28,0.973583318,6.009777687
169,4.05E+29,7.55E+28,0.973472597,6.064584647
170,5.32E+29,1.00E+29,0.973360476,6.120123144
171,6.95E+29,1.33E+29,0.973246933,6.176397698
172,9.03E+29,1.75E+29,0.973131945,6.233412919
173,1.17E+30,2.29E+29,0.973015486,6.291173505
174,1.50E+30,2.99E+29,0.972897532,6.349684235
175,1.93E+30,3.89E+29,0.972778056,6.408949956
176,2.46E+30,5.04E+29,0.972657031,6.468975575
177,3.12E+30,6.50E+29,0.972534429,6.529766042
178,3.93E+30,8.35E+29,0.972410222,6.591326337
179,4.94E+30,1.07E+30,0.97228438,6.653661444
180,6.18E+30,1.36E+30,0.972156873,6.716776335
181,7.69E+30,1.72E+30,0.972027672,6.780675941
182,9.52E+30,2.18E+30,0.971896745,6.84536512
183,1.17E+31,2.74E+30,0.971764061,6.910848628
184,1.44E+31,3.42E+30,0.97162959,6.977131078
185,1.76E+31,4.26E+30,0.9714933,7.044216901
186,2.13E+31,5.29E+30,0.971355161,7.112110298
187,2.58E+31,6.53E+30,0.971215141,7.180815193
188,3.10E+31,8.04E+30,0.971073212,7.250335175
189,3.72E+31,9.84E+30,0.970929344,7.320673438
190,4.43E+31,1.20E+31,0.970783508,7.391832719
191,5.26E+31,1.46E+31,0.970635679,7.463815228
192,6.21E+31,1.76E+31,0.97048583,7.536622569
193,7.30E+31,2.12E+31,0.970333938,7.610255667
194,8.55E+31,2.54E+31,0.97017998,7.684714677
195,9.96E+31,3.04E+31,0.970023937,7.759998899
196,1.16E+32,3.61E+31,0.969865793,7.836106679
197,1.34E+32,4.28E+31,0.969705532,7.913035312
198,1.54E+32,5.05E+31,0.969543144,7.990780938
199,1.76E+32,5.94E+31,0.969378621,8.069338431
200,2.01E+32,6.95E+31,0.96921196,8.148701291
201,2.29E+32,8.11E+31,0.96904316,8.22886152
202,2.59E+32,9.42E+31,0.968872227,8.30980951
203,2.92E+32,1.09E+32,0.96869917,8.391533914
204,3.29E+32,1.26E+32,0.968524005,8.474021521
205,3.68E+32,1.45E+32,0.968346751,8.557257136
206,4.11E+32,1.66E+32,0.968167435,8.641223439
207,4.57E+32,1.89E+32,0.96798609,8.725900863
208,5.07E+32,2.15E+32,0.967802755,8.811267467
209,5.60E+32,2.44E+32,0.967617476,8.897298793
210,6.16E+32,2.76E+32,0.967430307,8.983967757
211,6.76E+32,3.10E+32,0.967241308,9.071244503
212,7.40E+32,3.48E+32,0.967050548,9.159096298
213,8.08E+32,3.90E+32,0.966858105,9.247487405
214,8.79E+32,4.35E+32,0.966664063,9.336378961
215,9.53E+32,4.84E+32,0.966468518,9.425728879
216,1.03E+33,5.37E+32,0.966271573,9.515491745
217,1.11E+33,5.95E+32,0.966073339,9.605618715
218,1.20E+33,6.56E+32,0.965873939,9.696057441
219,1.29E+33,7.22E+32,0.965673503,9.786751972
220,1.38E+33,7.93E+32,0.965472173,9.877642717
221,1.48E+33,8.68E+32,0.965270099,9.968666353
222,1.57E+33,9.48E+32,0.965067442,10.05975579
223,1.68E+33,1.03E+33,0.964864371,10.15084019
224,1.78E+33,1.12E+33,0.964661066,10.24184491
225,1.89E+33,1.22E+33,0.964457718,10.33269144
226,2.00E+33,1.32E+33,0.964254526,10.42329741
227,2.11E+33,1.43E+33,0.964051697,10.51357697
228,2.23E+33,1.54E+33,0.963849452,10.60344015
229,2.35E+33,1.65E+33,0.963648018,10.69279358
230,2.47E+33,1.78E+33,0.96344763,10.78154026
231,2.59E+33,1.90E+33,0.963248534,10.86957954
232,2.72E+33,2.04E+33,0.963050982,10.95680772
233,2.85E+33,2.18E+33,0.962855238,11.04311751
234,2.99E+33,2.32E+33,0.962661567,11.12839873
235,3.12E+33,2.47E+33,0.962470247,11.21253851
236,3.26E+33,2.63E+33,0.96228156,11.29542055
237,3.40E+33,2.79E+33,0.962095792,11.37692727
238,3.55E+33,2.96E+33,0.961913238,11.45693752
239,3.70E+33,3.14E+33,0.961734194,11.53532923
240,3.85E+33,3.32E+33,0.961558962,11.61197811
241,4.01E+33,3.50E+33,0.961387846,11.68675873
242,4.17E+33,3.70E+33,0.961221153,11.75954442
243,4.33E+33,3.89E+33,0.96105919,11.830208
244,4.50E+33,4.10E+33,0.960902266,11.89862182
245,4.68E+33,4.31E+33,0.96075069,11.96465835
246,4.86E+33,4.53E+33,0.960604766,12.02819053
247,5.05E+33,4.76E+33,0.960464799,12.08909225
248,5.24E+33,4.99E+33,0.960331089,12.14723859
249,5.44E+33,5.23E+33,0.960203933,12.20250666
250,5.64E+33,5.48E+33,0.960083618,12.2547757
251,5.86E+33,5.74E+33,0.959970428,12.30392772
252,6.08E+33,6.00E+33,0.959864638,12.34984823
253,6.32E+33,6.27E+33,0.959766513,12.39242619
254,6.56E+33,6.56E+33,0.959676306,12.4315551
255,6.82E+33,6.85E+33,0.959594261,12.46713332
256,7.09E+33,7.15E+33,0.959520607,12.49906442
257,7.37E+33,7.46E+33,0.95945556,12.52725781
258,7.66E+33,7.78E+33,0.959399319,12.5516295
259,7.98E+33,8.11E+33,0.959352068,12.57210228
260,8.30E+33,8.46E+33,0.959313972,12.58860617
261,8.65E+33,8.82E+33,0.959285177,12.60107921
262,9.02E+33,9.19E+33,0.95926581,12.60946769
263,9.41E+33,9.58E+33,0.959255977,12.61372659
264,9.83E+33,9.98E+33,0.959255762,12.61381997
265,1.03E+34,1.04E+34,0.959265225,12.60972133
266,1.07E+34,1.08E+34,0.959284404,12.60141391
267,1.13E+34,1.13E+34,0.959313314,12.58889098
268,1.18E+34,1.18E+34,0.959351944,12.57215608
269,1.24E+34,1.23E+34,0.959400257,12.55122309
270,1.30E+34,1.28E+34,0.959458194,12.52611626
271,1.37E+34,1.34E+34,0.959525669,12.49687045
272,1.44E+34,1.39E+34,0.959602569,12.46353097
273,1.52E+34,1.46E+34,0.95968876,12.42615351
274,1.60E+34,1.52E+34,0.959784081,12.38480396
275,1.69E+34,1.59E+34,0.959888347,12.33955822
276,1.79E+34,1.66E+34,0.960001351,12.29050186
277,1.90E+34,1.74E+34,0.960122861,12.23772977
278,2.01E+34,1.82E+34,0.960252626,12.18134575
279,2.14E+34,1.91E+34,0.960390373,12.121462
280,2.28E+34,2.00E+34,0.96053581,12.05819855
281,2.43E+34,2.10E+34,0.96068863,11.99168271
282,2.60E+34,2.21E+34,0.960848506,11.92204838
283,2.78E+34,2.32E+34,0.961015099,11.84943538
284,2.98E+34,2.44E+34,0.961188056,11.77398872
285,3.20E+34,2.57E+34,0.961367014,11.69585786
286,3.44E+34,2.72E+34,0.961551602,11.61519592
287,3.71E+34,2.87E+34,0.961741438,11.5321589
288,4.01E+34,3.04E+34,0.961936139,11.44690492
289,4.35E+34,3.22E+34,0.962135316,11.35959339
290,4.72E+34,3.42E+34,0.96233858,11.27038428
291,5.13E+34,3.64E+34,0.962545541,11.17943736
292,5.59E+34,3.87E+34,0.962755814,11.08691142
293,6.11E+34,4.13E+34,0.962969015,10.99296367
294,6.69E+34,4.42E+34,0.963184766,10.89774899
295,7.34E+34,4.74E+34,0.963402699,10.80141937
296,8.08E+34,5.08E+34,0.963622451,10.70412333
297,8.92E+34,5.47E+34,0.963843672,10.60600537
298,9.86E+34,5.90E+34,0.964066022,10.50720557
299,1.09E+35,6.37E+34,0.964289172,10.40785912
300,1.22E+35,6.90E+34,0.964512808,10.30809599
301,1.36E+35,7.50E+34,0.96473663,10.20804063
302,1.52E+35,8.16E+34,0.964960351,10.10781173
303,1.70E+35,8.91E+34,0.965183702,10.00752204
304,1.92E+35,9.76E+34,0.965406428,9.907278207
305,2.16E+35,1.07E+35,0.965628289,9.80718072
306,2.45E+35,1.18E+35,0.965849062,9.707323856
307,2.78E+35,1.30E+35,0.966068542,9.607795691
308,3.17E+35,1.45E+35,0.966286536,9.508678151
309,3.63E+35,1.61E+35,0.966502871,9.410047093
310,4.16E+35,1.79E+35,0.966717387,9.311972429
311,4.79E+35,2.01E+35,0.966929941,9.214518273
312,5.54E+35,2.25E+35,0.967140402,9.117743119
313,6.42E+35,2.54E+35,0.967348657,9.021700039
314,7.47E+35,2.88E+35,0.967554604,8.926436897
315,8.73E+35,3.27E+35,0.967758156,8.831996581
316,1.02E+36,3.73E+35,0.967959238,8.738417253
317,1.20E+36,4.27E+35,0.968157788,8.645732594
318,1.42E+36,4.91E+35,0.968353753,8.553972066
319,1.69E+36,5.67E+35,0.968547092,8.463161171
320,2.01E+36,6.57E+35,0.968737774,8.373321715
321,2.40E+36,7.65E+35,0.968925778,8.284472064
322,2.89E+36,8.95E+35,0.969111091,8.196627405
323,3.48E+36,1.05E+36,0.969293706,8.10979999
324,4.21E+36,1.24E+36,0.969473626,8.023999386
325,5.12E+36,1.47E+36,0.969650858,7.939232706
326,6.25E+36,1.75E+36,0.969825418,7.855504838
327,7.66E+36,2.09E+36,0.969997324,7.772818658
328,9.43E+36,2.52E+36,0.970166601,7.691175241
329,1.17E+37,3.04E+36,0.970333277,7.610574048
330,1.45E+37,3.69E+36,0.970497384,7.531013115
331,1.81E+37,4.49E+36,0.970658958,7.452489223
332,2.26E+37,5.50E+36,0.970818034,7.374998053
333,2.84E+37,6.78E+36,0.970974654,7.29853434
334,3.59E+37,8.38E+36,0.971128859,7.223092008
335,4.56E+37,1.04E+37,0.971280692,7.148664292
336,5.81E+37,1.30E+37,0.971430196,7.075243858
337,7.44E+37,1.64E+37,0.971577417,7.002822902
338,9.57E+37,2.06E+37,0.971722399,6.931393247
339,1.24E+38,2.62E+37,0.971865187,6.860946427
340,1.60E+38,3.33E+37,0.972005826,6.791473763
341,2.09E+38,4.27E+37,0.972144361,6.722966429
342,2.73E+38,5.50E+37,0.972280837,6.655415513
343,3.59E+38,7.11E+37,0.972415295,6.588812063
344,4.73E+38,9.24E+37,0.972547779,6.523147142
345,6.27E+38,1.21E+38,0.972678331,6.458411854
346,8.34E+38,1.58E+38,0.97280699,6.394597387
347,1.11E+39,2.09E+38,0.972933796,6.331695034
348,1.49E+39,2.77E+38,0.973058786,6.269696215
349,2.01E+39,3.68E+38,0.973181998,6.208592499
350,2.72E+39,4.92E+38,0.973303466,6.148375615
351,3.69E+39,6.61E+38,0.973423223,6.089037462
352,5.03E+39,8.93E+38,0.973541303,6.030570116
353,6.87E+39,1.21E+39,0.973657736,5.972965838
354,9.43E+39,1.65E+39,0.973772552,5.916217071
355,1.30E+40,2.25E+39,0.973885777,5.860316442
356,1.79E+40,3.09E+39,0.973997439,5.805256762
357,2.49E+40,4.27E+39,0.974107562,5.75103102
358,3.46E+40,5.91E+39,0.974216171,5.69763238
359,4.83E+40,8.21E+39,0.974323286,5.645054176
360,6.77E+40,1.15E+40,0.97442893,5.593289901
361,9.51E+40,1.60E+40,0.974533121,5.542333208
362,1.34E+41,2.26E+40,0.974635877,5.492177896
363,1.89E+41,3.18E+40,0.974737217,5.442817904
364,2.68E+41,4.51E+40,0.974837154,5.394247305
365,3.81E+41,6.40E+40,0.974935705,5.346460296
366,5.43E+41,9.13E+40,0.975032883,5.29945119
367,7.75E+41,1.30E+41,0.9751287,5.25321441
368,1.11E+42,1.87E+41,0.975223168,5.20774448
369,1.59E+42,2.69E+41,0.975316297,5.163036019
370,2.29E+42,3.88E+41,0.975408097,5.119083732
371,3.29E+42,5.61E+41,0.975498578,5.075882405
372,4.75E+42,8.14E+41,0.975587746,5.033426901
373,6.87E+42,1.18E+42,0.97567561,4.991712147
374,9.95E+42,1.72E+42,0.975762176,4.950733138
375,1.44E+43,2.51E+42,0.97584745,4.910484925
376,2.10E+43,3.67E+42,0.975931437,4.870962613
377,3.05E+43,5.38E+42,0.976014142,4.832161359
378,4.44E+43,7.90E+42,0.976095569,4.794076365
379,6.48E+43,1.16E+43,0.976175722,4.756702876
380,9.46E+43,1.71E+43,0.976254604,4.720036179
381,1.38E+44,2.52E+43,0.976332218,4.684071599
382,2.02E+44,3.72E+43,0.976408565,4.648804498
383,2.95E+44,5.50E+43,0.976483649,4.614230272
384,4.33E+44,8.13E+43,0.976557471,4.58034435
385,6.34E+44,1.20E+44,0.976630031,4.547142198
386,9.28E+44,1.78E+44,0.976701332,4.51461931
387,1.36E+45,2.64E+44,0.976771374,4.482771214
388,1.99E+45,3.92E+44,0.976840158,4.451593473
389,2.92E+45,5.82E+44,0.976907683,4.421081678
390,4.29E+45,8.63E+44,0.97697395,4.391231458
391,6.28E+45,1.28E+45,0.97703896,4.362038472
392,9.21E+45,1.90E+45,0.977102712,4.333498418
393,1.35E+46,2.82E+45,0.977165205,4.305607026
394,1.98E+46,4.19E+45,0.97722644,4.278360067
395,2.89E+46,6.22E+45,0.977286416,4.251753351
396,4.23E+46,9.22E+45,0.977345132,4.225782725
397,6.19E+46,1.37E+46,0.977402588,4.200444082
398,9.05E+46,2.02E+46,0.977458783,4.175733358
399,1.32E+47,3.00E+46,0.977513716,4.151646534
400,1.93E+47,4.44E+46,0.977567387,4.128179639
401,2.81E+47,6.56E+46,0.977619794,4.105328754
402,4.10E+47,9.69E+46,0.977670938,4.083090008
403,5.97E+47,1.43E+47,0.977720817,4.061459587
404,8.69E+47,2.11E+47,0.97776943,4.040433731
405,1.26E+48,3.11E+47,0.977816776,4.02000874
406,1.83E+48,4.57E+47,0.977862855,4.000180971
407,2.66E+48,6.72E+47,0.977907666,3.980946845
408,3.86E+48,9.87E+47,0.977951209,3.962302847
409,5.58E+48,1.45E+48,0.977993481,3.944245528
410,8.07E+48,2.12E+48,0.978034484,3.926771505
411,1.17E+49,3.10E+48,0.978074215,3.909877468
412,1.68E+49,4.54E+48,0.978112675,3.893560176
413,2.43E+49,6.62E+48,0.978149862,3.877816463
414,3.50E+49,9.65E+48,0.978185777,3.862643239
415,5.03E+49,1.40E+49,0.978220418,3.84803749
416,7.23E+49,2.04E+49,0.978253786,3.833996281
417,1.04E+50,2.96E+49,0.978285879,3.820516757
418,1.49E+50,4.30E+49,0.978316698,3.807596146
