Time,J,A,S,tau
0.0,100.0,100.0,0.8896908046653464,16.461541085548937
1.0,402.53066409855785,236.8478959283629,0.8742656700581962,15.91826473310377
2.0,1048.6532545220762,369.4812687677668,0.8579590622279203,15.349837690858532
3.0,2010.4400941846945,497.69881947966485,0.8407718327639374,14.755997514687396
4.0,3256.0665813949336,621.3039161695367,0.8227093913649921,14.136471710676227
5.0,4750.339771206842,740.102503719013,0.8037826353301083,13.49099487492748
6.0,6455.3006050476615,853.9044890484853,0.7840083395016051,12.819309156795411
7.0,8330.882773678595,962.5252363107652,0.7634095107239312,12.121164724806299
8.0,10335.614471065757,1065.7871688403407,0.7420156957545014,11.396320235961875
9.0,12427.346677748486,1163.5214593298308,0.7198632279583864,10.644543302594398
10.0,14557.047444716365,1263.1590912241772,0.6980301248466867,9.912300559071106
11.0,16692.080688621267,1631.0442927358995,0.6885535106941183,9.745124703986837
12.0,19433.551860119005,2301.713004708715,0.6789366425296123,9.582199673822734
13.0,23294.076347798426,3234.164412416695,0.6691876797449836,9.42344377463978
14.0,28606.480148790226,4386.078052743672,0.6593152941594956,9.268775763861377
15.0,35535.68288673805,5714.757283724465,0.6493286491054285,9.11811495671043
16.0,44095.918810643234,7178.02349397585,0.6392373751232605,8.971381327597971
17.0,54172.09455365363,8735.035878126198,0.6290515419971807,8.828495604741532
18.0,65543.8203841184,10347.01717303066,0.6187816278849848,8.689379359862858
19.0,77889.26785241388,12006.151689443832,0.608438484985429,8.553955088857677
20.0,90756.43360588358,14096.832014317082,0.5980333015092792,8.422146282234596
21.0,104319.82616881063,17098.689011625986,0.5875775623256797,8.293877495081114
22.0,119311.77810350001,21290.662290689463,0.5770830064374847,8.169074406748631
23.0,136593.043156291,26783.085460949114,0.5665615824912306,8.047663874454086
24.0,156865.39008415202,33548.84271214458,0.5560254020176008,7.929573978415726
25.0,180501.91601320266,41455.23852613696,0.5454866922135505,7.814734065654842
26.0,207495.33349387735,50271.117664343954,0.5348729452731511,7.705400449046638
27.0,237431.34866723052,59644.957340555964,0.5238004481977528,7.611847701778371
28.0,269236.39077162463,69632.44543637658,0.5122120137874101,7.53478540554116
29.0,301767.7594447222,80703.13453588054,0.5001059189480863,7.473536666136785
30.0,334327.8574418839,93357.95005196508,0.4874859344330331,7.427460624928288
31.0,366661.0213706648,107915.03697951633,0.4743616429823095,7.395949950741165
32.0,398737.9823286522,124430.86673819869,0.4607486960246167,7.378428623593583
33.0,430520.97908118676,142713.54744823274,0.44668206026618545,7.374037464409165
34.0,461676.5324402259,162575.7517856723,0.4325375551963945,7.374044583548347
35.0,491845.05523089285,183635.99826354114,0.41852284902218745,7.374044583548347
36.0,520436.46694474225,205492.49734835527,0.40466195619002227,7.374044583548347
37.0,546622.4160458895,227944.03432409503,0.39097840609070794,7.374044583548347
38.0,569585.9476334868,250923.377841062,0.3774947950392806,7.374044583548347
39.0,588697.4321300663,274382.26293558686,0.36423264727634963,7.374044583548347
40.0,603577.8953476979,298200.25655472145,0.3512122875251179,7.374044583548347
41.0,614072.8749800724,322149.7954947747,0.3384527335853718,7.374044583548347
42.0,620172.443396697,345936.3713920903,0.3259715859778709,7.374044583548347
43.0,621993.3103755015,369194.31077284325,0.31378495814682295,7.374044583548347
44.0,619721.5040888769,391535.2130060055,0.30190740042281844,7.374044583548347
45.0,613565.9303006759,412612.72320096014,0.2903518567341151,7.374044583548347
46.0,603760.3061384253,432148.88277944864,0.27912963648524075,7.374044583548347
47.0,590583.7204741485,449931.4461744693,0.2682503954000037,7.374044583548347
48.0,574374.7120292437,465798.06247447536,0.25772215101611123,7.374044583548347
49.0,555528.7339422561,479623.4461635668,0.2475512955569544,7.374044583548347
50.0,534481.7654758458,491314.4855429248,0.23774263142858446,7.374044583548347
51.0,511691.6641979636,500807.04258019157,0.22829942184911647,7.374044583548347
52.0,487615.2297395285,508067.7798263642,0.21922345395787288,7.374044583548347
53.0,462687.7857128014,513098.2413368126,0.21051511784052843,7.374044583548347
54.0,437309.6373869184,515936.90530379163,0.20217348430331789,7.374044583548347
55.0,422428.03939321433,505149.790007184,0.17836534250292393,7.797408400054831
56.0,413879.3646843508,478980.83494006447,0.13963759142289633,8.797334659540232
57.0,396897.20658307674,454017.4328025753,0.10875226251388533,9.79726091902564
58.0,374455.4318183587,430217.303909617,0.08426682420857759,10.797187178511047
59.0,348834.2659681815,407538.65802166925,0.06496819074886198,11.797113437996455
60.0,321744.0417672416,385940.263505667,0.049844703975273255,12.79703969748186
61.0,294433.5374553513,365381.51065563184,0.038059562493276744,13.796965956967268
62.0,267783.504486807,345822.4722666243,0.028926294754426794,14.796892216452676
63.0,242386.31639642006,327223.9562302273,0.021886107546633473,15.796818475938084
64.0,218612.44274883726,309547.5526648268,0.016487592408400194,16.796744735423484
65.0,196665.32634105856,292755.6792467694,0.012368915514336684,17.796670994908876
66.0,176625.6585573564,276811.61488975334,0.009242008762939475,18.79659725439427
67.0,158486.85626927525,261679.53535044024,0.006879253088801107,19.796523513879666
68.0,142182.73296941957,247324.54038314588,0.005102000948559192,20.79644977336506
69.0,127608.74132268169,233712.67652965325,0.003770961597220786,21.796376032850457
70.0,114637.95748310346,220810.95588656078,0.002778227145662035,22.796302292335856
71.0,103132.79632773757,208587.37051633446,0.0020407168453433,23.79622855182125
72.0,92953.34644050854,197010.90281606748,0.0014948435287481371,24.796154811306646
73.0,83963.07796008704,186051.53213705056,0.0010922161678070114,25.79608107079204
74.0,76032.53770635066,175680.23769199004,0.0007962073483380165,26.796007330277437
75.0,69041.5542739633,165868.99823690086,0.000579236900729411,27.795933589762832
76.0,62880.34379449987,156590.78840133513,0.0004206382171751253,28.795859849248224
77.0,57449.84519553089,147819.57190170867,0.00030499626925356793,29.795786108733616
78.0,52661.57015743416,139530.2933085432,0.0002208652290992629,30.795712368219007
79.0,48437.06964950485,131698.8660778776,0.00015977996148019727,31.7956386277044
80.0,44707.21524026787,124302.1587504702,0.000115503551239051,32.79556488718979
81.0,41411.390766694916,117317.97953170341,8.34572130631747e-05,33.79549114667518
82.0,38496.63333616113,110725.05842450136,6.0289995814365834e-05,34.795417406160574
83.0,35916.803223217285,104503.02845674638,4.355694958612072e-05,35.795343665645966
84.0,33631.7881111358,98632.40513182405,3.1478819066308144e-05,36.79526992513136
85.0,31606.766153546338,93094.56468695303,2.2763823513056903e-05,37.79519618461675
86.0,29811.54326202025,87871.72173074094,1.6476115305483727e-05,38.79512244410214
87.0,28219.951774823552,82946.90545507043,1.1938846739595967e-05,39.79504870358754
88.0,26809.3253195626,78303.93579017348,0.0,40.79497496307293
89.0,25560.033321894898,73927.39861242808,0.0,41.79490122255835
90.0,24455.07726404569,69802.6207547002,0.0,42.79482748204374
91.0,23479.74045277566,65915.64489692026,0.0,43.79475374152917
92.0,22621.283808041826,62253.203876972824,0.0,44.79468000101457
93.0,21868.68595253575,58802.69537086988,0.0,45.79460626049996
94.0,21212.4205967306,55552.15719367307,0.0,46.79453251998535
95.0,20644.26163876515,52490.240917829244,0.0,47.794458779470745
96.0,20157.121595680524,49606.18849322185,0.0,48.794385038956136
97.0,19744.908977643343,46889.80671107505,0.0,49.79431129844153
98.0,19402.408702235232,44331.44352893149,0.0,50.79423755792692
99.0,19125.180934733806,41921.96372882577,0.0,51.79416381741232
100.0,18909.466708431682,39652.72784154247,0.0,52.79409007689772
101.0,18752.13012863431,37515.56488820112,0.0,53.79401633638311
102.0,18650.568173871972,35502.75797266069,0.0,54.793942595868515
103.0,18602.672771108955,33607.01668729516,0.0,55.793868855353914
104.0,18606.780558663246,31821.45838640056,0.0,56.79379511483931
105.0,18661.604341546845,30139.59302888228,0.0,57.79372137432472
106.0,18766.248607835503,28555.29510095706,0.0,58.79364763381012
107.0,18920.164501211126,27062.788142302656,0.0,59.79357389329552
108.0,19123.10765625324,25656.628886038427,0.0,60.79350015278093
109.0,19375.058962733863,24331.69528314322,0.0,61.69616526724684
110.0,19676.43224603629,23083.149286668453,0.0,61.696171474377245
111.0,20027.87861543913,21906.431814446565,0.0,61.696171474377245
112.0,20430.179495359276,20797.263903300038,0.0,61.696171474377245
113.0,20884.330516441383,19751.619235661452,0.0,61.696171474377245
114.0,21391.582358227046,18765.707254876124,0.0,61.696171474377245
115.0,21953.401922134733,17835.961437968133,0.0,61.696171474377245
116.0,22571.375064099215,16959.033377983826,0.0,61.69617147839153
117.0,20173.61519776622,20489.36824667417,0.20202966542247394,7.374043982950324
118.0,21982.12811771693,20490.79955322773,0.21036721770649822,7.374043982950324
119.0,23967.398909028227,20546.95780459469,0.2190690092482977,7.374043982950324
120.0,26166.311399827726,20659.242143880987,0.2281357639943289,7.374043982950324
121.0,28618.576220394472,20829.23219866383,0.23756688836492496,7.374043982950324
122.0,31367.760369933574,21058.687878513756,0.24736038861100573,7.374043982950324
123.0,34462.316929173394,21349.54808286253,0.2575127978960837,7.374043982950324
124.0,37854.453997777986,21818.047459548783,0.2680191162085952,7.374043982950324
125.0,41602.29558443822,22625.138559117164,0.2788727576865025,7.374043982950324
126.0,46035.44763448661,23602.02320124913,0.29006552344066,7.374043982950324
127.0,51282.780025289045,24769.66553453883,0.3015875814973755,7.374043982950324
128.0,57503.294499245,26152.547857022986,0.3134274642478488,7.374043982950324
129.0,64892.548754035364,27779.205944618392,0.32557208421204215,7.374043982950324
130.0,73690.57633375627,29682.838894252094,0.3380067667563662,7.374043982950324
131.0,84191.77186952547,31901.81194299175,0.35071530026815145,7.374043982950324
132.0,96734.22431107271,34511.22621220783,0.3636800041310923,7.374043982950324
133.0,111760.66159219046,37614.424513255195,0.3768818109599443,7.374043982950324
134.0,129867.89355336729,41308.064587513894,0.39030036850245664,7.374043982950324
135.0,151809.05678897665,45710.60662266499,0.4039141537091498,7.374043982950324
136.0,178537.6725380081,50967.56397669598,0.41770060014143223,7.374043982950324
137.0,211263.8634708472,57257.771443154685,0.43163623864517825,7.374043982950324
138.0,251527.26268635585,64801.13137043532,0.4456967949948397,7.3740448450524925
139.0,301334.94840074325,73792.80579658975,0.4595352135103776,7.3798687182652465
140.0,363126.0961202621,84421.69237736709,0.4727416923868584,7.398673193062101
141.0,439815.6249689046,96999.7102271543,0.4853131889033991,7.430478669955456
142.0,535037.2155371971,111902.12593198154,0.49725497817560166,7.475269642659048
143.0,653314.7698634556,129579.08522428498,0.5085781453784525,7.533023442599716
144.0,800270.5405092686,150569.60943401133,0.5192986802126656,7.603710423358909
145.0,982876.6127840952,175517.7641775196,0.5294366029418517,7.687294149364026
146.0,1209749.532493794,205199.42749239787,0.5390245297664417,7.7835433012251585
147.0,1491436.003289979,240873.34599437413,0.548417587789625,7.885650692492801
148.0,1841710.9195873619,283990.43705078424,0.5577879986520085,7.990076440556254
149.0,2278004.281817346,336145.1087224497,0.5671266928510965,8.096848674603454
150.0,2821986.267203857,399269.5178123457,0.5764248753750044,8.205993788720601
151.0,3500516.213036655,475701.51129086263,0.5856739769787092,8.31753791946309
152.0,4346767.688885135,568264.6834681989,0.5948656798561657,8.431506902959198
153.0,5401552.187938178,680362.0780827968,0.6039919414097493,8.547926231182446
154.0,6714860.817466061,816085.0745825034,0.6130450159882312,8.666821007492464
155.0,8347636.1179268705,980344.5259175376,0.6220174745314125,8.788215901557157
156.0,10373785.927762827,1179191.1868245085,0.6309022219261359,8.91213510367467
157.0,12883026.353448667,1420123.781321352,0.6396925121608487,9.038602279005922
158.0,15984183.95774224,1712208.9377508,0.6483819612047906,9.167640521633176
159.0,19808612.207715247,2066363.2542227532,0.6569645576245307,9.299272308760708
160.0,24513982.15225034,2495689.6538677397,0.6654346709466306,9.433519455196675
161.0,30288433.169230808,3015861.9575590254,0.6737870577102345,9.570403068541388
162.0,37355023.92483607,3645561.7066277303,0.682016865402046,9.709943505608358
163.0,45976410.54110041,4406970.09625422,0.690119634278301,9.85216033026358
164.0,56459626.79564209,5326317.058903493,0.6980912971952001,9.997072273318308
165.0,69160827.3780579,6434487.585258082,0.7059281774732618,10.144697194830583
166.0,84489754.23211591,7767730.792093968,0.713626984903048,10.295052049949012
167.0,102913874.19280799,9368615.749348924,0.7211848100823963,10.44815285894162
168.0,124962377.7740564,11287036.551272409,0.728599117160239,10.60401468233283
169.0,151229547.94970524,13581234.875273928,0.7358677351468562,10.762651602378122
170.0,182377094.24152192,16318896.904319642,0.7429888477980405,10.924076711990518
171.0,219134995.8350993,19578319.970655654,0.7499609823543523,11.088302113415518
172.0,262300478.8311584,23449630.486959286,0.756782997130332,11.255338928617586
173.0,312734962.4171853,28036047.97078715,0.7634540683058402,11.4251973217509
174.0,371358356.388046,33455144.229365934,0.7699736755192242,11.597886539410975
175.0,439140410.94122475,39840105.195147775,0.7763415871820004,11.77341496985308
176.0,517089120.62308407,47340925.68154611,0.78255784481583,11.951790225238675
177.0,606235616.7881507,56125525.631085284,0.7886227471465207,12.133019252283999
178.0,707616232.3248832,66380709.90373607,0.7945368333706079,12.317108474353676
179.0,822250816.3795898,78313071.24971671,0.8003008666544681,12.504063974097074
180.0,951118581.6418651,92149784.89270787,0.8059158168952917,12.693891721902139
181.0,1095132151.366841,108139221.20757023,0.8113828433986239,12.886597857299368
182.0,1255109786.2131245,126551299.61673357,0.8167032775510742,13.082189036026382
183.0,1431746939.6181364,147677505.38813046,0.8218786053164182,13.28067285241673
184.0,1625588352.8195145,171830509.9113106,0.8269104495796511,13.482058348352382
185.0,1837000389.560656,199343361.31853694,0.8318005526375584,13.68635662810272
186.0,2066146420.5589676,230568150.80664417,0.8365507584689681,13.893581589059336
187.0,2312964038.717487,265874146.58660567,0.8411629952113909,14.10375079621756
188.0,2577146838.019616,305645311.6943261,0.8456392575162669,14.316886516183013
189.0,2858130924.5370684,350277171.3197558,0.849981588877672,14.533016938560648
190.0,3155087085.9970717,400173013.69283193,0.8541920640176225,14.75217759407634
191.0,3466917346.8080163,455739443.8547414,0.858272771463864,14.974413051829583
192.0,3792261608.5772395,517381118.1699702,0.862225795554694,15.199778847971967
193.0,4129506579.993099,585494954.0080014,0.8660531993125267,15.428343745382273
194.0,4476806018.478545,660463474.2073143,0.8697570063500001,15.660192322157885
195.0,4832102333.34776,742647703.3514414,0.8733391837633706,15.895427994071092
196.0,5193158470.359787,832379527.1170373,0.8768016247429667,16.134176338139653
197.0,5557593560.126214,929953564.036757,0.8801461314279859,16.37658888659945
198.0,5922921933.675627,1035618516.7692027,0.8833743979569721,16.622847515633357
199.0,6286596729.022957,1149568466.2241268,0.8864879947024256,16.87316911230797
200.0,6646055520.49176,1271933804.790147,0.8894883529848456,17.127810813919258
201.0,6998766976.0549135,1402772259.0350199,0.8923767514085538,17.387075556122127
202.0,7342277608.93059,1542059830.039324,0.8951543034977915,17.651318087310365
203.0,7674257212.244815,1689682160.209677,0.8978219478091451,17.92095112987826
204.0,7992541849.150642,1845426185.5355377,0.900380441112185,18.196451900461252
205.0,8295173650.125382,2008973072.5054615,0.9028303553065284,18.478367981474985
206.0,8580435980.356549,2179891879.9394794,0.9051720793828055,18.76732331831891
207.0,8846883631.182781,2357635089.632398,0.9074058264518456,19.064022942576923
208.0,9093366698.209677,2541536053.6516685,0.9095316479491194,19.369256634939156
209.0,9319047808.25019,2730808997.7308245,0.9115494554450031,19.683900720072963
210.0,9523412062.272493,2924552039.6265616,0.9134590510166692,20.0089174273389
211.0,9706269236.069958,3121753719.577088,0.9152601667954539,20.345351185357814
212.0,9867747962.822994,3321303450.4610305,0.9169525138986085,20.6943212303448
213.0,10008281829.590984,3522006153.0247912,0.9185358403998598,21.05700998894744
214.0,10128587557.753704,3722601154.560052,0.9200099972880923,21.43464685778292
215.0,10229635745.571339,3921785158.6945705,0.921375010540299,21.82848725312635
216.0,10312615016.911732,4118238754.6361084,0.9226311565577816,22.23978714326927
217.0,10378890760.66169,4310655617.42891,0.9237790373798055,22.669773685363186
218.0,10429960039.330614,4497773180.749827,0.9248196514183539,23.119613032363528
219.0,10467404535.588179,4678403297.674485,0.9257544550828567,23.59037680110701
220.0,10492843572.88581,4851461265.545195,0.9265854107021388,24.08300903528957
221.0,10507889462.060722,5015991384.97059,0.9273150164008858,24.598295781726748
222.0,10514107027.039862,5171187992.236562,0.927946314682978,25.13683895730076
223.0,10512979201.363216,5316409083.507172,0.9284828799289127,25.699037979873662
224.0,10505877327.335337,5451187450.050515,0.9289287908388449,26.285073875133897
225.0,10494043759.279219,5575228743.131979,0.9292885610046777,26.894909662188894
226.0,10478579134.355936,5688406356.877181,0.9295670704868059,27.528294535222606
227.0,10460440018.639591,5790747682.575164,0.9297694827057771,28.184779617439016
228.0,10440434400.140802,5882424339.677533,0.929901157129153,28.863729402670526
229.0,10419230681.48554,5963729835.562795,0.9299675410818538,29.56435030418165
230.0,10397379270.39838,6035051202.313224,0.9299740940031436,30.285727543112948
231.0,10375302693.201035,6096862303.215024,0.9299261904691222,31.026835328029495
232.0,10353335160.69636,6149688264.707742,0.9298290533592639,31.78658463706644
233.0,10331721464.844797,6194094849.281456,0.9296877030459166,32.56383897870772
234.0,10310633966.440334,6230668496.690878,0.9295068712994226,33.35744382836649
235.0,10290193050.70883,6260002113.9724865,0.9292910364116326,34.16624497970831
236.0,10270466871.516464,6282681566.015306,0.9290443106872361,34.989111799681226
237.0,10251493102.093231,6299278806.343621,0.9287705134848783,35.82494429516861
238.0,10233279776.354296,6310342336.986357,0.9284731162196762,36.672689534166466
239.0,10215815763.901457,6316391811.094838,0.9281552527926394,37.531349269776626
240.0,10199076483.042318,6317919065.11132,0.9278197728481655,38.39997704962417
241.0,10183026709.617067,6315378203.732667,0.9274691820220887,39.27769564129507
242.0,10167626121.98806,6309194321.697324,0.9271057419129676,40.16368060998058
243.0,10152830397.017296,6299756153.221746,0.9267314278164606,41.05717360049786
244.0,10138594100.328245,6287420577.412143,0.9263479774432917,41.957473911695466
245.0,10124871518.043625,6272515457.61543,0.9259569216596074,42.86393345788428
246.0,10111618067.273235,6255335870.156308,0.9255595667667632,43.77596356634901
247.0,10098790461.839361,6236153803.381048,0.9251570661437832,44.69301743078172
248.0,10086347607.68563,6215211796.914171,0.9247503846998746,45.61460182968368
249.0,10074250252.222597,6192732980.958166,0.9243403659228268,46.54025879305659
250.0,10062461468.288696,6168917121.61425,0.9239277112140275,47.4695730192658
251.0,10050946376.281643,6143946065.770943,0.9235130153637937,48.40216184752762
252.0,10039672158.019054,6117983583.51085,0.9230967681922185,49.3376757790203
253.0,10028607693.352364,6091179705.562945,0.9226793808624654,50.27579034415714
254.0,10017723836.072092,6063668009.451,0.9222611725672649,51.21621134265426
