Time,J,A,S,tau
0.0,100.0,100.0,0.7106610159482583,37.03703703703704
1.0,71.5002808560024,54.67982002561589,0.7115712100027011,37.660630985221594
2.0,43.17089555367955,37.93874009016316,0.7124816830969365,38.286155288835424
3.0,14.999692222511289,31.719826708920827,0.713392465934926,38.91343497219236
4.0,0.0,29.379102386152827,0.7143036131706031,39.54231211758924
5.0,0.0,28.472347444098222,0.7152151848352291,40.17263014878181
6.0,0.0,28.100346644735062,0.7161272458313848,40.80423370092397
7.0,0.0,27.932362033948326,0.7170398654395372,41.4369684912323
8.0,0.0,27.84650005796384,0.7179531168317028,42.07068118937156
9.0,0.0,27.798000565798112,0.7188670765993641,42.70521928964253
10.0,0.0,27.77080756634247,0.7197818242840497,43.340430982497516
11.0,0.0,27.758517962881232,0.7206974419151211,43.97616502668089
12.0,0.0,27.759057604181056,0.7216140135483534,44.61227062104136
13.0,0.0,27.77150498392778,0.7225316248080013,45.24859727677144
14.0,0.0,27.795581505590803,0.7234503624316077,45.884994690310556
15.0,0.0,27.831228550848177,0.7243703138124084,46.521312615987604
16.0,0.0,27.878460405541404,0.7252915665391112,47.1574007387001
17.0,0.0,27.937323466229945,0.7262142079313681,47.793108546550755
18.0,0.0,28.007881442020686,0.7271383245692516,48.42828520339003
19.0,0.0,28.090210490358416,0.7280640018150387,49.06277942120681
20.0,0.0,28.184397670718663,0.7289913233255773,49.696439332310675
21.0,0.0,28.290540488062366,0.7299203705534759,50.329112361250445
22.0,0.0,28.408746796163655,0.7308512222353375,50.96064509641469
23.0,0.0,28.539134821304824,0.731783953865215,51.59088316126168
24.0,0.0,28.68183322750515,0.7327186371514408,52.21967108512783
25.0,0.0,28.83698119713669,0.73365533945494,52.84685217356589
26.0,0.0,29.004728518051976,0.7345941232071023,53.472268378166476
27.0,0.0,29.18523567399329,0.7355350453052458,54.095760165819186
28.0,0.0,29.378673936880222,0.736478156483665,54.71716638737269
29.0,0.0,29.585225460135526,0.7374235006582124,55.336324145656214
30.0,0.0,29.805083372359487,0.7383711142423204,55.95306866282869
31.0,0.0,30.03845187067309,0.7393210254323243,56.56723314702579
32.0,0.0,30.285546313009316,0.7402732534599018,57.17864865827909
33.0,0.0,30.546593308575694,0.7412278078094023,57.78714397368664
34.0,0.0,30.821830805642698,0.7421846873977904,58.39254545181893
35.0,0.0,31.11150817573929,0.7431438797148879,58.99467689634961
36.0,0.0,31.415886293258783,0.7441053599215541,59.59335941890619
37.0,0.0,31.73523760939411,0.7450690899034023,60.18841130114202
38.0,0.0,32.069846219231444,0.7460350172776163,60.77964785603722
39.0,0.0,32.42000792073824,0.7470030743503907,61.366881288443345
40.0,0.0,32.78603026427995,0.7479731770224918,61.94992055489367
41.0,0.0,33.16823259119431,0.7489452236404073,62.52857122270899
42.0,0.0,33.566946059839985,0.7499190937905339,63.10263532843673
43.0,0.0,33.98251365741661,0.7508946470338386,63.67191123566998
44.0,0.0,34.41529019572976,0.751871721578422,64.23619349230198
45.0,0.0,34.86564228894211,0.752850132887417,64.7952726872812
46.0,0.0,35.33394831121326,0.7538296722196709,65.34893530694208
47.0,0.0,35.82059833198546,0.7548101051006814,65.89696359099706
48.0,0.0,36.32599402652117,0.7557911697213001,66.43913538828598
49.0,0.0,36.85055107132885,0.7567725752614856,66.97522401235035
50.0,0.0,37.39470424124004,0.7577540001362624,67.50499809689111
51.0,0.0,37.95889117971261,0.7587350901649846,68.02822145172398
52.0,0.0,38.54355955981673,0.7597154566571747,68.54465291870125
53.0,0.0,39.149167804776006,0.7606946744151519,69.0540462280986
54.0,0.0,39.77618478943943,0.7616722796513855,69.55614985560675
55.0,0.0,40.42508949501373,0.7626477678187982,70.05070688010112
56.0,0.0,41.09637061315153,0.7636205913525579,70.53745484239056
57.0,0.0,41.7915585123252,0.7645901570815277,71.01612557620788
58.0,0.0,80.7219256505513,0.7655558245805673,71.48644516540365
59.0,0.0,122.96652049556,0.7665169027831322,71.94813370201362
60.0,0.0,165.3939302457891,0.7674726475254562,72.40090517366355
61.0,0.0,208.01204664298797,0.7684222591889343,72.84446737062963
62.0,0.0,250.82849294954232,0.7693648796685545,73.27852172907495
63.0,0.0,293.85061210563,0.7702995893234716,73.70276318805641
64.0,0.0,337.08545415109063,0.7712254042675215,74.11688009384301
65.0,0.0,380.5397615501809,0.7721412733147568,74.52055407894616
66.0,0.0,424.21995063086143,0.7730460745326195,74.91345991650927
67.0,0.0,468.1320985822522,0.7739386123798898,75.29526544231457
68.0,0.0,512.2819216561908,0.774817614043393,75.66563141350133
69.0,0.0,556.6747583258426,0.7756817264471324,76.02421143941055
70.0,0.0,601.3155459379477,0.7765295124701497,76.37065185350703
71.0,0.0,646.2087997781473,0.7773594477188028,76.70459164417801
72.0,0.0,691.3585891284813,0.7781699168792311,77.02566235965307
73.0,52.48946027004964,736.7685116385503,0.7789592101576329,77.33348803074864
74.0,375.3283474375867,782.4416668803996,0.779725519743714,77.62768510442943
75.0,737.4636438805898,828.3806281971132,0.7804669361674995,77.90786237795574
76.0,1141.7635619430148,874.5874130349752,0.7811814446829811,78.17362094371506
77.0,1591.2363460923955,921.0634515977476,0.781866921764485,78.4245541496824
78.0,2089.029121695854,967.8095536978688,0.7825211314872511,78.66024755878827
79.0,2647.9011803023623,1004.8659853511019,0.7828216057254098,78.6813769904871
80.0,3289.6606217761514,986.9479760238663,0.7812803605753842,77.55695384969724
81.0,3944.5987091659404,969.0845295983725,0.7796424013859825,76.36720610336289
82.0,4612.371093074388,951.2787995474946,0.7779068782900281,75.1136475653741
83.0,5292.56595742052,933.5340907135219,0.7760733101587274,73.7984844469883
84.0,5984.698426361684,915.8538713299477,0.7741416146268904,72.42466703851984
85.0,6688.204186291179,898.2417659411445,0.7721121627054492,70.9959551062131
86.0,7402.44480779631,880.7015361821419,0.7699857476159032,69.51682982247343
87.0,8126.69973540508,863.2370973136393,0.7677636157453888,67.99250679267001
88.0,8860.162113673261,845.8525047583224,0.7654474870295547,66.42888674840616
89.0,9601.945732396567,828.5519350584941,0.7630394971325382,64.83239658304429
90.0,10351.077395625727,811.3397028328164,0.7605422037131729,63.20991009719833
91.0,11106.494735168646,794.2202420461151,0.7579585698568317,61.568593415331925
92.0,11867.054901995498,777.1980876355257,0.7552918864457147,59.91572691272641
93.0,12631.527844995273,760.2778930807124,0.7525457543532357,58.258564347901334
94.0,13398.59686685695,743.4644056330104,0.7497240374608333,56.60414543411403
95.0,14166.86888894552,726.7624491104891,0.746830783692906,54.95918072379249
96.0,14934.869156150045,710.1769423747488,0.7438701975620244,53.32992183261609
97.0,15701.045237168748,693.7128677545162,0.740846578657509,51.72202852222721
98.0,16463.778481930516,677.3752555922689,0.737764260604929,50.14055985883531
99.0,17221.380579748267,661.169204038462,0.7346275923817736,48.58990821120579
100.0,17972.101573957625,645.0998399367,0.7314408755347573,47.07375249474632
101.0,18714.141908899397,629.1723057769755,0.7282083312222084,45.59513356879089
102.0,19439.725045633706,621.0590791602484,0.7249341154035625,44.15645081945213
103.0,20154.24539372178,660.2990805057655,0.7216222179716653,42.75949438199452
104.0,20936.82607724372,751.4404138528101,0.7182765076037433,41.40551624240691
105.0,21878.880047210703,901.6115898666382,0.7149007041916866,40.0952855799346
106.0,23090.845036229064,1118.4324819652843,0.7114983712674411,38.82914829139902
107.0,24703.964410043667,1409.9238922471307,0.7080729129542053,37.60708685466097
108.0,26871.851402286942,1784.3986655666422,0.7046275737857922,36.42877736773933
109.0,29771.73364631336,2250.336953423437,0.701165441091803,35.29364250606607
110.0,33605.30726524067,2816.247838550568,0.6976894491002452,34.200899504524166
111.0,38599.095081474516,3490.520910554123,0.694202384552543,33.149602933080864
112.0,45014.17109309164,4265.9496274622,0.6907068932561685,32.13868212602369
113.0,53089.07590455679,5056.779031220247,0.6872054860552572,31.166973102851625
114.0,62872.76703641516,5845.726782166013,0.6837005490646187,30.233246854229005
115.0,74381.61707722345,6629.40861546246,0.6801943518460107,29.336232521324547
116.0,87617.131492803,7404.325943364967,0.6766890514846511,28.474635530528865
117.0,102564.9001422335,8166.91815074339,0.6731867018494522,27.64715383457309
118.0,119193.85997420963,8913.616287307917,0.6696892608635713,26.852490697339423
119.0,137455.84308006376,9640.895074589494,0.666198597903174,26.089364915631794
120.0,157285.41098383852,10345.322338973658,0.6627165005569603,25.35651872653664
121.0,178599.89519609642,11023.605910264261,0.6592446793483208,24.65272366090725
122.0,201299.80232104994,11672.635728191884,0.6557847741056081,23.97678525557313
123.0,225269.46825845574,12289.52170324502,0.6523383587439007,23.32754627058056
124.0,250378.05383410203,12871.62597720423,0.6489069473503499,22.70388925823672
125.0,276469.07566711813,13443.793059623162,0.6454920007097347,22.10473810336629
126.0,303479.4260606088,14178.402434600817,0.6420949206073748,21.529057170536557
127.0,331831.19403091236,15316.011961585855,0.6387170642281721,20.975853335449013
128.0,362586.9014512248,17143.21546379266,0.6353597437789896,20.444175038173928
129.0,397570.6371843701,19992.332882552408,0.6320242294851534,19.9331116712234
130.0,439479.0639435946,24237.5457829015,0.6287117523459476,19.44179271508482
131.0,491975.0827027638,30284.347247429156,0.6254235066135418,18.969386684564757
132.0,559749.6362498313,38366.6429328479,0.6221606519728555,18.515099932924958
133.0,647821.1658330928,48431.188905330215,0.6189243155586512,18.07817535532317
134.0,760842.405282236,60373.7062540825,0.6157155936688193,17.657891034142573
135.0,902956.5046092045,74060.87367123604,0.6125355534347413,17.25355885662747
136.0,1077695.0330008774,89332.98624489295,0.6093852340153322,16.864523093394276
137.0,1287890.095816718,106007.44314408404,0.6062656480818497,16.49015902275714
138.0,1535606.0508266536,123882.83383662741,0.6031777829053105,16.129871554951386
139.0,1822093.4977350507,142743.4333230636,0.6001226009803999,15.78309383564204
140.0,2147762.4125791034,162364.0179936174,0.5971010412090507,15.449285980979232
141.0,2512146.260657981,182655.0746619935,0.5941140195417735,15.127933775816457
142.0,2914491.5713840663,204273.7918397673,0.5911624296595723,14.818547450769096
143.0,3356042.3816708354,228977.96974510603,0.5882471430035023,14.520660456340975
144.0,3842983.404526522,259762.0984770387,0.5853690098783887,14.233828389508998
145.0,4389529.68753563,300928.1697321075,0.5825288597036851,13.957627888932441
146.0,5021002.69007395,357820.5871138325,0.5797275013151857,13.691655598904301
147.0,5775463.526569531,435545.8135546567,0.576965723287128,13.435527186695918
148.0,6701527.1847438235,538268.3052043285,0.57424429414643,13.188876398769592
149.0,7854783.696375107,669108.0908783155,0.5715639626251986,12.951354176735078
150.0,9294152.604816228,830099.7763672385,0.5689254541444994,12.722627974589477
151.0,11078682.428681474,1021333.4826314864,0.5662401081558404,12.506419006944329
152.0,13260032.251328956,1239347.1002013753,0.5632354381670193,12.314164316693752
153.0,15875510.974140396,1481423.0056761228,0.5598905249466171,12.14539375115238
154.0,18950435.70986611,1745126.3292002438,0.5562050307778492,11.998854450596301
155.0,22499792.36877706,2030647.5957167414,0.5521802014133039,11.873383217968213
156.0,26536655.70295563,2343266.4094728213,0.5478188540714575,11.767897846699855
157.0,31085626.9618432,2695106.3935545897,0.543125362414303,11.68138988765094
158.0,36199341.72761685,3105686.9168494185,0.538105628585504,11.612918076999096
159.0,41974118.329746164,3599777.479541514,0.5327670428305672,11.561602399477982
160.0,48557490.27301404,4203791.326733707,0.5271184334023346,11.526618828408276
161.0,56145882.967418484,4942749.864568677,0.5211700057963337,11.507194595483279
162.0,64974677.055828825,5838334.080520817,0.51493942154781,11.502372214383065
163.0,75304769.9372492,6919899.155727437,0.5086829264428995,11.502372233589945
164.0,87443107.37143321,8208494.284910227,0.5025324589224736,11.502372233589945
165.0,101706581.67069452,9713412.039508808,0.49649295522316556,11.502372233589945
166.0,118395671.82501268,11438660.328977484,0.49056917270249084,11.502372233589945
167.0,137782470.16589177,13386885.706131678,0.4847656841580091,11.502372233589945
168.0,160109903.78381735,15565847.079981087,0.4790868735878113,11.502372233589945
169.0,185606625.71903104,17996111.762562353,0.4735369330310051,11.502372233589945
170.0,214518191.21593133,20718087.812746387,0.46811986065866007,11.502372233589945
171.0,247151578.03505775,23795453.027765613,0.462839459330508,11.502372233589945
172.0,283920362.4189709,27313796.616943985,0.4576993366290741,11.502372233589945
173.0,325381746.69227284,31375787.76984714,0.4527029055682817,11.502372233589945
174.0,372257241.19358295,36095494.983862385,0.4478533862271363,11.502372233589945
175.0,425438896.41486543,41602875.00445667,0.4431538082098925,11.502372233589945
176.0,486008823.2459337,48033578.68582378,0.4386070138767135,11.502372233589945
177.0,555226308.5377941,55514986.53804803,0.43421566228446706,11.502372233589945
178.0,634489631.4767157,64161261.135426104,0.4299822337736351,11.502372233589945
179.0,725291938.5390238,74073375.91503412,0.42590903513434347,11.502372233589945
180.0,829183316.0337675,85345805.68437938,0.42199820530366533,11.502372233589945
181.0,947751444.880567,98080055.58947872,0.41825172140753913,11.502372233589945
182.0,1082636597.6335862,112403144.46473978,0.41467140533886715,11.502372233589945
183.0,1235583838.4421182,128486895.95177606,0.41125893047628315,11.502372233589945
184.0,1408531478.4060469,146563390.9362882,0.4080158287332906,11.502372233589945
185.0,1603724834.0430233,166934000.3491313,0.40494349758398934,11.502372233589945
186.0,1823837156.5315988,189972594.47498083,0.40204320743289645,11.502372233589945
187.0,2072085340.6478078,216131305.99468544,0.39931610886566354,11.502372233589945
188.0,2352350619.100272,245937447.86442608,0.39676323980179046,11.502372233589945
189.0,2669282190.7704916,279979194.26987416,0.39438553249724456,11.502372233589945
190.0,3028367430.3556166,318888894.0912217,0.392183820571362,11.502372233589945
191.0,3435961690.2442484,363329211.23847157,0.39015884568372616,11.502372233589945
192.0,3899292837.971143,413987277.2422408,0.38831126389452447,11.502372233589945
193.0,4426459175.7759495,471581685.1881176,0.3866416516385812,11.502372233589945
194.0,5026457025.6175995,536884786.8412654,0.3851505115040251,11.502372233589945
195.0,5709252678.75838,610759488.088018,0.3838382774808417,11.502372233589945
196.0,6485934391.376915,694205934.1873256,0.38270531972413946,11.502372233589945
197.0,7368954452.781133,788412544.4341877,0.3817519487631225,11.502372233589945
198.0,8372479748.683635,894806662.4652318,0.38097841935020654,11.502372233589945
199.0,9512820128.112709,1015106863.2133361,0.380384933671003,11.502372233589945
200.0,10808949646.365627,1151370842.513062,0.37997164395435035,11.502372233589945
201.0,12283099621.99796,1306031823.1204755,0.3797386544342741,11.502372233589945
202.0,13961427757.49496,1481922294.0622025,0.3796860228406045,11.502372233589945
203.0,15874702549.778816,1682289226.2398612,0.37981376122694643,11.502372233589945
204.0,18059004033.43952,1910808876.2467558,0.3801218361358416,11.502372233589945
205.0,20556438106.211426,2171611945.3967023,0.3806101681005908,11.502372233589945
206.0,23415934238.971516,2469330384.723645,0.3812786306089086,11.502372233589945
207.0,26694137005.603542,2809176395.7236924,0.3821270484745849,11.502372233589945
208.0,30456458765.080437,3197061734.273261,0.38315519553585875,11.502372233589945
209.0,34778386858.82368,3639759964.893415,0.3843627917523185,11.502372233589945
210.0,39747169891.05634,4145112377.4201245,0.3857494997436316,11.502372233589945
211.0,45463966777.764885,4722276621.130059,0.38731492089038605,11.502372233589945
212.0,52046475402.95737,5382019168.592421,0.38905859081881694,11.502372233589945
213.0,59632186869.128296,6137044012.48387,0.39097997440584736,11.502372233589945
214.0,68382350636.77098,7002353295.447936,0.39307846028596866,11.502372233589945
215.0,78486804307.2921,7995629412.772155,0.3953533551052857,11.502372233589945
216.0,90169446690.82083,9137650588.230976,0.3978038773014647,11.502372233589945
217.0,103694814730.69853,10452747806.912058,0.40042915062122003,11.502372233589945
218.0,119375627215.36555,11969332652.98793,0.4032281972948612,11.502372233589945
219.0,137581421610.02448,13720524027.15436,0.40619993106424235,11.502372233589945
220.0,158748791888.9537,15744916212.820278,0.40934315005703703,11.502372233589945
221.0,183393400103.37555,18087534671.648422,0.4126565295663975,11.502372233589945
222.0,212124269504.86234,20801028925.3022,0.41613861480700154,11.502372233589945
223.0,245660942308.3554,23947157456.58534,0.4197878137141805,11.502372233589945
224.0,284854220225.83246,27598621390.332912,0.42360238985483784,11.502372233589945
225.0,330711346125.8235,31841302996.52536,0.4275804555204565,11.502372233589945
226.0,384426625682.02924,36776966490.225914,0.43171996507360055,11.502372233589945
227.0,447418634341.3328,42526480406.965706,0.43601870861989767,11.502372233589945
228.0,521375310435.448,49233631301.65496,0.44047430607751004,11.502372233589945
229.0,608308417252.972,57069612747.74806,0.44508420171551494,11.502372233589945
230.0,710619076129.2803,66238318562.23449,0.44984565923139347,11.502372233589945
231.0,831176410945.0614,76982602166.39851,0.4547557574359422,11.502372233589945
232.0,973411755103.8612,89591722849.89034,0.45981138661135146,11.502372233589945
233.0,1141431436439.2087,104410267174.60736,0.4650092456049284,11.502372233589945
234.0,1340150885989.819,121848947816.44217,0.4703458396949433,11.502372233589945
235.0,1575459146074.979,142397543526.39453,0.4758174794273344,11.502372233589945
236.0,1854412672962.5762,166640928039.9369,0.4814202800749962,11.502372233589945
237.0,2185468492990.7822,195278480504.583,0.48715016232604474,11.502372233589945
238.0,2578768690638.7456,229147727061.89374,0.4930028538658739,11.502372233589945
239.0,3046485292806.8706,269253368828.1561,0.4989738918007244,11.502372233589945
240.0,3603231927653.615,316802560183.33295,0.5050586263114484,11.502372233589945
241.0,4266567614226.03,373247551871.36285,0.5112522253132932,11.502372233589945
242.0,5057638550031.468,440301057528.8011,0.5175370414382087,11.502757663307614
243.0,6001685215852.288,518966071537.4761,0.5235934305539904,11.513167164476714
244.0,7125643648452.095,610586409834.2451,0.5292813629991678,11.537905187611733
245.0,8459847745631.898,717060681013.992,0.5346029500339471,11.577009205621925
246.0,10039086958648.78,840519869574.576,0.5395621943372246,11.630506502719683
247.0,11903111885719.918,983346371792.2592,0.5441648568684796,11.698413431341839
248.0,14097170314860.525,1148193570757.7622,0.5484182860133392,11.780735643773603
249.0,16672538624518.355,1338005937567.425,0.5523312414910165,11.877468340777146
250.0,19687087826860.16,1556038792931.2764,0.5559137167308087,11.988596536718385
251.0,23205867970525.824,1805878483196.9778,0.5591767642686238,12.114095323737066
252.0,27301662006641.703,2091462813459.7114,0.5621323246023494,12.253930149287923
253.0,32055553531299.28,2417100501323.3394,0.5647930610324522,12.408057106026195
254.0,37557474468751.06,2787490315551.9136,0.5671722069174401,12.576423087125328
255.0,43906221646724.055,3208854394265.9263,0.5693297515814799,12.757365020837081
256.0,51216213560087.93,3692321772012.611,0.571477701659297,12.943807559266608
257.0,59626287975819.36,4246201647015.5586,0.5736407062142627,13.13493467464968
258.0,69290733225171.305,4878986566369.332,0.5758177480624593,13.330805116617698
259.0,80379355100230.02,5599950823235.409,0.578007811442997,13.531477217006852
260.0,93078176705104.5,6419185092875.618,0.5802098830227405,13.737008792596544
261.0,107590125453769.48,7347624807876.141,0.582422952834212,13.947457043780531
262.0,124135529877711.05,8397074476130.435,0.5846460152523875,14.1628784530313
