Time,J,A,S,tau
0.0,100.0,100.0,0.5845592693977626,58.21844868070997
1.0,99.73409256456216,89.59948566979708,0.5832842586441315,59.21751205907078
2.0,99.46966366851053,80.28391301350963,0.5820213039780925,60.21673617557684
3.0,99.20957222485497,71.94198535056307,0.5807695999035658,61.21599565582661
4.0,98.9533819763255,64.47149729123895,0.5795283111080657,62.215286053299394
5.0,98.70068819565951,57.78109068225824,0.578296618554088,63.21460333850903
6.0,98.45111327167481,51.78900515794181,0.5770737184208949,64.21394383646813
7.0,98.20430286413557,46.42210908667666,0.5758588210601565,65.2133041722444
8.0,97.9599225651868,41.61501197045869,0.5746511500058846,66.21268122356922
9.0,97.71765482710674,37.30917548597365,0.5734499409308287,67.21207207730566
10.0,97.4771962272238,33.452226050554046,0.5722544406290759,68.21147399060914
11.0,97.23825501651407,29.997320908228552,0.5710639060480416,69.21088435587238
12.0,97.00054690282235,26.902517434038312,0.5698776034524751,70.21030063602059
13.0,96.7636797133424,24.130392731011,0.5686948173238592,71.20971845153377
14.0,96.52743568766458,21.647305449817942,0.5675148246462624,72.20913626704696
15.0,96.29169102689269,19.423043134584454,0.5663369008043766,73.20855408139593
16.0,96.0562134006584,17.430673026933924,0.5651603361606441,74.2079700595612
17.0,95.82063131919864,15.646226734612931,0.563984437683001,75.20738000297612
18.0,95.58467331772152,14.048141676800077,0.5628085070469991,76.20678134561251
19.0,95.34806689395651,12.617118158715908,0.5616318484317292,77.20617147267548
20.0,95.11053313358589,11.335890296861272,0.5604537679915128,78.20554763207114
21.0,94.8717845456549,10.188997343745346,0.5592735730556423,79.20490689901071
22.0,94.6315227346457,9.162607954831882,0.558090571363376,80.20424613723426
23.0,94.3894358066188,8.244353820040713,0.5569040703263154,81.20356195500797
24.0,94.14519557624931,7.423167004751357,0.5557133763274174,82.20285065715468
25.0,93.8984544463327,6.689155273306475,0.5545177940599962,83.20210819070024
26.0,93.64884181520544,6.033483407903901,0.5533166259004465,84.20133008147613
27.0,93.39596013327387,5.448258022919829,0.5521091713429517,85.20051136382328
28.0,93.13938038354958,4.926439763763523,0.5508947264860404,86.19964649924317
29.0,92.87863677480343,4.461759418089883,0.549672583570976,87.1987292800265
30.0,92.61322083788419,4.048637272218458,0.5484420306164702,88.19775272117404
31.0,92.34257454702161,3.6821224501473138,0.5472023511301214,89.19670893363542
32.0,92.06608215605289,3.3578348027442333,0.5459528239093582,90.19558897292532
33.0,91.78306100733292,3.0719093817123437,0.5446927229874825,91.19438266755887
34.0,91.49275069867048,2.8209608532011514,0.5434213177010497,92.19307841594302
35.0,91.19430012104208,2.602038159650077,0.5421378729236621,93.19166294202881
36.0,90.88675312959248,2.412596702952505,0.5408416495171814,94.19012102377556
37.0,90.56903021911965,2.250472645214221,0.5395319049781923,95.18843514488889
38.0,90.23990909640283,2.1138631579633604,0.5382078943990077,96.18658512323125
39.0,89.8979993883363,2.001308375566245,0.5368688717316814,97.18454762598519
40.0,89.54171469489472,1.9116885693112116,0.5355140914464603,98.18229563124827
41.0,89.16923908954685,1.8442153135566923,0.5341428106524233,99.17979777996987
42.0,88.77848856550958,1.798430410758442,0.532754291719771,100.17701762683706
43.0,88.36705446434526,1.7742591643744936,0.5313478058629016,101.17391254379613
44.0,87.93216363301812,1.7719539815591798,0.5299226368246545,102.1704329286282
45.0,87.47059788738022,1.7921733757049532,0.5284780863222338,103.16652063312793
46.0,86.97862429380673,1.835992023630145,0.5270134798429523,104.16210758153063
47.0,86.45189385378168,1.90496086540014,0.5255281744512754,105.15711376829191
48.0,85.88533440873594,2.0011629272982665,0.5240215675973142,106.15144512554092
49.0,85.27301878109728,2.127273683815479,0.5224931079702334,107.1449908871056
50.0,84.6080039524653,2.286664561058788,0.5209423087715223,108.13762036433445
51.0,83.88214805946785,2.4834982191672985,0.5193687631781021,109.1291792522379
52.0,83.08588918232304,2.722858338068019,0.5177721630514321,110.11948514710161
53.0,82.56000397466953,3.1875228475359303,0.5161523213355717,111.10832218653063
54.0,82.28609028978056,3.8452626794401077,0.5145091981022099,112.09543483896472
55.0,82.07727493522431,4.6012939442936105,0.5128429319309373,113.08052037992152
56.0,81.95261288611736,5.47267630775913,0.5111538761992639,114.06322019100192
57.0,81.93628753560218,6.479532106585852,0.5094426417903046,115.04310946959137
58.0,82.058981957401,7.645573012245245,0.5077101460390461,116.01968538511743
59.0,82.35962845485675,8.998708124683178,0.5059576694174076,116.99235327178081
60.0,82.88760355975116,10.571722969950159,0.5041869191401872,117.96041102596892
61.0,83.70551071109435,12.403033759949865,0.5024001002002236,118.92303152269639
62.0,84.89267818142103,14.53751137067308,0.5005999933829409,119.87924309077023
63.0,86.54951653938944,17.027338578342388,0.4987900371975571,120.82790872010972
64.0,88.80298665008016,19.932890997963565,0.49697441297949685,121.76770407023673
65.0,91.81331333149112,23.32356804582112,0.49515812665242553,122.69709577793034
66.0,95.78224683084788,27.278507534582804,0.4933470814594564,123.61432133720807
67.0,100.9631130140112,31.88709629878012,0.49154813380959594,124.51737235653928
68.0,107.67277692720066,37.24911981700485,0.48976911826622205,125.40398457093436
69.0,116.3058871495557,43.474437072030206,0.4880188315733126,126.27163700671832
70.0,127.35126113313513,50.68199260381475,0.48630695845838506,127.11756462009339
71.0,141.41046476362246,58.998018049017524,0.48464392588348276,127.93878783199494
72.0,159.21837392291764,68.55331489557581,0.48304067529424105,128.73216174442933
73.0,181.6648245907568,79.47955823287326,0.48150834642367696,129.49444715377743
74.0,209.81696200209163,91.90470382570643,0.48005787918523257,130.2224021422807
75.0,244.9406561023335,105.94770714385982,0.4786995503518015,130.91289080245275
76.0,288.519738874012,121.7129406805311,0.47744247844278814,131.56300144135622
77.0,342.271809620249,139.28477344029497,0.47629413679067417,132.17016469888526
78.0,408.1585338543724,158.72294323377963,0.4752599298883477,132.7322584145687
79.0,488.39015835300665,180.05919979493117,0.4743428759652381,133.2476883866678
80.0,585.4230522051614,203.29565592984935,0.4735434347471493,133.71543514985154
81.0,701.9505031515924,228.40506122198207,0.4728595014597717,134.1350610671498
82.0,840.887803937554,255.3328539114337,0.47228655600875125,134.50667966195869
83.0,1005.3520925088302,284.0007813100156,0.4718179510793258,134.83089073334602
84.0,1198.6391554617287,314.31153958592404,0.47144529292105847,135.10869203345106
85.0,1424.1981369125472,346.1539236671332,0.47115887095654563,135.34137801143137
86.0,1685.605623245011,379.4079836152543,0.47094809351696254,135.5304360605222
87.0,1986.5401443861022,413.9497468088543,0.47080189061594724,135.67744982282852
88.0,2330.7575651583884,449.6552483912848,0.47070906137708657,135.78401523539165
89.0,2722.0676252312005,486.40372096302025,0.47065855230235853,135.85167285906286
90.0,3164.311544547272,524.0799280862744,0.4706396642124137,135.8818571965057
91.0,3661.340517783355,562.5756855616876,0.4706421913402724,135.87586235286815
92.0,4216.994441703169,601.7907311159382,0.47065650475677706,135.8348210838054
93.0,4835.080953872903,641.633006626031,0.4706735870595749,135.75969578242507
94.0,5519.353791712668,682.0185466156744,0.47068503233951975,135.65127795900077
95.0,6273.490638207905,722.8710725771556,0.4706830219574376,135.51019368176628
96.0,7101.069401356937,764.1214158617671,0.4706602844492204,135.3369129797655
97.0,8005.544518643073,805.7067697982388,0.47061004188408373,135.13176289423936
98.0,8990.220684919188,847.5699709588982,0.4705259575424464,134.89494013404692
99.0,10058.225496323726,889.6587373434122,0.470402080431622,134.6265247926147
100.0,11212.481527933913,931.9249372559054,0.4702327915528868,134.3264938731671
101.0,12455.676156009684,974.3239011810368,0.47001275509066825,133.99473375763122
102.0,13790.231382781527,1016.8137958936818,0.469736873675819,133.6310519454732
103.0,15218.273294104249,1059.3550471279527,0.46940024896508814,133.2351877561019
104.0,16741.60105560969,1101.909849096915,0.46899814817224805,132.806821701964
105.0,18361.64871743353,1144.44172556824,0.46852597711271066,132.34558330861472
106.0,20079.450980535803,1186.915080102193,0.4679792550411334,131.85105929563778
107.0,21895.657553211862,1229.2948578645646,0.4673535900974851,131.32280245341346
108.0,23810.380287694632,1271.546423963908,0.4666446828838064,130.76032983545545
109.0,25823.37382769803,1313.6349742442012,0.4658482870219311,130.1631399699142
110.0,27933.703860298876,1355.5256700215475,0.46496023837154815,129.5307029491506
111.0,30140.102294897184,1397.1833452726585,0.4639764100970148,128.86247852500912
112.0,32440.581429077723,1438.5720947629093,0.4628927506287812,128.1579088002257
113.0,34832.669675818404,1479.6554377902935,0.4617052591500013,127.41642741800665
114.0,37313.25216722229,1520.396227685697,0.4604100026529599,126.63745920217087
115.0,39878.61118177791,1560.7563165675379,0.45900312113303277,125.82042427494855
116.0,42524.44981003713,1600.696886489001,0.45748082707680254,124.96473954272246
117.0,45245.806952503815,1640.177987880985,0.45583943083951056,124.0698209729847
118.0,48037.13012135519,1679.1587727497126,0.45407534101053487,123.13508542279786
119.0,50892.26488178868,1717.5974807321852,0.4521850787236413,122.15995224221041
120.0,53804.42963359318,1755.451355865893,0.45016530255388604,121.14384536939579
121.0,56762.0486878531,1791.5301466964443,0.5361926554576515,52.23427337119417
122.0,59765.14997594517,1911.850237083199,0.5469365842251304,45.083495905022694
123.0,63031.61492511029,2116.008909811413,0.5481015039084496,41.88003225711305
124.0,66764.81258703225,2407.313319593269,0.5465874802526995,39.69126692262169
125.0,71179.49742613321,2792.8858401458106,0.5438592950256705,37.9653477608831
126.0,76507.80709192039,3279.8557384010164,0.5404855407336349,36.50221590904729
127.0,82997.12152174136,3874.328469989937,0.5367443176406432,35.20887418262249
128.0,90905.5763370813,4580.913884008484,0.5327895657144364,34.03573777775366
129.0,100496.01159742587,5402.498896539631,0.528713093849234,32.953910325228094
130.0,112029.22182558534,6340.154096744902,0.5245724321252835,31.945389704447006
131.0,125756.92839820465,7393.1322276562605,0.5204049243470317,30.99831635172034
132.0,141914.9385405374,8558.926671494077,0.5162354678893804,30.104474163973276
133.0,160716.55024944924,9833.377283348358,0.5120810370483291,29.257894883330085
134.0,182346.41343015575,11210.80475229825,0.507953431895892,28.454047465862224
135.0,206955.47315845982,12684.163879406113,0.5038610108828105,27.68934781782182
136.0,234655.8640368028,14245.217441701448,0.4998098047346427,26.960859646032507
137.0,265518.1346314484,15884.709645946517,0.49580424873633616,26.266100482988776
138.0,299568.2867143572,17592.5402578207,0.49184765978391387,25.60292152629223
139.0,336786.08736589336,19357.949692476785,0.48794257276749725,24.96942538983956
140.0,377104.8949120062,21169.691465636173,0.48409096196818036,24.363910516513677
141.0,420411.92544054607,23016.198775412606,0.48029439185179795,23.784833845454422
142.0,466549.44989606016,24885.748366798238,0.47655412867626185,23.230784227438786
143.0,515317.36425304384,26766.61056037159,0.47287121612830285,22.70046201372241
144.0,566460.4628296432,28667.458229134376,0.469246529549913,22.192664658675653
145.0,619805.5185245867,30834.87846998,0.46568080710723725,21.70627423121134
146.0,675917.1650851697,33569.19123527244,0.4621746865717352,21.240249496951417
147.0,736106.9068016879,37165.03039106579,0.4587287229925518,20.793617976697647
148.0,802376.9911308909,41915.39654729244,0.455343403733567,20.3654696901179
149.0,877355.0447428848,48098.26588108204,0.45201915989054636,19.954951832023312
150.0,964189.7579215996,55962.36647848498,0.4487563748739117,19.56126414147381
151.0,1066428.7920666104,65668.84501532982,0.4454894982401675,19.188161753345785
152.0,1187627.653068239,77182.66695595234,0.44201448097559104,18.848129530107368
153.0,1330915.7697644534,90488.48940901078,0.43831660471181644,18.54003701492469
154.0,1499042.8591463873,105518.67201502246,0.43439589683696894,18.26197422874003
155.0,1694240.721771511,122153.24870555552,0.43025359363461135,18.01218708444931
156.0,1918116.6122470952,140229.02396453253,0.42589212142073574,17.78906083759093
157.0,2171583.7914687977,159549.02185481784,0.4213150711003329,17.59110576748756
158.0,2454826.9216849436,179891.78064159118,0.4165271667586156,17.4169447614087
159.0,2767304.5071044187,201020.11584947834,0.41153422426262315,17.265302155467673
160.0,3107777.286504325,222689.08405592255,0.4063431034354077,17.13499397369373
161.0,3474357.1242307476,244653.52977988104,0.4009616541734328,17.02491936884791
162.0,3864555.2575941645,266842.8698954856,0.3953986576945764,16.934053128417535
163.0,4275905.058713362,289600.1936178048,0.3896637549712341,16.86143850592591
164.0,4706965.956001324,313582.7882514628,0.3837673790181103,16.806181507451775
165.0,5157954.856683003,339656.2216957441,0.3777206757471376,16.76744529631222
166.0,5631062.463940435,368797.66875269276,0.371535423785404,16.7444453986282
167.0,6130499.083435605,402002.95115623897,0.3652239509657917,16.73644530573817
168.0,6662224.415741387,440608.9685524296,0.35891882718911455,16.736377006495257
169.0,7234964.5035620695,486002.78012966935,0.35276986745049826,16.736377006495257
170.0,7859444.40725025,538988.2309405213,0.34678119427305387,16.736377006495257
171.0,8547041.115307717,600166.7681339085,0.340955377253721,16.736377006495257
172.0,9309238.414079214,669914.3178531034,0.33529471847085635,16.736377006495257
173.0,10157073.680758223,748370.1983218769,0.32980126122051084,16.736377006495257
174.0,11100613.859522395,835438.1305950455,0.3244767986335906,16.736377006495257
175.0,12148563.510585848,930799.2355828227,0.31932288405190073,16.736377006495257
176.0,13307850.679263448,1033932.6058023995,0.31434084188164507,16.736377006495257
177.0,14583429.599536875,1144143.1060560117,0.3095317802728362,16.736377006495257
178.0,15978129.008684833,1260591.1806018578,0.3048966023882547,16.736377006495257
179.0,17492543.657144766,1382411.0952897116,0.30043601956993893,16.736377006495257
180.0,19125293.78573576,1509000.0035573044,0.2961505654409029,16.736377006495257
181.0,20873857.89499003,1640239.93533921,0.29204060893040223,16.736377006495257
182.0,22735791.260776788,1776597.286045773,0.28810636866401645,16.736377006495257
183.0,24710022.549453028,1919134.523692264,0.2843479268384761,16.736377006495257
184.0,26798019.64037941,2069460.527361316,0.28076524278574677,16.736377006495257
185.0,29004646.602355223,2229796.6769024218,0.27735816775895866,16.736377006495257
186.0,31339334.479144394,2403046.2997453506,0.27412645841821026,16.736377006495257
187.0,33816999.3664004,2592351.228393115,0.2710697902895903,16.736377006495257
188.0,36458092.74639114,2800892.7847307376,0.2681877713316687,16.736377006495257
189.0,39288155.04436672,3031752.7892272533,0.26547995463219026,16.736377006495257
190.0,42337326.38697395,3287785.5670731757,0.262945851026678,16.736377006495257
191.0,45639421.98731597,3571515.535808255,0.26058494090744877,16.736377006495257
192.0,49231199.04117121,3885054.004346856,0.2583966858341625,16.736377006495257
193.0,53151249.726630606,4230046.811960229,0.25638053909697744,16.736377006495257
194.0,57439256.6543528,4607642.694887112,0.25453595628301773,16.736377006495257
195.0,62134880.36021729,5018485.788219029,0.2528624043628613,16.736377006495257
196.0,67277088.47216655,5462761.715047612,0.25135937070355147,16.736377006495257
197.0,72903494.56239316,5940373.6966226315,0.2500263711862932,16.736377006495257
198.0,79050134.90790884,6451237.841991911,0.2488629575071429,16.736377006495257
199.0,85751899.16977796,6995612.434215686,0.24786872359176854,16.736377006495257
200.0,93043628.98058952,7574407.037463273,0.2470433112662894,16.736377006495257
201.0,100961789.265248,8189444.065975859,0.2463864153995646,16.736377006495257
202.0,109546505.3292305,8843710.66722212,0.24589778798013365,16.736377006495257
203.0,118844049.65346237,9541658.31424818,0.2455772414631704,16.736377006495257
204.0,128909747.97507356,10289302.968767773,0.24542465103231373,16.736377006495257
205.0,139810951.58767802,11094187.836672772,0.24543995615847264,16.736377006495257
206.0,151629901.2272623,11965294.25129248,0.24562316167739123,16.736377006495257
207.0,164466275.25623432,12912911.891405553,0.24597433762055312,16.736377006495257
208.0,178439268.1472893,13948485.72313849,0.24649361819652466,16.736377006495257
209.0,193689362.4057598,15084431.95428718,0.24718119977897926,16.736377006495257
210.0,210380217.67812717,16333952.943434928,0.24803733876420161,16.736377006495257
211.0,228699700.07676864,17710867.372964583,0.2490623480051411,16.736377006495257
212.0,248860631.03137574,19229443.10943882,0.25025659220697966,16.736377006495257
213.0,271101969.94958013,20904256.243859135,0.2516204832164368,16.736377006495257
214.0,295689331.6393492,22750147.608066987,0.2531544741562434,16.736377006495257
215.0,322915191.8185749,24782326.51771818,0.2548590523657067,16.736377006495257
216.0,353100431.6600895,27016630.872932985,0.2567347322536588,16.736377006495257
217.0,386596320.0467065,29469971.737605236,0.2587820471629462,16.736377006495257
218.0,423786641.53586984,32160929.620745722,0.26100154009001725,16.736377006495257
219.0,465092504.47362816,35110460.90732041,0.263393754336604,16.736377006495257
220.0,510978862.84370893,38342809.16886696,0.2659592232128142,16.736377006495257
221.0,561961467.6955652,41886540.91481737,0.2686984588392991,16.736377006495257
222.0,618617630.6785502,45775554.737749204,0.2716119409470129,16.736377006495257
223.0,681599982.3783448,50050141.89020779,0.27470010470404893,16.736377006495257
224.0,751650076.0015101,54758080.16251437,0.2779633279388372,16.736377006495257
225.0,829615947.3185208,59955615.501050174,0.28140191859114067,16.736377006495257
226.0,916473560.2428899,65708488.00261533,0.2850161011136392,16.736377006495257
227.0,1013346808.3932828,72093001.40817723,0.2888060026679399,16.736377006495257
228.0,1121534322.8304768,79196889.05944717,0.2927716398157564,16.736377006495257
229.0,1242535069.7804725,87120443.01199657,0.2969129037049255,16.736377006495257
230.0,1378077788.0936413,95977378.56548816,0.3012295469784219,16.736377006495257
231.0,1530152952.4878187,105896024.01911053,0.30572116872773386,16.736377006495257
232.0,1701047653.9286675,117020362.08172242,0.31038720167187256,16.736377006495257
233.0,1893381697.2126522,129511671.89386259,0.3152268974526325,16.736377006495257
234.0,2110150809.328445,143550203.01431283,0.3202393143542883,16.736377006495257
235.0,2354768882.4865093,159337810.21238795,0.32542330347857235,16.736377006495257
236.0,2631124144.8931537,177100811.91431445,0.3307774973078426,16.736377006495257
237.0,2943632007.686347,197094247.89621735,0.3363002973154091,16.736377006495257
238.0,3297311707.623978,219606618.7724854,0.3419898636935915,16.736377006495257
239.0,3697857226.762064,244966449.47821063,0.3478441049460672,16.736377006495257
240.0,4151745224.2975297,273549491.3134242,0.3538606691162289,16.736377006495257
241.0,4666333965.108563,305788094.54477453,0.3600369358701813,16.736377006495257
242.0,5250024747.162344,342164206.4660853,0.36636221015177034,16.736687390912564
243.0,5912299683.077869,382636674.73469836,0.3725864856855379,16.747098102409886
244.0,6662087894.867813,427345995.05712986,0.3785977220746206,16.77183670808647
245.0,7508730223.136223,476669867.7747772,0.3843899540719665,16.810941707328233
246.0,8462394219.140152,531016918.4863526,0.38995867611091595,16.864440433406372
247.0,9534129916.204971,590826838.1315974,0.39530079109478267,16.932349294299325
248.0,10735912309.517317,656569852.5747792,0.40041454709885,17.01467401978605
