Time,J,A,S,tau
0.0,100.0,100.0,0.6425237420352813,64.70736610913268
1.0,99.92660083739139,89.69128924177642,0.6420557611960739,65.70620780729867
2.0,99.85440418019932,80.44584370891975,0.6415952478274931,66.70543948202712
3.0,99.78331370311012,72.15637338943219,0.6411416659907174,67.70471021649696
4.0,99.71326298287083,64.72356692592916,0.6406946055444206,68.70401631588054
5.0,99.64418769287535,58.058528598703354,0.6402536675767023,69.70335458329255
6.0,99.57602547137051,52.08163659497355,0.6398185284087559,70.70270749501093
7.0,99.508715786001,46.72154191364236,0.6393888632481078,71.70206042134984
8.0,99.4421998114546,41.914363322239666,0.6389642942501115,72.70141334768876
9.0,99.37642031063584,37.60286272981682,0.6385444537047295,73.70076627402767
10.0,99.31132151371884,33.735738163030746,0.6381289833234278,74.70011920036659
11.0,99.24684900801218,30.26704681011089,0.637717533531694,75.69947212670549
12.0,99.18294962966011,27.155609492581537,0.6373097627733373,76.6988250530444
13.0,99.11957135447575,24.36451058631089,0.6369053368092181,77.69817797938332
14.0,99.05666319733177,21.86068369994013,0.6365039280709189,78.69753090572223
15.0,98.99417511220393,19.614481693134003,0.6361052150185983,79.69688383206115
16.0,98.93205789229673,17.59932244238691,0.6357088814993751,80.69623675840005
17.0,98.8702630765327,15.791390724501218,0.6353146161465619,81.69558968473896
18.0,98.80874285595841,14.16932786755893,0.6349221117783543,82.69494261107788
19.0,98.74744998087398,12.713980450716438,0.6345310648011703,83.69429553741678
20.0,98.6863376722088,11.408185387824222,0.6341411746402337,84.6936484637557
21.0,98.62535953247404,10.23654602814487,0.6337521431674344,85.6930013900946
22.0,98.5644694577674,9.185253610435021,0.6333636741359479,86.69235431643351
23.0,98.50362155199518,8.241932035660238,0.6329754726290618,87.69170724277242
24.0,98.44277004068165,7.3954764292005715,0.632587244506353,88.69106016911132
25.0,98.381869185846,6.635926093065481,0.6321986958567161,89.69041309545024
26.0,98.32087320116386,5.95435218499787,0.6318095324531847,90.68976602178914
27.0,98.25973616704015,5.342741398333154,0.6314194592071832,91.68911894812805
28.0,98.19841194644748,4.793905419878064,0.6310281796276914,92.68847187446697
29.0,98.13685409922385,4.301399511119726,0.6306353952704684,93.68782480080587
30.0,98.07501579688416,3.8594387654899154,0.6302408051905855,94.68717772714479
31.0,98.01284973757423,3.4628334823082754,0.6298441053958618,95.68653065348369
32.0,97.95030805778075,3.1069300464699974,0.6294449882794146,96.6858835798226
33.0,97.88734224540461,2.7875506967451926,0.6290431420609811,97.68523650616152
34.0,97.82390305202507,2.5009473253936343,0.6286382502230216,98.68458943250042
35.0,97.75994040036353,2.2437584778231967,0.6282299909159385,99.68394235883933
36.0,97.69540329417245,2.0129660783457513,0.6278180363788894,100.68329528517823
37.0,97.63023972602772,1.8058623496655626,0.6274020523471077,101.68264821151715
38.0,97.56439657894829,1.620018486940999,0.6269816974195157,102.68200113785606
39.0,97.49781953167427,1.4532536052065013,0.6265566224472384,103.68135406481116
40.0,97.43045296021987,1.303611014976394,0.6261265105611077,104.6806974943256
41.0,97.36223983211879,1.1693353659458687,0.6256910856546936,105.68001025406045
42.0,97.29312160568087,1.0488503952929287,0.6252499882505078,106.67928834611621
43.0,97.2230381235533,0.9407418856343912,0.624802846826381,107.67852814671387
44.0,97.15192749815184,0.8437409637832629,0.6243492802623288,108.67772566115342
45.0,97.07972600350581,0.7567081803195357,0.6238888973329814,109.67687647783421
46.0,97.0063679591053,0.6786212476772352,0.6234212961766905,110.67597571532627
47.0,96.93178560520907,0.608562819251766,0.6229460637438926,111.6750179609684
48.0,96.85590898592287,0.5457091186694081,0.6224627753154353,112.67399720441304
49.0,96.77866582167555,0.48932110173356536,0.6219709939956446,113.67290676051805
50.0,96.69998137328211,0.438735503898833,0.6214702702001688,114.67173918004748
51.0,96.61977831496499,0.39335673416210903,0.6209601412321839,115.67048615256616
52.0,96.5379765939529,0.3526504881143644,0.6204401308375758,116.66913839304887
53.0,96.45449328238696,0.3161371953848687,0.6199097487806884,117.66768551090338
54.0,96.3692424391739,0.28338624025265075,0.619368490531738,118.66611586682673
55.0,96.28213495541148,0.25401133897865164,0.618815836947756,119.66441640478278
56.0,96.19307839354502,0.22766574938085726,0.6182512540137826,120.66257245853424
57.0,96.10197683721019,0.20403814773749507,0.6176741927271041,121.66056753910702
58.0,96.00873072151926,0.18284927911712806,0.6170840890062297,122.65838308425037
59.0,95.91323665933434,0.16384845931087422,0.6164803637186416,123.65599817099162
60.0,95.81538727864773,0.14681063146017506,0.6158624228960462,124.65338919821497
61.0,95.71507103726506,0.13153393603922792,0.6152296580317278,125.65052951121719
62.0,95.6121720366881,0.11783715969936034,0.6145814465806158,126.64738897267134
63.0,95.5065698471462,0.10555763267251368,0.6139171527122538,127.64393348643338
64.0,95.39813930693258,0.0945494639467052,0.6132361282431816,128.64012443291227
65.0,95.2867503252299,0.08468168319410393,0.6125377138899409,129.63591802666778
66.0,95.17226769569889,0.07583673774691611,0.6118212408732656,130.63126459997451
67.0,95.05455088172366,0.06790920948879116,0.6110860328583875,131.62610775207105
68.0,94.93345381061738,0.06080446351204664,0.6103314083783645,132.62038338595306
69.0,94.80882467775353,0.05443757292507876,0.6095566837570774,133.61401862955142
70.0,94.68050572032512,0.048732384999798026,0.6087611766105289,134.60693055421078
71.0,94.54833300678825,0.04362053986547158,0.6079442100495457,135.59902473187006
72.0,94.41213623495639,0.03904070079613352,0.6071051176042164,136.59019361341052
73.0,94.27173849864893,0.034937873868180425,0.606243249086446,137.5803146043241
74.0,94.12695607802385,0.03126269652460854,0.6053579774371334,138.56924791248386
75.0,93.97759823691638,0.027970886126438475,0.6044487066184557,139.55683412358857
76.0,93.8234669890201,0.025022743828693714,0.6035148809546024,140.5428913322294
77.0,93.66435689697558,0.022382639692806086,0.6025559958018659,141.52721195938463
78.0,93.50005487659551,0.0200186172947839,0.6015716097121608,142.50955916533312
79.0,93.33033997205065,0.017902031612871256,0.6005613587229418,143.48966262752182
80.0,93.15498317426142,0.01600717707722337,0.5995249723451824,144.46721390664655
81.0,92.97374724257361,0.014311003837827217,0.5984622916136082,145.44186123482734
82.0,92.78638650185745,0.012792853242891521,0.597373290070093,146.41320343497878
83.0,92.59264669391426,0.011434189675257906,0.5962580967200644,147.38078334439257
84.0,92.39226483068987,0.010218396773905573,0.595117021652605,148.3440804646717
85.0,92.18496903024729,0.009130584052173235,0.5939505853511309,149.3025025076854
86.0,91.97047841853305,0.008157393967889993,0.5927595498755969,150.25537644699983
87.0,91.74850303234271,0.007286855440349116,0.5915449530630355,151.20193864753236
88.0,91.5187437157396,0.006508242376657975,0.5903081466625046,152.14132377422087
89.0,91.28089209355808,0.005811935180699159,0.5890508352877165,153.07255344701392
90.0,91.03463054700174,0.005189315362148641,0.5877751178566408,153.9945240453158
91.0,90.77963219710732,0.0046326619728172015,0.5864835317526075,154.9059935501014
92.0,90.51556097600945,0.0041350520562994444,0.5851790948130686,155.80556889122607
93.0,86.24196980838973,4.386346042476623,0.5838653478410752,156.69169287266826
94.0,82.00318201524632,9.823867394953718,0.5825463930243681,157.5626320244194
95.0,78.51278370074532,15.898504703425141,0.5812269283635157,158.41646526209558
96.0,76.04591716431692,22.68574747451775,0.5799122730779838,159.25107479982816
97.0,74.94164830185518,30.267665098748658,0.5786083821412223,160.06413978293034
98.0,75.61499880638581,38.73281592435448,0.5773218452550046,160.85313399699984
99.0,78.57078314454806,48.17596487198427,0.5760598678275651,161.61532828577276
100.0,84.41905769881932,58.69754702531065,0.574830227815033,162.34779953539393
101.0,93.89243450018708,70.40285764827011,0.5736412063398848,163.047446781554
102.0,107.86501208681555,83.40092455296882,0.5725014875544671,163.71101585180256
103.0,127.37279701161951,97.80304767047204,0.571420025917354,164.33513313231063
104.0,153.63532550071264,113.72099970615847,0.5704058799552577,164.91634883564646
105.0,188.07803890407814,131.2649067711884,0.5694680138118885,165.45118951103183
106.0,232.35484328527295,150.5408528635425,0.5686150703118782,165.93621884595515
107.0,288.3701435181214,171.6482805797645,0.5678551219890593,166.36810501652673
108.0,358.2995221791859,194.67728807897532,0.5671954092172924,166.74369205036018
109.0,444.6081443288008,219.7059457053961,0.5666420769091088,167.06007196702936
110.0,550.0659270540598,246.79777112503868,0.5661999228705807,167.31465396157105
111.0,677.7585205563321,275.9995049351571,0.5658721713492568,167.50522673041976
112.0,831.0931639120784,307.3393236810492,0.565660285082761,167.6300101026085
113.0,1013.7988791370491,340.8255860497951,0.5655638254181309,167.68769313499698
114.0,1229.920018370482,376.4462186812186,0.5655803714733211,167.67745562003063
115.0,1483.8033305336303,414.168723105945,0.5657054969945043,167.59897317210954
116.0,1780.0779128712254,453.9408507964756,0.5659328111283866,167.45240442095798
117.0,2123.6286853351394,495.69181853694,0.5662540510328916,167.23836352072502
118.0,2519.5632411425454,539.3340319116951,0.5666592251470526,166.95787870721688
119.0,2973.1727721024536,584.765163310813,0.567136792904755,166.61234094838014
120.0,3489.887813710696,631.8704555905992,0.5676738695904084,166.2034460575896
121.0,4075.2293222039903,680.5251353975974,0.568256446083679,165.73313341764862
122.0,4734.755856354221,730.5968091398083,0.5688696115540343,165.20352480064597
123.0,5474.0076621872895,781.9477363771675,0.5694977692181734,164.6168660450574
124.0,6298.448478600125,834.4369243062065,0.5701248409205659,163.97547315569741
125.0,7213.405768192466,887.9219763693017,0.5707344524101045,163.2816849682925
126.0,8224.009486421275,942.260664837598,0.5713100977212631,162.53782257751158
127.0,9335.130544932083,997.3122454750575,0.5718352825916382,161.74615601503382
128.0,10551.321648384244,1052.9384628632142,0.5722936446538255,160.90887853385186
129.0,11876.754899763584,1109.0043581856194,0.5726690557298204,160.0280865012468
130.0,13315.163699270366,1165.3788171456267,0.572945705167385,159.1057659055436
131.0,14869.78641634698,1221.9349385468863,0.5731081674899696,158.14378391804112
132.0,16543.311552962852,1278.5502371332336,0.5731414582684425,157.1438845378538
133.0,18337.8288659441,1335.1066924669885,0.5730310774786724,156.10768833774912
134.0,20254.788553655406,1391.4907216557533,0.5727630424222963,155.03669507593148
135.0,22294.922391794225,1447.5933346809395,0.5723239497449645,153.9322818227892
136.0,24458.255217740796,1503.3095013822488,0.5717009608483911,152.79571816986882
137.0,26744.07223480493,1558.5381999387762,0.5708818307793111,151.6281696357509
138.0,29150.8032803649,1613.1826380212094,0.56985500694238,150.43069487775497
139.0,31676.131880363868,1667.1491506127395,0.5686095421461383,149.20427065935357
140.0,34316.90356865467,1720.347867691296,0.567135193416965,147.9497861722858
141.0,37069.087356946366,1772.692106333856,0.5654224683228287,146.66805288162948
142.0,39927.89748803196,1824.0981169718993,0.5634625508483612,145.359818871521
143.0,42887.67093962352,1874.4853180028429,0.5612474474085529,144.02576611397973
144.0,45924.39069128049,1926.6879398806125,0.618078833284117,48.728172069128334
145.0,49051.84829019354,1986.2591528393737,0.6261420382778566,41.167393694987126
146.0,52300.427054783584,2143.5247588920815,0.6266073160489061,37.75474408661235
147.0,55876.23010372329,2380.0191066558664,0.6242773001149929,35.58499307925895
148.0,59953.346479181084,2691.113034225402,0.6204186447032263,34.01722739349558
149.0,64698.398244233314,3075.7923628481813,0.6155787652916417,32.80264111890019
150.0,70276.60795943363,3534.3722208218132,0.6100518244552597,31.818575223914824
151.0,76853.35308894582,4067.644834566206,0.6040178933240596,30.995601098732553
152.0,84594.0741314521,4676.463695289909,0.597597381299091,30.290705545461122
153.0,93663.12352715588,5361.511393538218,0.590876210209639,29.675482319951715
154.0,104222.17970312404,6123.1490493467445,0.5839188369445734,29.130262143738214
155.0,116428.26691815542,6961.316685143708,0.576775586793819,28.640919055376163
156.0,130431.56497770028,7875.46419682318,0.5694870395834486,28.19701450808828
157.0,146373.16030112523,8864.503051523525,0.5620867895117367,27.790657598605474
158.0,164382.8863195344,9926.780742616658,0.5546032874507252,27.41576270089365
159.0,184576.8079915955,11060.066676039789,0.5470610507249525,27.06757009683188
160.0,207055.3280435779,12261.556041110687,0.539481551852287,26.742300732931586
161.0,231901.2438525565,13527.880565329691,0.5318838235543899,26.436923284262125
162.0,259177.8317941781,14855.134506649985,0.5242849163711198,26.14898180980534
163.0,288927.45759072964,16238.909892119298,0.5167002417790958,25.876468003707387
164.0,321170.678496585,17674.336574298926,0.5091438239253433,25.617726981254002
165.0,355905.33848956594,19156.13267001383,0.5016284978968911,25.371385379803886
166.0,393106.1618045432,20678.65965372122,0.4941660629544312,25.136295925540608
167.0,432724.72117369116,22235.981766952133,0.48676740319692513,24.911494276995253
168.0,474689.7297622395,23821.96367400805,0.4794425833528272,24.696165166630202
169.0,518903.39640716935,25420.860519562077,0.4722009289704402,24.48961548883797
170.0,565223.2302649874,27079.362600578697,0.46505108305648235,24.291252303147413
171.0,613671.9477095363,28930.933773186873,0.45800106416020364,24.1005662432894
172.0,664624.6833949263,31097.24354881207,0.4510583078477417,23.917117215435823
173.0,718747.1247511561,33685.24548800524,0.44422970394864053,23.740522985625947
174.0,776946.6811231722,36793.28331219492,0.43752162809600875,23.570449867738358
175.0,840336.7210199658,40512.63351552571,0.4309399697713549,23.406605070282648
176.0,910204.836543448,44927.56655272721,0.4244901571761021,23.248730367378087
177.0,987981.7064658442,50114.82561023927,0.41817717967162066,23.09659687262878
178.0,1075208.6403217525,56142.890466346435,0.41200560890443344,22.950000690077232
179.0,1173505.6430100647,63071.1863455458,0.40597961790976095,22.808759302224935
180.0,1284538.4103938474,70949.35873909193,0.4001029995393345,22.672708547385458
181.0,1409985.8555496333,79816.68835156232,0.39437918452173987,22.541700069202697
182.0,1551508.5645948662,89701.67647103257,0.3888112588699288,22.415599182244883
183.0,1710716.8121266358,100621.7812811289,0.3834019799418273,22.29428311528957
184.0,1889146.2458988267,112583.43245157841,0.37815379391410675,22.177639435467707
185.0,2088227.6133280569,125582.16272784917,0.37306885131734274,22.065564823506048
186.0,2309268.4635466244,139603.03271016682,0.3681490244575112,21.957963925316086
187.0,2553434.3121853205,154621.10273313374,0.363395921496732,21.85474847614699
188.0,2821730.951608336,170602.18144056023,0.3588109039174433,21.75583648364185
189.0,3114996.2692949446,187503.64518912765,0.354395101701705,21.66115155174726
190.0,3433892.5264182608,205273.65701507396,0.3501494285521903,21.570622310336518
191.0,3778896.9279957158,223849.57846989945,0.3460745976007491,21.484181904107814
192.0,4150292.35717495,243227.53272691023,0.3421711355817106,21.401767582575836
193.0,4548376.319721443,263553.9563780208,0.33843939894876895,21.32332029698348
194.0,4973871.008305402,285109.1525928998,0.3348795863511923,21.248784412094793
195.0,5428226.221647081,308273.24560488394,0.33149175335717435,21.1781074227343
196.0,5913826.812101998,333503.71756422205,0.32827582639360464,21.111239695117742
197.0,6434134.262261042,361318.0903698784,0.32523161495516656,21.048134272388076
198.0,6993776.961831486,392277.74808945786,0.3223588246076493,20.98874667747466
199.0,7598587.569046423,426973.64157911093,0.31965706862163223,20.933034754649775
200.0,8255619.906216651,466012.78725782677,0.3171258792836451,20.8809585285472
201.0,8973117.32674015,510005.99823163584,0.3147647188540711,20.832480069459578
202.0,9760460.75345298,559556.7907065459,0.31257298926509736,20.787563388993288
203.0,10628108.259576509,615251.4358422848,0.3105500418875068,20.746174334432784
204.0,11587492.287805988,677650.5620843971,0.30869518603203766,20.708280498672963
205.0,12650934.876304777,747281.8354556502,0.3070076970270807,20.673851144969696
206.0,13831541.887333447,824634.388525011,0.30548682372828834,20.64285712728931
207.0,15143079.439996917,910154.386469955,0.3041317947581775,20.615270831427026
208.0,16599892.923395008,1004242.0553272556,0.30294182487310595,20.591066111379266
209.0,18216773.2646472,1107249.9957865898,0.3019161196592538,20.57021823805951
210.0,20008898.143769816,1219482.5521501924,0.30105388060125665,20.552703848713882
211.0,21991699.14506639,1341194.7511999477,0.3003543081644975,20.538500904755757
212.0,24180811.427605957,1472592.3110983665,0.299816605427436,20.527588645425656
213.0,26591978.52922809,1613884.8935242747,0.29943998021253054,20.519947558765338
214.0,29241135.943757396,1765404.9643636874,0.29922364654604416,20.515559338869686
215.0,32144842.431362197,1927708.445787777,0.2991668261694029,20.514406857331885
216.0,35320893.99058832,2101642.8173160623,0.2992687485882086,20.5164741383364
217.0,38789075.268886805,2288390.1732231444,0.2995286507284171,20.521746326718233
218.0,42571999.271636955,2489494.9573577256,0.29994577625196706,20.530209663780884
219.0,46696007.1642703,2706881.1901635993,0.3005193742495924,20.541851470034782
220.0,51192000.26163795,2942859.19119537,0.3012486967200086,20.55666012372047
221.0,56096291.695060685,3200122.160388923,0.3021329961983311,20.57462504021715
222.0,61451466.00323018,3481738.194224218,0.3031715228712274,20.59573665847373
223.0,67307164.1642757,3791139.323918701,0.3043635207414719,20.619986431687103
224.0,73720740.49539074,4132104.0503498632,0.30570822340417814,20.647366812174507
225.0,80757945.42716114,4508737.562701027,0.30720484978218027,20.677871242205836
226.0,88493618.44791146,4925451.655692707,0.30885259932830866,20.71149415183632
227.0,97012115.27614284,5386944.823873811,0.31065064627653005,20.748230956148365
228.0,106407761.83766176,5898179.283988887,0.31259813424648825,20.788078051550848
229.0,116785322.26061884,6464359.547843708,0.3146941704560561,20.83103281971908
230.0,128260388.88563739,7090913.075717779,0.31693781926441056,20.877093638760435
231.0,140959471.1168577,7783471.586795622,0.31932809554846964,20.926259890751066
232.0,155020251.96988222,8547851.68108726,0.3218639583328526,20.978531974941262
233.0,170591869.30113,9390035.214532161,0.3245443039288339,21.033911330271184
234.0,187834801.58067703,10316166.384593869,0.32736795848184225,21.092400463384163
235.0,206920828.25444755,11332602.869162807,0.3303336711961343,21.15400297556561
236.0,228033258.37358022,12446033.326243576,0.3334401073079263,21.218723600524527
237.0,251367476.02466172,13663643.46997668,0.3366858405048004,21.286568255026854
238.0,277131411.00020206,14993314.19603041,0.34006934560070506,21.357544092213814
239.0,305546806.4397489,16443829.838418424,0.34358899174667074,21.431659561762807
240.0,336851014.95439315,18025098.66470568,0.34724303517835314,21.50892448608729
241.0,371298911.0452177,19748387.794235814,0.35102961156073953,21.58935015365027
242.0,409165078.9822133,21626546.48496966,0.35494672945766004,21.672949414571875
243.0,450746665.3837637,23674223.203475934,0.3589922636531167,21.759736794641263
244.0,496366708.83429044,25908083.57746408,0.36316394789310497,21.84972863472272
245.0,546376894.971164,28347025.105649013,0.36745936810993424,21.942943248412977
246.0,601160930.0432148,31012358.984992214,0.3718759565227165,22.039401090574856
247.0,661138211.1643918,33927985.15866385,0.3764109851883956,22.139124958443947
248.0,726767345.589164,37120567.23363715,0.3810615589982635,22.24214023383998
