Time,J,A,S,tau
0.0,100.0,100.0,0.7552382865523293,26.352308690091764
1.0,3264.6029774558247,792.0362435677487,0.7532343642209471,26.292605639925817
2.0,12220.305138064125,1456.9025926821216,0.7511648288799828,26.23104409801194
3.0,26639.790795144032,2095.448068435689,0.749030321107876,26.16764046267313
4.0,46206.29064216711,2708.50045263663,0.7468315184379392,26.102411319255133
5.0,70613.39923241638,3296.8634514689093,0.7445691501828904,26.03537387518515
6.0,99564.88383408102,3861.31740675562,0.7422439970876317,25.96654595635707
7.0,132774.51698282183,4402.619930380973,0.7398568909403059,25.895946003840642
8.0,169965.88629880702,4921.506584941276,0.7374087140274597,25.82359306949142
9.0,210872.2234816596,5418.691503198179,0.7349003985621757,25.749506812050946
10.0,255236.2110552917,5894.8680583584655,0.7323329259936477,25.673707492579815
11.0,302809.8174440867,6350.7094205089725,0.7297073261405677,25.59621596860757
12.0,353354.15208356985,6786.86909060892,0.7270246765415654,25.517053691734528
13.0,406639.2746946879,7203.981469597582,0.7242861011911659,25.436242698459854
14.0,462443.9179326589,7602.662785951392,0.7214927697732547,25.353805607588328
15.0,520555.5242253951,7983.510972815595,0.7186458964154866,25.269765613321564
16.0,580769.9525462468,8347.106568754265,0.7157467384896371,25.184146478825657
17.0,642891.2265802536,8694.013465143533,0.7127965952387484,25.096972528335687
18.0,706731.5812935386,9024.778766149102,0.709796806597765,25.008268643341328
19.0,772111.0003016726,9339.9341468908,0.7067487515591198,24.918060252104194
20.0,838857.4253053116,9639.995175274358,0.703653846851069,24.826373325921015
21.0,906806.1602655342,9925.463060483795,0.700513545131716,24.73323436706385
22.0,975800.1507497726,10196.82375416264,0.697329333653987,24.63867040668251
23.0,1045689.3920040107,10454.54963554931,0.6941027321978822,24.54270898998564
24.0,1116331.0704306646,10699.099067068562,0.6908352917451518,24.445378175754417
25.0,1188071.0737291584,11691.531401726475,0.6886409027729823,24.38306139912204
26.0,1278050.216080341,16586.572470065792,0.6872243437325224,24.346207608443574
27.0,1419420.090419331,25398.609703742924,0.6858262991139571,24.310015729214705
28.0,1642384.8636728355,37765.64140441513,0.6844474091548218,24.274493259821455
29.0,1973596.7243934274,53347.61545416532,0.6830883071577185,24.23964747600014
30.0,2436403.3127013217,71825.40896337519,0.6817496189990845,24.205485432599794
31.0,3051082.5472494634,92899.84746187335,0.6804319626438714,24.172013965371804
32.0,3835066.4956951737,116290.7572855798,0.6791359476672649,24.139239692805877
33.0,4803155.521100196,141736.04365740463,0.677862174788249,24.107169018097814
34.0,5967717.482398288,168990.8263036857,0.6766112354011834,24.07580813090805
35.0,7338881.753201978,197826.5784723142,0.675383711127725,24.045163009428965
36.0,8924720.921215063,228030.30618005004,0.6741801733790208,24.015239422456045
37.0,10731416.064197855,259403.80231757346,0.673001182900528,23.986042930948575
38.0,12763432.004934588,291762.8158156487,0.6718472893902085,23.957578890851604
39.0,15023654.549200132,324936.4306766488,0.6707190310143332,23.929852453813833
40.0,17513549.596766785,358766.2574075343,0.6696169340991615,23.90286857084454
41.0,20233290.853217635,393105.8319370922,0.6685415126819264,23.876631993309587
42.0,23181888.528047986,427819.9698296469,0.6674932681308127,23.851147274997263
43.0,26357309.999327138,462784.13729442057,0.6664726888010238,23.82641877445528
44.0,29756592.235083938,497883.8716239529,0.6654802496583672,23.80245065674714
45.0,33375949.390480883,533014.1897602291,0.6645164119815039,23.77924689601494
46.0,37210865.52303678,568079.0881203861,0.6635816229886031,23.756811276921574
47.0,41256192.066255346,602990.9676527926,0.6626763156177364,23.735147397787195
48.0,45506252.62511616,637670.2105447187,0.6618009078557985,23.71425866798089
49.0,49957128.4875516,674918.9345296407,0.6609558031384875,23.694148318530544
50.0,54673791.729824655,733491.2418528169,0.6601413895153377,23.674819396955517
51.0,59892520.565889135,835180.5555033347,0.6593580395704891,23.65627477147195
52.0,66010879.87848519,998503.4365462457,0.658606110169055,23.638517132789183
53.0,73558971.43503918,1238999.719644175,0.6578859422266731,23.6215489959872
54.0,83173757.94033252,1569520.8347246202,0.6571978604916365,23.605372702347278
55.0,95576176.58825907,2000497.2057196975,0.656542173342927,23.589990421168867
56.0,111550951.71075374,2540185.1642719912,0.6559191726037972,23.575404151565976
57.0,131928668.05826186,3194894.966725548,0.6553291333641481,23.561615724172377
58.0,157570157.03837976,3969201.179392529,0.6547723138242377,23.548626802882293
59.0,189352719.22061247,4866136.419067337,0.6542489551458354,23.536438886484905
60.0,228158325.3229605,5887369.12471446,0.6537592813202763,23.52505331028837
61.0,274863361.1346092,7033367.536672573,0.6533034990589616,23.514471247777852
62.0,330329913.1296469,8303548.46393931,0.6528817976758103,23.504693712028036
63.0,395398345.00094944,9696415.103103667,0.6524943490093251,23.495721557308972
64.0,470881204.9193949,11209681.488909993,0.6521413073430414,23.48755548050493
65.0,557558139.8905782,12840386.335531868,0.6518228093398363,23.48019602249102
66.0,656171912.8730253,14584996.372690238,0.6515389739984916,23.473643569540364
67.0,767425110.2323276,16439501.057537885,0.6512899026369384,23.467898354791203
68.0,891977675.8616133,18399495.784918193,0.6510756788042648,23.4629604589487
69.0,1030445355.4570183,20460260.95179057,0.650896368383523,23.458829812447988
70.0,1183398855.853358,22616826.906125158,0.6507520194924171,23.45550619574646
71.0,1351362275.1135795,24864040.870061226,0.6506426625191316,23.452989240591247
72.0,1534813543.6908977,27196720.55166925,0.6505683101879202,23.45127843138752
73.0,1734215812.4005435,29632208.90274916,0.6505289576289554,23.450373106443784
74.0,1950426707.2696307,32283849.26410747,0.650524582389532,23.450272458577096
75.0,2185554118.1016355,35371995.06200681,0.650555144505635,23.450975536050056
76.0,2443738572.294141,39202318.84483242,0.6506205865839587,23.452481243461335
77.0,2731752558.274522,44146229.90518848,0.650720833904705,23.454788342653416
78.0,3059442046.221236,50623947.69015134,0.6508557945219282,23.45789545345023
79.0,3440033920.699993,59089870.60274781,0.6510253593830304,23.461801054407132
80.0,3890329120.1283264,70020032.92950048,0.6512294024582521,23.466503483497924
81.0,4430799894.689228,83901418.25220682,0.6514677808824015,23.472000938759624
82.0,5085606330.336678,101222931.25674717,0.6517403351055119,23.478291478868453
83.0,5882547017.150742,122467836.28059661,0.6520468890588216,23.48537302370316
84.0,6852956717.40432,148107497.7387473,0.6523872503302605,23.493243354848996
85.0,8031558815.028772,178596277.49537852,0.6527612103481236,23.5019001160315
86.0,9456287030.1257,214367430.7800635,0.6531685445773002,23.51134081352047
87.0,11168080085.414309,255829905.46164677,0.6536090127352991,23.521562816570633
88.0,13210654858.04508,303365906.2584614,0.6540823589950853,23.532563357609575
89.0,15630273818.274057,357329139.6339122,0.654588312232397,23.544339532688312
90.0,18475498676.373043,418043624.0030866,0.6551265862458544,23.556888301554583
91.0,21796942920.409542,485803031.9804826,0.6556968800187937,23.570206487973138
92.0,25647022610.530434,560870442.355055,0.6562988779703018,23.58429077981866
93.0,30079721818.07871,643478433.2264874,0.6569322502310557,23.59913772927576
94.0,35150341791.8405,733829534.6496917,0.6575966529098685,23.61474375281891
95.0,40915280545.02971,832096854.6187259,0.6582917283854658,23.63110513131254
96.0,47431810907.63032,938426130.1699266,0.659017105604207,23.64821801004955
97.0,54758015174.67528,1053029980.6909294,0.6597724003893805,23.666078398790336
98.0,62954438943.204605,1176597674.139324,0.6605572157314268,23.684682171471035
99.0,72089725479.2383,1310800203.8514035,0.6613711421285576,23.704025066327794
100.0,82250022718.01389,1458680210.1559029,0.6622137579204708,23.7241026858497
101.0,93551208667.09149,1624935290.3941584,0.6630846296102693,23.744910496473576
102.0,106153090727.09744,1816106902.1203718,0.6639833122150341,23.76644382849072
103.0,120274740392.23509,2040693628.0453787,0.6649093496125138,23.788697875796814
104.0,136210516735.18973,2309198475.916499,0.6658622749090168,23.811667695805117
105.0,154346279368.49127,2634128498.6726565,0.6668416107921229,23.83534820905372
106.0,175175135018.65292,3029949076.6286936,0.6678468699094815,23.859734199049672
107.0,199312926658.79333,3513007092.8986177,0.6688775552413597,23.884820311934295
108.0,227512579049.13278,4101427789.3641677,0.6699331604854176,23.91060105622058
109.0,260677841524.31366,4814992197.330111,0.671013170442993,23.93707080246456
110.0,299875499106.9305,5675001665.167125,0.6721170614113114,23.964223782933225
111.0,346346842366.9243,6704131328.573254,0.6732443015814438,23.992054091286647
112.0,401517392876.02625,7926280410.0862,0.674394351436911,24.020555682183097
113.0,467005865973.68835,9366417279.84645,0.6755666641612499,24.049722370977513
114.0,544631320463.2891,11050428075.417545,0.6767606860419961,24.079547833272542
115.0,636419599661.4591,13004963967.624203,0.6779758568858768,24.11002560464333
116.0,744608047176.4458,15257296381.33693,0.679211610426436,24.141149080128937
117.0,871649138044.2347,17835174886.281918,0.6804673747445328,24.172911513979354
118.0,1020213522013.5663,20766691573.727844,0.681742572681269,24.205306019184857
119.0,1193191163165.2615,24080154610.46599,0.6830366222563183,24.238325567093927
120.0,1393691761617.9749,27803967408.541622,0.6843489370876178,24.271962987071223
121.0,1625044836942.5708,31966568690.136757,0.6856789268097239,24.306210966128837
122.0,1890799883577.945,36597161029.016624,0.687025997490664,24.341062048480143
123.0,2194740257130.2373,41728502606.1418,0.6883895520513692,24.376508635263573
124.0,2540927402993.969,47401836075.351974,0.6897689906810445,24.41254298412847
125.0,2933793171092.2974,53673377330.48415,0.6911637112523635,24.449157208901784
126.0,3378291402725.75,60621841019.5322,0.6925731097345228,24.48634327929272
127.0,3880115261984.0806,68356598565.23518,0.6939965806031684,24.524093020566326
128.0,4445984789000.808,77026117709.11894,0.6954335172474833,24.562398113249223
129.0,5084005593145.78,86826406924.36058,0.696883312373785,24.601250092854837
130.0,5804097448348.162,98009258636.10231,0.6983453584052943,24.64064034961897
131.0,6618489351279.57,110890149279.56995,0.6998190478781864,24.680560128212576
132.0,7542283260425.116,125855471600.43358,0.70130377383001,24.721000527727824
133.0,8594067822594.114,143369405631.09845,0.7027989301867282,24.761952501305093
134.0,9796589000964.338,163979973983.7097,0.7043039121418135,24.803406856052888
135.0,11177466335624.574,188324421522.83844,0.7058181165294456,24.84535425293881
136.0,12769948686782.555,217133874206.19946,0.7073409421912774,24.887785206706347
137.0,14613703057148.271,251237265705.1971,0.7088717903362783,24.93069008582693
138.0,16755631352724.3,291564536478.1992,0.7104100648932336,24.974059112487364
139.0,19250706026499.47,339149147258.71735,0.7119551728562294,25.017882362598566
140.0,22162817559771.906,395129884820.9825,0.7135065246213768,25.0621497658799
141.0,25565631423764.605,460752011253.60046,0.7150635343150532,25.106851105980443
142.0,29543446411511.965,537367807277.74274,0.716625620113658,25.151976020637886
143.0,34192049363307.965,626436533545.8722,0.7181922045543644,25.197514001884983
144.0,39619564257502.836,729523842189.926,0.7197627148365802,25.24345439630254
145.0,45947283713858.47,848300725250.4226,0.7213365831147281,25.289786405307748
146.0,53310481003010.07,984541974498.6104,0.7229132467799354,25.336499085530903
147.0,61859204745235.25,1140124938792.8708,0.72449214873176,25.383581349238682
148.0,71759066594752.53,1317033489241.1216,0.7260727376399273,25.43102196480858
149.0,83192098988696.42,1517376608150.5479,0.7276544681955899,25.478809557263194
150.0,96357859769926.06,1743430287951.528,0.7292368013514964,25.526932608867327
151.0,111474932587720.95,1997709213413.6714,0.7308192045546489,25.575379459752217
152.0,128783230381471.88,2283071375069.1704,0.7324011519621595,25.624138308686764
153.0,148547270794514.66,2602858500848.5166,0.7339821246501265,25.67319721385572
154.0,171060800873815.1,2961072403309.6772,0.7355616108099474,25.722544093727254
155.0,196653013933894.34,3362586965628.9233,0.7371391059342639,25.772166727987372
156.0,225696701214125.8,3813394301075.5757,0.7387141129918733,25.82205275853945
157.0,258618646150383.62,4320882690621.695,0.74028614258975,25.87218969059693
158.0,295912408666053.9,4894143701665.662,0.741854713124607,25.922564893852527
159.0,338153788984646.7,5544305740232.909,0.7434193509231658,25.973165603722688
160.0,386019150407170.2,6284890588365.049,0.7449795903710918,26.023978922674605
161.0,440306758371213.75,7132189516522.892,0.7465349740306807,26.07499182163746
162.0,501961262320914.06,8105655604275.936,0.7480850527473525,26.12619114149988
163.0,572101414591033.9,9228308816997.111,0.749629385745039,26.177563594695574
164.0,652051083046612.6,10527150551292.756,0.7511675407106557,26.22909576687813
165.0,743373592127748.6,12033584763352.209,0.7526990938682314,26.28077411868089
166.0,847909455282114.2,13783841201389.555,0.7542236300410202,26.332584987585474
167.0,967817341471528.1,15819398955824.787,0.7557407427034226,26.384514589883572
168.0,1105618312969033.8,18187407322987.117,0.7572500340226335,26.436549022732624
169.0,1264243242684718.2,20941101350695.69,0.7587511148899819,26.488674266311442
170.0,1447083309479080.2,24140209593472.695,0.7602436049421776,26.54087618607734
171.0,1658043453300877.5,27851351866814.957,0.7617271325726687,26.593140535126658
172.0,1901598654206539.8,32148425017410.023,0.7632013349333219,26.64545295666035
173.0,2182852856624997.8,37112975144726.414,0.7646658579267882,26.69779898655529
174.0,2507600417517448.0,42834557945578.945,0.7661203561901252,26.750164056038965
175.0,2882390141144075.5,49411104858374.22,0.7675644930681808,26.80253349448743
176.0,3314591688848584.5,56949357773259.63,0.7689979405788089,26.854892532331004
177.0,3812465544739828.5,65565469033644.54,0.7704203793697634,26.907226304070882
178.0,4385238275716533.5,75385893545168.67,0.7718314986673969,26.95951985141082
179.0,5043186032191527.0,86548715766432.17,0.7732309962174592,27.011758126505242
180.0,5797730487585373.0,99205565433904.73,0.7746185782182765,27.063925995325157
181.0,6661552711806413.0,113524277893789.69,0.7759939592466013,27.116008241143337
182.0,7648731650950671.0,129692453590511.19,0.7773568621765851,27.167989568138786
183.0,8774915429223275.0,147922066509277.84,0.7787070180923448,27.219854605120226
184.0,1.0057534831353746e+16,168455247405259.25,0.7800441661929429,27.271587909381868
185.0,1.1516068170268674e+16,191571378147837.66,0.7813680536917956,27.32317397067897
186.0,1.3172369367380794e+16,217595601994646.8,0.7826784357103188,27.374597215326972
187.0,1.505107081347431e+16,246908846567888.94,0.7839750751660316,27.42584201042644
188.0,1.7180073386491746e+16,279959439391305.47,0.7852577426554267,27.47689266821457
189.0,1.959113647520057e+16,317276379993560.2,0.7865262163319114,27.527733450544055
190.0,2.2320581173599196e+16,359484316052637.4,0.7877802817791228,27.578348573489833
191.0,2.541011967261909e+16,407320262829466.1,0.7890197318800855,27.628722212083694
192.0,2.8907825332801812e+16,461652083459868.7,0.7902443666825283,27.678838505177392
193.0,3.2869256550824256e+16,523498702370958.94,0.7914539932595516,27.72868156043889
194.0,3.735874556320739e+16,594052079376494.5,0.7926484255673647,27.778235459475347
195.0,4.2450867110752824e+16,674700903445623.0,0.7938274842999191,27.82748426308465
196.0,4.8232098817599064e+16,767055972830621.0,0.7949909967406726,27.876412016636003
197.0,5.480268527363384e+16,872977215086643.2,0.7961387966117717,27.925002755579353
198.0,6.227871727108561e+16,994602289651523.8,0.7972707239209224,27.97324051108311
199.0,7.079443704949509e+16,1134376709030282.0,0.7983866248062274,28.021109315799713
200.0,8.050477838303339e+16,1295085427188214.8,0.7994863513794116,28.06859320975909
201.0,9.158815615195003e+16,1479885788843362.5,0.8005697615676022,28.11567624638944
202.0,1.0424951026157946e+17,1692341698804507.5,0.8016367189531978,28.162342498660966
203.0,1.1872360831228358e+17,1936459070776289.8,0.8026870926131268,28.208576065353885
204.0,1.3527862117087866e+17,2216722628725479.8,0.8037207569573764,28.254361077448593
205.0,1.5421997989501347e+17,2538134557116179.5,0.8047375915669939,28.299681704636523
206.0,1.7589453020025357e+17,2906256004630398.0,0.8057374810317913,28.344522161949918
207.0,2.0069501113485248e+17,3327253072865841.0,0.8067203147879773,28.38886671650843
208.0,2.2906490046307997e+17,3807949607575447.0,0.8076859869559327,28.4326996943804
209.0,2.6150368574988256e+17,4355889901463718.5,0.8086343961784681,28.476005487559654
210.0,2.98572672567667e+17,4979414973748153.0,0.8095654454596383,28.51876856105229
211.0,3.4090143360445184e+17,5687756867788590.0,0.8104790420038888,28.560973460062133
212.0,3.891950610400736e+17,6491156288509731.0,0.8113750970564128,28.60260481728378
213.0,4.442424419114551e+17,7401009236145078.0,0.8122535257446709,28.643647360295596
214.0,5.0692580682311763e+17,8430048998930892.0,0.8131142469212187,28.684085919049124
215.0,5.782318595811324e+17,9592570327208818.0,0.8139571830080115,28.723905433451048
216.0,6.592648509259386e+17,1.0904703046911918e+16,0.8147822598423533,28.763090961033647
217.0,7.512620176939825e+17,1.2384742729642798e+16,0.8155894065246458,28.80162768470938
218.0,8.55611856300456e+17,1.405354659156956e+16,0.8163785552681646,28.839500920612327
219.0,9.73875837892797e+17,1.5935002273327226e+16,0.8171496412509447,28.876696126010835
220.0,1.1078140955723438e+18,1.8056577739548692e+16,0.8179026024696303,28.913198907277827
221.0,1.2594157773069245e+18,2.044996101636745e+16,0.8186373795958607,28.948995027933243
222.0,1.4309348227913997e+18,2.315179778392155e+16,0.8193539158351907,28.98407041674471
223.0,1.6249319549192038e+18,2.620453512851399e+16,0.8200521567886381,29.01841117588075
224.0,1.8443237505020073e+18,2.965737958651389e+16,0.8207320503169756,29.05200358911028
225.0,2.0924397171543288e+18,3.3567377424996256e+16,0.8213935464078795,29.084834130042026
226.0,2.3730883611376927e+18,3.80006249160448e+16,0.822036597046044,29.116889470397364
227.0,2.6906332588170194e+18,4.3033617198031576e+16,0.8226611560863784,29.148156488321707
228.0,3.0500804344454994e+18,4.875474051654593e+16,0.823267179130448,29.178622276704036
229.0,3.457177911291008e+18,5.5265915492247816e+16,0.8238546234059712,29.208274151495132
230.0,3.9185287748761165e+18,6.268439886939085e+16,0.8244234476497654,29.237099660040954
231.0,4.441719038546621e+18,7.114474891214276e+16,0.8249736119941639,29.265086589411453
232.0,5.03546159403608e+18,8.080096023004299e+16,0.8255050778569575,29.29222297471705
233.0,5.709757600301357e+18,9.182877367467632e+16,0.8260178078349403,29.318497107404205
234.0,6.476076713436887e+18,1.0442816820147654e+17,0.8265117656011355,29.343897543521532
235.0,7.347557610130745e+18,1.1882604524839842e+17,0.8269869158057701,29.368413111948342
236.0,8.339230295753418e+18,1.3527912555821907e+17,0.8274432239810376,29.39203292259338
237.0,9.468262580496929e+18,1.540770773388979e+17,0.8278806564499138,29.414746374515314
238.0,1.0754231683202611e+19,1.755459217320256e+17,0.8282991802387282,29.43654316396692
239.0,1.221942394615105e+19,2.0005177541544957e+17,0.8286987629938166,29.45741329237688
240.0,1.3889165619706434e+19,2.2800500962863664e+17,0.8290793729022791,29.477347074245426
241.0,1.5792188359548156e+19,2.5986493331130954e+17,0.829440978616876,29.496335144944336
242.0,1.7961034116959703e+19,2.9614513783602195e+17,0.8297835491851212,29.514368468411284
243.0,2.043250533499056e+19,3.3741967465302816e+17,0.8301070539826232,29.531438344728258
244.0,2.324816779684667e+19,3.843302754423119e+17,0.8304114626507164,29.547536417575625
