Time,J,A,S,tau
0.0,100.0,100.0,0.5775961119100297,31.25
1.0,2867.100903652323,972.7550754028093,0.5765659187233286,30.70912411701301
2.0,11255.621862224854,1790.4368920858417,0.575537555819837,30.168244706720206
3.0,24749.087967298197,2556.3270267629428,0.5745114894900153,29.62755721853515
4.0,42870.98223195092,3273.5265793488693,0.5734881750911448,29.08725345320266
5.0,65182.04987646972,3944.961201629111,0.5724680637946965,28.547524968871173
6.0,91277.75955962215,4573.390138534928,0.571451602162323,28.008562960221987
7.0,120785.9315388915,5161.41482777969,0.5704392317303137,27.47055813783748
8.0,153364.4856158278,5711.4872599476175,0.5694313886096162,26.933700608661834
9.0,188699.36326912232,6225.917796093123,0.5684285030909364,26.398179756448354
10.0,226502.5528641577,6706.882766849436,0.5674309992699181,25.864184124106522
11.0,266510.31971441687,7156.431287333537,0.56643929467444,25.331901295588462
12.0,308481.3006384993,7576.493147752907,0.5654537999153808,24.801517780522598
13.0,352195.1808470656,7968.883719957799,0.5644749183462071,24.27321889940136
14.0,397450.83810039813,8335.312150333611,0.5635030457466406,23.74718867238091
15.0,444065.17584348755,8677.38590126085,0.5625385699775138,23.22360970157205
16.0,491871.87899729586,8996.61595939701,0.5615818707083687,22.70266306545739
17.0,540719.8151544799,9294.424270117994,0.5606333191543841,22.184528215363173
18.0,590472.2099349424,9572.146962470244,0.5596932777627062,21.669382860435917
19.0,641005.5070531615,9831.039540035266,0.5587620999764837,21.15740286699039
20.0,692208.6447111506,10072.279817967588,0.5578401299144482,20.64876213839923
21.0,743887.276092613,10545.215717036843,0.5574808543094277,20.44441322520013
22.0,803320.7884095305,13557.121914022962,0.5575464522647261,20.470018307444487
23.0,889843.1296800417,19238.550681888275,0.5576181682349081,20.498058537725836
24.0,1021022.3766748308,27238.520684590727,0.5576959537156777,20.52852766692825
25.0,1211835.153324652,37242.56864330278,0.5577797582340376,20.561419684098727
26.0,1474967.3757190446,48969.38217005107,0.5578695293698092,20.596728806880556
27.0,1821085.0955170393,62167.71030586012,0.5579652127775315,20.634449471692704
28.0,2259075.7206650553,76613.55621859182,0.5580667522070957,20.674576323704073
29.0,2796266.7414523102,92107.58246136773,0.5581740895263528,20.717104206516595
30.0,3438618.2652308466,108472.7804903272,0.5582871647406026,20.762028151777162
31.0,4190897.5620376854,125552.30502344169,0.5584059160153254,20.809343368247117
32.0,5056833.019731081,143207.53407940487,0.5585302796951667,20.859045230928295
33.0,6039255.287157366,161316.2633022583,0.5586601903267142,20.911129270672046
34.0,7140215.86719126,179771.10146811782,0.558795580676945,20.965591161276887
35.0,8361102.493026205,198477.94023803365,0.5589363817614177,21.022426710170997
36.0,9702729.075558705,217354.69743130772,0.5590825228511551,21.081631845236963
37.0,11165426.56748831,236330.01854741047,0.5592339315038738,21.14320260344245
38.0,12749117.64156314,255342.18502135036,0.5593905335815627,21.20713511910535
39.0,14453383.362242458,274338.1149413996,0.5595522532693011,21.273425611859242
40.0,16277521.757048212,293272.4437420293,0.5597190130954233,21.342070374600148
41.0,18220597.38113163,312106.6739347846,0.5598907339612792,21.41306576160642
42.0,20281513.726843055,330805.18234471796,0.5600673351197396,21.48640816924641
43.0,22459757.20561663,350545.78700453637,0.5602487342742893,21.56209403976166
44.0,24783376.753755905,378783.0877043968,0.5604348475324494,21.640119834680274
45.0,27346045.391665965,423391.5846050501,0.5606255894451604,21.720482026335194
46.0,30300778.411906764,490809.8782813008,0.5608208730264281,21.803177085235074
47.0,33849053.489061765,586235.6297709916,0.5610206097726979,21.88820146731933
48.0,38231412.66947364,713797.1002856471,0.5612247096819468,21.975551601170615
49.0,43719363.24597798,876704.1105203484,0.5614330812729084,22.065223875207536
50.0,50608426.996322826,1077380.4796880998,0.5616456316041072,22.15721462486337
51.0,59212175.881583616,1317580.1841367905,0.5618622662927798,22.25152011974135
52.0,69857097.02213152,1598489.128828343,0.5620828895333148,22.34813655071279
53.0,82878295.03868519,1920813.855777336,0.5623074041161616,22.447060017125935
54.0,98615754.85875103,2284859.367786971,0.5625357114466233,22.548286513965145
55.0,117411258.88732295,2690596.2050395845,0.5627677115623909,22.651811918994827
56.0,139605720.05351707,3137719.452000103,0.5630033031527228,22.757631980035278
57.0,165537051.89801553,3625699.1752819708,0.5632423835766601,22.865742302285856
58.0,195538267.5484967,4153824.505105232,0.5634848488806946,22.976138335557852
59.0,229936015.77909473,4721241.314888898,0.563730593817458,23.088815361762045
60.0,269049291.66775966,5326984.769098398,0.5639795118629723,23.203768482228938
61.0,313188549.8346259,5970006.627011829,0.5642314952358481,23.320992605457146
62.0,362654673.8449711,6649199.788577928,0.564486434916088,23.440482434823725
63.0,417738603.69281983,7363416.946167542,0.5647442206597487,23.562232455781587
64.0,478720438.5052194,8111489.314013534,0.5650047410213539,23.686236924293514
65.0,545869689.0344136,8892237.86538944,0.5652678833718477,23.81248985501505
66.0,619444339.6518549,9704458.144348465,0.5655335339130492,23.940985008207484
67.0,699690594.4888604,10547820.92485308,0.5658015776979902,24.071715878122177
68.0,786883030.3073709,11434115.30378956,0.5660718986584689,24.204675683827826
69.0,881485934.2671732,12396179.542531902,0.5663443796116879,24.339857354356383
70.0,984341495.379169,13484334.912180867,0.5666189022871071,24.477253518993958
71.0,1096820758.1347992,14762564.874323113,0.5668953473450931,24.6168564956279
72.0,1220939988.9776392,16305246.76021476,0.5671735943979263,24.75865827972045
73.0,1359448059.4423318,18194392.5133787,0.5674535220312211,24.902650533407524
74.0,1515887990.3911319,20517340.400563803,0.56773500782529,25.048824574399777
75.0,1694635826.7759702,23364812.987077616,0.5680179283788966,25.19717136563066
76.0,1900923251.9668224,26829304.81535199,0.5683021593319734,25.347681504386358
77.0,2140841847.5238774,31003752.77533047,0.5685875753909856,25.500345212152514
78.0,2421335886.7109985,35980444.45943813,0.5688740503542097,25.65515232418464
79.0,2750183263.850164,41850132.641273685,0.5691614571385125,25.81209227929046
80.0,3135966753.6710525,48701326.657065235,0.5694496678078573,25.971154109947403
81.0,3588038540.479038,56619730.247074135,0.569738553602765,26.132326432358074
82.0,4116478530.80146,65687805.12527011,0.5700279849710144,26.295597436405668
83.0,4732044090.9907,75984453.91250321,0.5703178316009945,26.46095487608737
84.0,5446121039.836324,87584774.10965659,0.5706079624560302,26.628386059813035
85.0,6270668069.521973,100559899.6937279,0.5708982458109083,26.797877840711944
86.0,7218158865.16731,114976904.99733102,0.5711885492907579,26.96941660716262
87.0,8301524964.281305,130898751.76036964,0.5714787399116023,27.1429882730468
88.0,9534094009.103064,148384292.85463223,0.5717686841241467,27.31857826843419
89.0,10929533807.002277,167488287.96263996,0.5720582478591304,27.496171529931203
90.0,12501782815.17073,188261490.37024155,0.5723472965768421,27.675752491083795
91.0,14265002566.354523,210750684.20745364,0.5726356953170032,27.857305071990233
92.0,16233511433.062536,234998817.04286534,0.5729233087552575,28.040812671560055
93.0,18421723718.327103,261045095.909046,0.5732100012594931,28.226258154482014
94.0,20844104539.93255,288925101.5978558,0.5734956369515288,28.41362384510469
95.0,23515103823.949867,318670785.34881276,0.5737800797712715,28.602891512500356
96.0,26449104715.291523,350312959.68208617,0.5740631935464601,28.794042365079843
97.0,29660472723.541084,383903718.8281882,0.574344842062418,28.987057036653823
98.0,33163899208.913933,419555128.71178985,0.5746248891399106,29.18191557547306
99.0,36975110346.97435,457471476.229597,0.5749031987157308,29.378597434075598
100.0,41111830505.42761,497973832.1161679,0.5751796349283672,29.57708145834144
101.0,45595018738.09713,541517322.7976749,0.5754540621991071,29.777345875047416
102.0,50450121520.03229,588705158.3789532,0.5757263453353754,29.979368276500995
103.0,55708409113.73841,640294947.1019909,0.5759963496226274,30.183125613080325
104.0,61408411462.7798,697203724.4357792,0.5762639409296155,30.388594174831425
105.0,67597229711.60986,760507817.7972857,0.5765289858122717,30.595749581372868
106.0,74331847031.84885,831441881.8777272,0.57679135163045,30.80456676432185
107.0,81680342220.8363,911394101.7864943,0.5770509066602643,31.015019954594052
108.0,89722954429.52509,1001900983.1071944,0.5773075202185477,31.22708266599889
109.0,98553147184.64862,1104640239.6959221,0.5775610627896703,31.44072767739425
110.0,108278423776.93813,1221422270.8531413,0.5778114061529557,31.655927018113363
111.0,119021023826.7804,1354181928.9981146,0.5780584235236293,31.872651948210954
112.0,130918606247.47206,1504968616.952398,0.5783019896912764,32.09087293969136
113.0,144124609169.73148,1675936483.4935842,0.5785419811620073,32.31055965918231
114.0,158808567569.01666,1869334938.907218,0.5787782763149986,32.531680944862885
115.0,175156383255.92047,2087497921.9385223,0.5790107555506594,32.75420478675034
116.0,193370244032.33206,2332834286.957522,0.5792393014481411,32.978098305737035
117.0,213668627293.22083,2607818037.5255876,0.5794637989343733,33.203327727632576
118.0,236286163317.8297,2914978109.6735587,0.5796841354404604,33.42985836213041
119.0,261473219842.9437,3256889535.6272826,0.5799002010733844,33.657654577679985
120.0,289495628953.87225,3636164246.000445,0.5801118887960821,33.88667977262949
121.0,320634125899.30225,4055442217.970937,0.5803190945840556,34.11689635450889
122.0,355183911717.38544,4517383356.954979,0.5805217176246154,34.34826570511862
123.0,393454019955.1975,5024659249.997399,0.580719660468941,34.58074816006538
124.0,435766616018.4083,5579946265.339515,0.5809128292434594,34.81430297033717
125.0,482456218034.4361,6185918477.291653,0.5811011337970865,35.04888828196401
126.0,533869262438.3291,6845240466.370027,0.5812844879140192,35.28446109487433
127.0,590362954012.288,7560562322.470637,0.5814628094720148,35.52097723871254
128.0,652304851603.5356,8334513027.875905,0.58163602062948,35.758391337039356
129.0,720071819415.7346,9169696113.142862,0.5818040480222576,35.99665676997727
130.0,794049392618.3552,10068684621.382774,0.5819668229148399,36.235725646688465
131.0,874630906686.0486,11034017165.938232,0.5821242813876409,36.47554876746172
132.0,962217071963.1361,12068192778.240904,0.5822763645132739,36.716075586384996
133.0,1057214905929.5493,13173672065.398052,0.582423018531904,36.95725417441044
134.0,1160037074869.0376,14352904506.174154,0.582564195003141,37.199031186251574
135.0,1271102179016.205,15608396672.284288,0.5826998509642534,37.44135182277913
136.0,1390834861536.952,16942820897.101818,0.5828299491038534,37.684159789593124
137.0,1519667620229.8442,18359149496.53754,0.5829544578925212,37.927397263591516
138.0,1658043777103.6025,19860809140.50672,0.5830733517248685,38.171004854650384
139.0,1806420725999.6318,21451854708.601646,0.583186611079018,38.41492156237534
140.0,1965275775533.288,23137143322.28252,0.583294222616751,38.659084744098166
141.0,2135112476515.9636,24922519484.10093,0.5833961793124958,38.90343007451842
142.0,2316468310337.559,26814999466.36722,0.5834924805621218,39.147891508256414
143.0,2509923562970.224,28822954415.08359,0.583583132282917,39.392401242493804
144.0,2716111282775.0684,30956288438.646465,0.5836681470034603,39.636889680058246
145.0,2935728232687.1147,33226611837.881493,0.5837475439429004,39.881285393068815
146.0,3169546749237.9917,35647406626.626915,0.5838213490791901,40.125515087261896
147.0,3418427411056.2715,38234184739.82086,0.5838895952058549,40.36950356712004
148.0,3683332053445.479,41004645113.4683,0.5839523219917706,40.613173697856034
149.0,3965338565333.0215,43978792738.74864,0.5840095759671817,40.85644638538243
150.0,4265655359707.0557,47179091134.592186,0.5840614105951438,41.09924053032132
151.0,4585635860014.254,50630577260.98242,0.5841078862541529,41.34147300486306
152.0,4926794738900.811,54360976615.198074,0.5841490702396158,41.58305862169559
153.0,5290823401314.87,58400813316.03026,0.584185036748755,41.82391010562149
154.0,5679606339842.065,62783506232.501076,0.5842158668431112,42.06393806954756
155.0,6095237800542.042,67545460494.18159,0.5842416484027325,42.303050990919786
156.0,6540038730488.909,72726153213.93544,0.5842624760675273,42.541155190012766
157.0,7016574049175.334,78368213762.07559,0.5842784511652283,42.77815481037267
158.0,7527670252533.727,84517499296.94533,0.5842896816260005,43.01395180156149
159.0,8076433582934.997,91223165548.4921,0.5842962818836587,43.24844590441809
160.0,8666268871217.757,98537736304.0563,0.5842983727675495,43.481534637562966
161.0,9300897339313.506,106517173846.74997,0.5842960813780156,43.713113287542136
162.0,9984376120390.959,115220939625.36641,0.5842895409440013,43.94307490391452
163.0,10721118033940.373,124712057754.6853,0.5842788906723001,44.171310295928805
164.0,11515911904255.102,135057179268.4954,0.5842642755844898,44.397708032407614
165.0,12373943528895.742,146326647132.0304,0.5842458463416365,44.622154445076596
166.0,13300817366056.953,158594562363.77322,0.5842237590570128,44.8445336355226
167.0,14302579629720.305,171938850690.4208,0.5841981750972313,45.064727486046394
168.0,15385741926642.135,186441337547.72305,0.5841692608753108,45.282615672797355
169.0,16557304233894.953,202187826320.85077,0.5841371876268766,45.49807568523134
170.0,17824780918528.52,219268173480.14874,0.5841021311749023,45.71098285090578
171.0,19196227328696.363,237776372624.06693,0.5840642716863732,45.92121036369487
172.0,20680267635274.758,257810643566.39752,0.5840237934185634,46.12862931691764
173.0,22286124037717.5,279473527349.4859,0.5839808844551554,46.33310874163955
174.0,24023647442695.113,302871987341.18427,0.5839357364324208,46.53451565041493
175.0,25903351112880.37,328117514699.89734,0.5838885442561618,46.73271508681766
176.0,27936443814084.355,355326251933.5616,0.5838395058102135,46.92757017919827
177.0,30134864421938.55,384619115821.51886,0.5837888216511535,47.118942203649766
178.0,32511320340461.34,416121923871.7713,0.5837366946955048,47.30669065329117
179.0,35079327225856.652,449965535314.8437,0.5836833298985435,47.49067331375228
180.0,37853250859788.555,486285996908.88635,0.5836289339239072,47.67074634599904
181.0,40848351288015.92,525224705938.569,0.5835737148039983,47.84676437687043
182.0,44080829586487.63,566928631350.7437,0.5835178815911678,48.01858059773846
183.0,47567880004869.11,611550639538.5863,0.5834616440001116,48.18604687171379
184.0,51327741224744.99,659250014468.1628,0.583405212038717,48.349013848600755
185.0,55379755203756.22,710193189157.5214,0.5833487956297339,48.50733109159393
186.0,59744434202232.24,764554745864.0469,0.5832926042236298,48.66084721293933
187.0,64443536180522.53,822518729205.5469,0.5832368464012041,48.80941001948783
188.0,69500151566054.43,884280330135.1794,0.5831817294657792,48.952866668965676
189.0,74938803978436.75,950047966152.5365,0.5831274590246397,49.091063837431044
190.0,80785574906744.66,1020045754953.5189,0.5830742385622174,49.22384789948356
191.0,87068224725793.86,1094516612065.8702,0.5830222689884167,49.35106511667962
192.0,93816370028663.27,1173725654546.8416,0.5829717481945657,49.47256184472386
193.0,101061666967120.98,1257964310945.069,0.5829228705840658,49.588184749522064
194.0,108838032803260.6,1347554976548.0005,0.5828758265942658,49.69778103791912
195.0,117181903632070.73,1442856307491.7798,0.5828308022048104,49.80119870229403
196.0,126132533747901.69,1544269188767.8247,0.5827879784324931,49.89828677947364
197.0,135732342250323.27,1652243431560.914,0.5827475308123198,49.98889562431313
198.0,146027313015692.9,1767285266693.3994,0.5827096288645395,50.07287719823878
199.0,157067454780575.0,1889965654596.4614,0.5826744355474872,50.15008537298827
200.0,168907328317141.62,2020929430666.75,0.5826421066961965,50.220376249711705
201.0,181606648674925.12,2160905444930.419,0.5826127904468691,50.28360849351213
202.0,195230971131232.5,2310717679637.209,0.58258662664746,50.339643683406095
203.0,209852470084704.12,2471297431043.432,0.5825637462548223,50.3883466775722
204.0,225550820974822.94,2643696624302.418,0.5825442707190833,50.42958599362752
205.0,242414196154696.84,2829102335248.2363,0.5825283113561812,50.46323420352794
206.0,260540386543171.4,3028852596953.2344,0.5825159687097835,50.48916834252802
207.0,280038061830220.3,3244453575211.456,0.5825073319041346,50.507270331458614
208.0,301028183028484.2,3477598201224.9863,0.582502477989744,50.5174274113869
209.0,323645582256492.06,3730186354651.095,0.5825014712842321,50.519532589510604
210.0,348040729546918.1,4004346687910.5796,0.582504362711001,50.51348509512226
211.0,374381624631321.75,4302460538420.344,0.5825111891321016,50.49919084311702
212.0,402856201203998.75,4627186542670.3545,0.5825219727078969,50.476562908728965
213.0,433674512858183.9,4981489153522.585,0.5825367202285296,50.445522000486385
214.0,467071467400143.3,5368667385217.947,0.5825554225095556,50.40599692737966
215.0,503309794194187.7,5792386422423.535,0.5825780537807409,50.35792507319422
216.0,542683423419199.3,6256712307542.62,0.5826045710663309,50.30125288585794
217.0,585520982439460.0,6766149444983.153,0.5826349136146151,50.23593634617562
218.0,632189723714455.8,7325678847433.869,0.5826690024192709,50.16194140225305
219.0,683099852131569.1,7940800090186.811,0.5827067397498842,50.07924440685014
220.0,738709336748392.2,8617576191937.513,0.5827480087299589,49.98783254039469
221.0,799529259777165.0,9362683419367.016,0.5827926729300467,49.88770423785158
222.0,866129278041669.9,10183463200413.156,0.582840576096131,49.77886954950675
223.0,939143815354832.9,11087975913304.771,0.5828915419716431,49.661350465090585
224.0,1019278773652575.0,12085059569309.928,0.582945374175041,49.53518121822732
225.0,1107319070306508.9,13184392254582.002,0.5830018561612189,49.40040855964327
226.0,1204136612583011.2,14396562080037.275,0.5830607512481027,49.257092008425396
227.0,1310698614060086.8,15733137090957.125,0.5831218028493348,49.10530399668205
228.0,1428076911910531.2,17206739631212.96,0.5831847347990191,48.945129978532485
229.0,1557457988579805.8,18831126363094.805,0.5832492517842033,48.77666849255617
230.0,1700154292037277.5,20621273648585.895,0.583315039886108,48.60003118199691
231.0,1857615526166206.5,22593472784747.74,0.5833817672559793,48.41534275249676
232.0,2031440915820737.0,24765424168399.63,0.5834490850027649,48.22274081439152
233.0,2223392634305292.2,27156342683174.004,0.5835166281788431,48.02237568625852
234.0,2435410329965619.5,29787075909344.465,0.5835840168981057,47.81441013603759
235.0,2669627481548270.5,32680242309795.17,0.5836508575702546,47.599019076582316
236.0,2928387205835999.0,35860396124567.164,0.5837167443051137,47.376389166215
237.0,3214260530131143.0,39354212909000.5,0.5837812604673677,47.14671832077628
238.0,3530066416264778.5,43190719518793.46,0.5838439803223441,46.91021518611171
239.0,3878894509000248.0,47401573995833.69,0.5839044707897477,46.66709855384789
240.0,4264130784862556.5,52021419001064.445,0.5839622932962585,46.41759673634922
241.0,4689483968345913.0,57088310957831.1,0.5840170057451729,46.161946849771645
242.0,5159017948988957.0,62644233534478.92,0.5840681645411498,45.90039405594368
243.0,5677188707355416.0,68735732336678.36,0.5841153266615555,45.63319077619226
244.0,6248889159204093.0,75414683700118.25,0.5841580517660144,45.36059587561188
245.0,6879499343733874.0,82739254338715.17,0.5841959043529378,45.08287381987024
246.0,7574944273839128.0,90775020731021.42,0.5842284558915196,44.80029378741903
247.0,8341764754815004.0,99596302641914.28,0.5842552869230377,44.51312878447341
248.0,9187200799969038.0,109287753639363.61,0.5842759891255425,44.22165475881487
249.0,1.011929436224921e+16,119946255205854.92,0.5842901673431422,43.92614971833864
250.0,1.1147001245683556e+16,131683188341074.4,0.5842974415531287,43.62689284700661
