Time,J,A,S,tau
0.0,100.0,100.0,0.6415131728562407,17.943989103022016
1.0,55.847952058287476,181.16118354779198,0.6388264762249581,18.46445304880202
2.0,34.91516323861674,253.8810960056492,0.6360380323371257,19.00161445023659
3.0,30.579367501343526,318.7929714694902,0.6331483307345497,19.555305799910986
4.0,37.651432381124515,376.48316524051364,0.6301580392843699,20.12537095653178
5.0,52.115632093893865,427.49458037336996,0.6270681685418298,20.71163792539955
6.0,70.90887896174365,472.330929783176,0.6238800986244771,21.313916688871274
7.0,91.73615937692774,511.46055382213245,0.6205956004662545,21.93199728135622
8.0,112.91691045137974,545.3198184239677,0.6172168505334241,22.565648172749864
9.0,133.2577195332949,574.3161361091111,0.6137464382391781,23.21461501924241
10.0,151.94748333256476,598.8306142044102,0.6101873655935605,23.878619825731484
11.0,168.47147801465272,619.220361602853,0.606543038732269,24.557360560430528
12.0,182.5412924001473,635.8205256026691,0.602817251215473,25.250511252652252
13.0,194.03840151527902,648.9460274592776,0.5990141602311547,25.957722522776717
14.0,202.96905219033115,658.8927679872708,0.5951382550883653,26.678622599947936
15.0,209.4273988826016,665.9392490989577,0.5911943180530346,27.41281888992273
16.0,213.56759885332005,670.3475092582738,0.5871873822206927,28.159899767987266
17.0,215.58161453666682,672.3640580970294,0.5831226840268166,28.919436793302033
18.0,215.6824231837366,672.2205091619563,0.579005612317707,29.69098726847223
19.0,214.09123114281863,670.1343696357363,0.5748416572177087,30.474096907498993
20.0,211.02822580969325,666.3094236793808,0.5706363581671644,31.268302673431307
21.0,206.7059159855177,660.9364001355491,0.5663952531911267,32.07313572986208
22.0,203.2306926839404,597.8155308751419,0.5621238305236771,32.88812430562919
23.0,200.8045020120015,511.11686989461197,0.5578274837030627,33.7127965327175
24.0,198.4336867833655,437.1275246436527,0.5535114703348335,34.54668313328208
25.0,196.11618408151756,373.9619473237511,0.5491808757788288,35.38931993091348
26.0,193.85001381915416,320.0184661949688,0.5448405818085359,36.24025014099787
27.0,191.6332748536819,273.9349826928404,0.5404952405673202,37.099026410724825
28.0,189.46414140356285,234.55333483873042,0.5361492535293627,37.965212606615815
29.0,187.34085951521928,200.8880603606301,0.5318067559823803,38.83838531088336
30.0,185.26174382166218,172.1002669348337,0.5274716059469008,39.71813506565573
31.0,183.2251744199787,147.4758046341143,0.5231473778080974,40.604067344061264
32.0,181.22959386658184,126.40619925745214,0.5188373601441971,41.49580326220465
33.0,179.27350441947902,108.3729848357029,0.5145445567585862,42.39298008128525
34.0,177.35546531688965,92.93420951346461,0.5102716913225314,43.29525146947543
35.0,175.4740902419563,79.71289314655935,0.5060212143592915,44.20228758934235
36.0,173.62804493383865,68.38750892175429,0.5017953123590724,45.11377502213182
37.0,171.81604484172934,58.683627109628304,0.49759591894261085,46.029416526276364
38.0,170.03685297698814,50.3669475559877,0.49342472691704786,46.94893070127833
39.0,168.28927782101485,43.23741728991573,0.48928320157324795,47.872051532769305
40.0,166.57217132713663,37.12409056018401,0.48517259456566364,48.79852785728932
41.0,164.8844270764377,31.88090477771391,0.48109395790248194,49.72812278133409
42.0,163.22497844901224,27.38299921330855,0.47704815836940095,50.6606130287473
43.0,161.59279693244233,23.52358257902427,0.47303589158303216,51.59578827373297
44.0,159.98689050978794,20.211329803069088,0.4690576958456162,52.53345044949066
45.0,158.40630208322935,17.368086090250912,0.46511396573017594,53.47341303475958
46.0,156.8501080318926,14.926958586671995,0.46120496494427043,54.41550035708461
47.0,155.31741679308226,12.830686602682874,0.4573308388312171,55.35954688476922
48.0,153.8073675195699,11.030220915791707,0.4534916261760061,56.305396534472365
49.0,152.3191288310102,9.483553606947005,0.44968727030785355,57.25290200036101
50.0,150.85189757398282,8.154688591101614,0.4459176296899363,58.2019240868535
51.0,149.4048976824667,7.012770154016027,0.4421824877127043,59.15233107411121
52.0,147.97737907981974,6.03135243730566,0.4384815619096177,60.10399809934714
53.0,146.56861661224545,5.187753546249761,0.43481451256049913,61.056806556644695
54.0,145.17790907302378,4.462520351338495,0.43118095061602163,62.01064352799159
55.0,143.80457823463735,3.8389657238821266,0.42758044513304155,62.96540122632389
56.0,142.44796794272554,3.302767192405258,0.4240125301147925,63.92097646444768
57.0,141.1074432664641,2.8416349010249515,0.42047671085020794,64.87727014480652
58.0,139.782389656442,2.4450174477952276,0.4169724698107295,65.83418676207936
59.0,138.47221217601705,2.103854135083109,0.4134992720738503,66.7916339285612
60.0,137.17633475304106,1.810365301553444,0.4100565703790838,67.74952191081513
61.0,135.8941994602093,1.5578669139849375,0.40664380980666637,68.70776317959246
62.0,134.62526585669224,1.3406173098992327,0.40326043213165946,69.66627197324209
63.0,133.36901033135896,1.1536830357270071,0.3999058798885734,70.62496386705105
64.0,132.1249254962969,0.9928233195607999,0.39657960016601485,71.58375535165845
65.0,130.89251961351835,0.8543938819689355,0.3932810481859904,72.54256341550459
66.0,129.6713160299803,0.7352613355868851,0.39000969066074487,73.50130512985874
67.0,128.46085266678114,0.6327314490361872,0.38676500899812954,74.45989723435693
68.0,127.2606815173,0.5444877979427526,0.3835465023475609,75.41825572076772
69.0,126.07036817183997,0.4685376632581588,0.38035369051311346,76.37629541346524
70.0,124.88949138344907,0.4031673198582307,0.3771861167990388,77.33392954194468
71.0,123.71764263393572,0.3469025079256315,0.37404335073025624,78.29106930803114
72.0,122.55442574085468,0.29847463737706986,0.37092499074399066,79.24762344035916
73.0,121.39945648363708,0.25679244081425434,0.36783066683706833,80.20349773674428
74.0,120.2523622392928,0.2209166921738295,0.36476004314598554,81.15859459552232
75.0,119.11278165872874,0.19003912264948145,0.36171282057091575,82.11281252506537
76.0,117.98036434597418,0.1634641833963608,0.35868873934050155,83.06604564127896
77.0,116.8547705622684,0.14059305364258495,0.35568758159234015,84.01818314411426
78.0,115.73567095777089,0.12091039531759022,0.35270917400117896,84.9691087694912
79.0,114.62274630396664,0.1039725589406116,0.34975339034047553,85.91870022886907
80.0,113.51568725999341,0.08939757052158122,0.3468201541263982,86.86682861761459
81.0,112.41419414941431,0.07685666269165559,0.343909441237746,87.81335780562986
82.0,111.31797674779216,0.06606672317367095,0.34102128249599295,88.7581438106701
83.0,110.22675410134579,0.05678402602614386,0.338155766317173,89.70103413896926
84.0,109.14025434520508,0.04879874346168212,0.33531304123023004,90.64186712153897
85.0,108.05821454530036,0.041930174026995864,0.33249331838674834,91.5804712263245
86.0,106.98038055846649,0.036022772169053134,0.32969687400941905,92.51666435457545
87.0,105.90650689416059,0.03094259727148573,0.32692405161727894,93.4502531448336
88.0,104.83635660492553,0.026574319430068192,0.3241752641931117,94.38103225732601
89.0,103.76970118125799,0.022818663464723183,0.32145099605656685,95.30878367819187
90.0,102.7063204584033,0.019590136827632085,0.3187518044388378,96.23327604175161
91.0,101.64600254692786,0.016815148683547033,0.3160783208039117,97.15426396369119
92.0,100.58854376083669,0.014430346229396759,0.31343125160845575,98.07148743982381
93.0,99.53374856816387,0.012381181427804344,0.31081137864193387,98.98467128260796
94.0,98.48142955249021,0.01062071125249305,0.30821955876034557,99.89352463295126
95.0,97.43140737666694,0.009108522780895708,0.3056567228348704,100.79774058072935
96.0,96.38351077115458,0.007809832776852667,0.30312387402775454,101.69699587161453
97.0,95.33757652147546,0.006694711242936513,0.3006220850680521,102.59095077216053
98.0,94.29344946839049,0.005737395472408908,0.2981524945527329,103.47924908611662
99.0,93.25098252527553,0.004915722294242704,0.2957163022208976,104.36151833821536
100.0,92.21003669096079,0.004210622236124574,0.29331476295391395,105.23737018863353
101.0,91.17048108357992,0.0036056876316459653,0.2909491796296262,106.10640104834096
102.0,90.1321929783197,0.0030868085701173326,0.28862089467332697,106.96819294915228
103.0,89.09505784719616,0.0026418469792660595,0.2863312803001683,107.8223146805465
104.0,88.05896941916771,0.002260365333446153,0.28408172754094224,108.6683231765111
105.0,87.02382973349022,0.0019333901674306962,0.2818736340345932,109.50576519530145
106.0,85.98954920578731,0.001653205064667243,0.27970839074918524,110.33417925615161
107.0,84.93394986630906,0.02348218984426618,0.277587367755798,111.15309783080379
108.0,69.03366261339592,14.894879825066823,0.2755118993335804,111.96204977373351
109.0,53.10326946577508,29.89261946090179,0.2734832685329294,112.76056294166234
110.0,37.53051327085717,44.77488123055175,0.27150269161841467,113.54816697483831
111.0,22.460134699150537,59.56463803443585,0.2695713027316275,114.32439617163992
112.0,8.064027366714006,74.28251905750095,0.2676901390854993,115.08879240054947
113.0,0.0,88.94676026453993,0.26586012706559825,115.8409079835492
114.0,0.0,103.57317517247465,0.26408206970847736,116.58030846875482
115.0,0.0,118.17514658363518,0.262356635818734,117.30657522759542
116.0,0.0,132.76364467912876,0.260684351144645,118.01930779413404
117.0,0.0,147.34727189280045,0.25906559186646816,118.71812588136613
118.0,0.0,161.93233561206665,0.25750058056626707,119.40267102243439
119.0,0.0,176.5229496557953,0.25598938487189754,120.07260778218868
120.0,0.0,191.12116373716435,0.2545319188090755,120.72762450798366
121.0,0.0,205.72711858857463,0.2531279467899589,121.36743360809052
122.0,0.0,219.8801295488266,0.2517945674790717,121.98312065506576
123.0,1.4894320846135405,215.58280549387808,0.2513507671845062,122.16908697095529
124.0,34.64521711805831,215.71652592124417,0.2510476930887503,122.29636355379925
125.0,68.62432520277505,219.70892148257505,0.2508988376754203,122.35895963014408
126.0,105.30464519460479,226.9451192717041,0.2509207769868196,122.34973030385723
127.0,146.76247057373186,236.775840282512,0.2511341586542378,122.2600288638114
128.0,195.23445012298615,248.527015358047,0.25156507872921446,122.07922346621163
129.0,253.06621288382084,261.51061717375194,0.2522470433062333,121.79401062380325
130.0,322.6472021252493,275.03633487972,0.2532238318405565,121.38741676209457
131.0,406.33175398331576,288.4236521951581,0.2545538068318663,120.8373017234246
132.0,506.3469758069616,301.0138101658608,0.2563166049398079,120.11404681974577
133.0,624.6885748212094,312.1811356393489,0.25862395422934953,119.1768383387071
134.0,763.0061984496261,321.34310572706715,0.2616379407915436,117.96743474012324
135.0,922.4803884899367,327.9687296778886,0.26560363238644097,116.39912729751002
136.0,1105.8254331456606,329.3912237817113,0.270911336474928,114.3359020162481
137.0,1321.3489108883377,307.194154174693,0.2782235262059698,111.5506305368792
138.0,1536.5792614296731,286.33875930718926,0.2887584665451631,107.63399885286867
139.0,1750.9947050207165,266.7539560152544,0.304966496288011,101.78842693533556
140.0,1964.0454726797022,248.37187950125332,0.33195481436691093,92.46457170973319
141.0,2175.1565786979063,231.12777518137648,0.37668452538714714,78.12967698887853
142.0,2383.7314978635704,214.95987207216973,0.4307790561697978,62.86604642710331
143.0,2589.1563715493185,199.80926036791308,0.47422557485036515,52.2544253074841
144.0,2790.8043460810322,185.61978653676545,0.5050954912840716,45.47972426406482
145.0,2988.0407533135763,172.33793503835338,0.5276492529217016,40.84569355951373
146.0,3155.673147374531,200.93891797009738,0.544892466995032,37.435408690397026
147.0,3405.7228798478272,192.44219074927557,0.5585796631506503,34.782437999000955
148.0,3657.209765024777,192.9487237031681,0.569763260739903,32.63223649895655
149.0,3926.217154659572,203.9469768752692,0.5791102612719277,30.834780431203534
150.0,4235.116854227385,227.2275127792508,0.5870657463957225,29.295726700839865
151.0,4615.086963592686,263.5448084454952,0.5939398312617333,27.952568374454973
152.0,5101.676221855796,307.5922922677335,0.5999564416358927,26.76210443486769
153.0,5722.89767434846,363.9145414076564,0.6052820238387531,25.69344112194585
154.0,6524.179213413281,438.2244615379528,0.61004328343514,24.723856281834074
155.0,7572.098307766722,534.9341987959713,0.6143385840901449,23.83624297344522
156.0,8953.26573274365,656.6592243607802,0.6182455339519222,23.01746609461233
157.0,10770.520301767277,803.7578514180182,0.6218261900616037,22.257270195954778
158.0,13137.10536722416,972.3098584838632,0.6251307328644912,21.547531016469087
159.0,16147.583473337167,1136.3412417064337,0.6282001399855668,20.881726422581014
160.0,19809.985629206454,1287.9261244173679,0.6310680606823917,20.254573826441508
161.0,24111.23509541331,1426.921713959493,0.6337623963383925,19.661735574830804
162.0,29029.950947233036,1553.1828346460347,0.6363063705431604,19.099622294146872
163.0,34536.33831032612,1666.5799859012714,0.6387194060820504,18.565237347838437
164.0,40586.41447355448,1775.5228562148875,0.6410178078116032,18.05605839097844
165.0,47255.64509000133,1928.9967648232182,0.6432153268873899,17.569942522407892
166.0,54693.22773202035,2098.1477870227372,0.6453235789894127,17.105057457820106
167.0,63033.9144337465,2325.42050998253,0.6473524066497368,16.6598237289541
168.0,72642.88134796817,2664.946386258515,0.6493101684810952,16.232869659150456
169.0,84158.51964817365,3164.9919370425246,0.6512039768849915,15.822995376560375
170.0,98516.61725442584,3902.42062233151,0.653039894943436,15.42914378152177
171.0,117146.31738438823,4992.055777967963,0.6548230994315055,15.050377139479297
172.0,142169.27658863922,6572.269669448001,0.6565580170079348,14.68585801615668
173.0,176505.74493216167,8770.264094401184,0.6582484381490763,14.334833723033487
174.0,223626.99712323645,11590.343229875265,0.6598976128210116,13.99662356735781
175.0,286835.51337615255,14966.924202081787,0.6615083310460009,13.67060836027193
176.0,368988.7457782515,18824.28681972232,0.663082990848371,13.356221761015481
177.0,472395.1842801016,23079.07470162908,0.6646236558115295,13.052943091355468
178.0,598920.8081807644,27814.700811171646,0.6661321038220773,12.760291363648511
179.0,751082.9727945385,33180.18084896987,0.6676098681590574,12.477820343807855
180.0,932203.3816473307,39499.42903931673,0.669058273187308,12.205114291526234
181.0,1148108.4027451987,47508.375322396605,0.6704784639805006,11.941784501696322
182.0,1409500.6088459985,58403.89762367812,0.6718714318501047,11.687466342910296
183.0,1735031.5085480977,74149.40256883457,0.673238036144993,11.441816743066566
184.0,2156052.2584738843,97705.86592679852,0.6745790228598401,11.20451205238025
185.0,2721612.764255774,132713.21790431667,0.6758950405329238,10.975246219157285
186.0,3499018.629731156,182359.96957673514,0.6771866538624253,10.753729221739643
187.0,4568115.4098915495,248895.71385257746,0.6784543553716316,10.539685715236601
188.0,6013952.156603444,333634.7054861997,0.679698575402679,10.332853859678275
189.0,7921523.867116359,438097.3231109601,0.680919690699162,10.132984297127187
190.0,10378080.401094414,564923.0121698031,0.6821180317737054,9.93983925575871
191.0,13481077.012221858,720096.7263094649,0.6832938892290337,9.753191763283162
192.0,17361398.392274775,916493.0118277319,0.6844475192235167,9.572824943817277
193.0,22225222.285062477,1178825.6367390922,0.6855791481553908,9.39853139681012
194.0,28421400.293837845,1549980.9227790318,0.6866889766907491,9.230112641095578
195.0,36529230.863836035,2092485.9924436645,0.687777183249495,9.067378612159134
196.0,47422369.76744797,2880073.784446551,0.6888439270048209,8.910147208906125
197.0,62267875.9694818,3986638.993123745,0.6898893504737458,8.75824388104228
198.0,82468620.53829889,5481325.373077658,0.6909135817539871,8.611501252143649
199.0,109601261.1588233,7434434.697139266,0.6919167364594095,8.469758773807461
200.0,145403067.9878953,9937518.803532215,0.6928989193897774,8.332862407138428
201.0,191887037.30204466,13147490.592177294,0.6938602259782728,8.200664327810024
202.0,251681659.20687953,17360080.469450463,0.6948007435426233,8.073022652696409
203.0,328692231.20509535,23104324.440284964,0.6957205523769219,7.949801183931275
204.0,429043874.9849148,31195999.520607542,0.6966197266843701,7.830869171640318
205.0,561970514.9442734,42700188.3422822,0.6974983353966634,7.7161010903812715
206.0,740259231.9490203,58837946.70659609,0.6983564428803438,7.60537642961993
207.0,980179411.0594592,80922572.09888425,0.6991941095533925,7.498579495897439
208.0,1301194012.0258768,110413260.70421995,0.7000113924186259,7.3955992269544115
209.0,1726078239.5621767,149202697.45920396,0.7008083455274188,7.296329015633759
210.0,2282395750.661815,200245143.8558103,0.7015850203852341,7.200666543107198
211.0,3006389232.6780763,268484675.0543981,0.7023414663031794,7.1085136210242625
212.0,3949594486.7040763,361669649.092921,0.7030777307047091,7.019776041629065
213.0,5186655262.9646845,490588083.146423,0.7037938593932368,6.934363435367449
214.0,6821789782.542273,668726662.7001426,0.7044898967857455,6.852189135502834
215.0,8992374130.1864,911861147.269798,0.7051658861171215,6.773170049257951
216.0,11870465448.448647,1238479924.6638062,0.7058218696190706,6.6972265351151306
217.0,15666101292.01262,1672188556.6199126,0.7064578886770396,6.624282285914225
218.0,20639013773.765667,2246862283.470397,0.7070739839681379,6.554264217420228
219.0,27125460881.923103,3013546725.5344725,0.7076701955826565,6.487102362065905
220.0,35580885276.77707,4046344673.7219477,0.7082465631314425,6.422729767600334
221.0,46630444164.90302,5445157881.35073,0.7088031258411015,6.361082400396518
222.0,61116110902.24944,7335852950.374027,0.7093399226387457,6.302099053190751
223.0,80134654938.22319,9871808506.379488,0.709856992227798,6.245721257043777
224.0,105074464408.355,13243583069.088871,0.7103543731561452,6.191893197335315
225.0,137676580408.42627,17702755581.969784,0.7108321038778246,6.14056163359119
226.0,180154568696.62335,23598884111.691856,0.7112902228092369,6.091675822989127
227.0,235394503567.86417,31419812369.66715,0.7117287683807694,6.045187447383529
228.0,307225470211.487,41824296586.51753,0.7121477790846104,6.001050543697373
229.0,400727158224.38586,55664866587.49231,0.7125472935194437,5.959221437540522
230.0,522546814618.54663,74014709822.36186,0.7129273504326257,5.919658679921501
231.0,681241901206.5356,98226908772.44228,0.7132879887603778,5.882322986926883
232.0,887733523976.1307,130052958400.55217,0.7136292476664661,5.847177182248856
233.0,1156003175169.4258,171823279264.75458,0.7139511665797742,5.814186142448206
234.0,1504144949382.776,226663305532.4992,0.7142537852311621,5.783316744846699
235.0,1955806334045.1794,298711610399.4651,0.7145371436899213,5.754537817935071
236.0,2541977078584.4077,393335124055.6946,0.714801282400099,5.727820094207432
237.0,3303095719643.144,517392592227.41095,0.7150462422169692,5.703136165326869
238.0,4291582418371.943,679645282619.406,0.7152720644438684,5.680460439529722
239.0,5575130251421.926,891407783567.0067,0.7154787908695959,5.6597691011811415
240.0,7241261756712.177,1167466694639.923,0.7156664638065575,5.641040072397706
241.0,9403671037042.191,1527223604738.9902,0.715835126129805,5.624252976655807
242.0,12210745025197.11,1996011130036.9126,0.7159848213171106,5.60938910430724
243.0,15856555680599.863,2606625570539.7637,0.7161155934901846,5.59643137992668
244.0,20594758326870.16,3401283473480.209,0.7162274874571671,5.585364331418268
245.0,26756343596605.055,4434335910590.26,0.716320548756476,5.576174060801827
246.0,34772956412807.246,5776070324552.411,0.7163948237020445,5.568848216616292
247.0,45208211203006.82,7517810627937.645,0.7164503594300575,5.563375967871197
248.0,58799897930633.74,9778419163785.281,0.7164872039472211,5.559747979478246
249.0,76516266215424.75,12712371433979.98,0.7165054061806077,5.557956389097463
250.0,99630132694408.9,16519890379322.154,0.716505016029102,5.5579947853334914
