Time,J,A,S,tau
0.0,100.0,100.0,0.9639140432183335,10.0
1.0,4778791.725651124,9848.945850571377,0.9618144012800549,9.801443300047737
2.0,16683485.03684542,18832.139064822957,0.9599461997396977,9.620097734097834
3.0,32927310.129464265,27134.549664799662,0.9582969604417918,9.455799938661963
4.0,51396103.38658548,34830.82551191409,0.9568547798266276,9.308380617830625
5.0,70535871.95567444,41986.62358570115,0.9556083157233938,9.177666075103557
6.0,89250370.51315248,48659.78625503715,0.9545467609666145,9.063478472882908
7.0,106809677.68253429,54901.34991943652,0.9536598186416838,8.965636087563368
8.0,122769952.80098042,60756.41695913784,0.9529376784823996,8.883953562696032
9.0,138382980.62289822,192281.04010406908,0.9526990354601185,8.849287797311547
10.0,488480228.36431444,4778444.588719431,0.9540837640467859,8.972161155884214
11.0,1818067539.821756,14188539.0911716,0.9554319150323703,9.097031613823752
12.0,4152211883.5904193,26463328.45608833,0.9567439661430776,9.223901425522223
13.0,7184879358.066204,40125155.686619535,0.9580204227679113,9.352771708044227
14.0,10539057353.025352,54089760.97269255,0.959261815389722,9.483642397819796
15.0,13889200687.213768,67590108.50829975,0.9604686970948897,9.61651220753458
16.0,17004141763.3835,80111149.38787077,0.9616416411615365,9.751378583164989
17.0,19748317835.617474,91334536.75292088,0.962781238736857,9.888237661005926
18.0,22064466681.01255,101092151.24195473,0.9638880965735661,10.027084225826588
19.0,23951268496.141624,109327936.44707593,0.9649628350537689,10.167911668348573
20.0,25781969457.25425,258937597.99524844,0.9660060859047362,10.310711947651455
21.0,30635684599.73334,1005990988.2126133,0.9670184903258662,10.455475541208768
22.0,41454752454.194534,2472966364.0471506,0.9680006971830751,10.602191411898541
23.0,57939939046.171135,4524478710.204128,0.9689533612157145,10.750846966079868
24.0,77732768958.18288,6933164681.252097,0.9698771413671782,10.901428014359809
25.0,98112515038.06137,9469452088.1401,0.9707726992134391,11.053918733203162
26.0,116971498176.46594,11943676955.290466,0.9716406974844005,11.208301627318825
27.0,133096393074.55681,14220029384.618675,0.9724817986777842,11.364557492890986
28.0,146058232189.11572,16215197306.509727,0.973296663764507,11.522665381884455
29.0,155964110612.36835,17889865962.570637,0.9740859509847498,11.682602566295616
30.0,163212733499.1579,19237841873.24126,0.9748503147365629,11.84434450605611
31.0,168311642726.573,20275558024.404263,0.975590404526508,12.007864814143906
32.0,171533422568.9771,21272515033.18115,0.9763068640352003,12.173135226765417
33.0,171536092576.00858,24177838734.66065,0.977000330208983,12.340125569189894
34.0,166743485806.907,31146481757.010845,0.9776714324998179,12.508803729167731
35.0,156972276849.39755,42632707168.9018,0.9783207921321886,12.679135627718747
36.0,143210536042.8361,57638385028.30597,0.9789490214474228,12.85108519160286
37.0,126993895310.90344,74516351407.7132,0.9795567233188663,13.024614327321375
38.0,109890226726.12103,91618384564.20815,0.9801444906307618,13.199682896285731
39.0,93195378465.55077,107645754295.36555,0.980712905818268,13.376248691255224
40.0,77814152834.4303,121759174089.38713,0.9812625404649885,13.55426741398606
41.0,64265302652.14128,133545136179.35477,0.9817939549537351,13.733692653969477
42.0,52751122040.19131,142918939515.87415,0.98230769817504,13.914475869443024
43.0,43247696057.36233,150015791362.9674,0.9828043072745035,14.096566367877124
44.0,35590963201.0951,155095164074.3684,0.9832843074569576,14.27991129023321
45.0,29545030844.18484,158469324679.87515,0.9837482118160551,14.464455592841276
46.0,24851027321.241627,160455217431.02185,0.984196521228065,14.650142035324784
47.0,21237826240.446194,161366186893.31763,0.9846297242605714,14.836911165743837
48.0,18363843690.893898,161572343118.03125,0.9850482971272563,15.024701309238427
49.0,15892743367.552027,161426694060.76248,0.9854527036726318,15.213448557665384
50.0,13615931370.023663,161145976697.47552,0.9858433953828329,15.40308675995258
51.0,11464021139.631912,160802964918.59818,0.9862208114252768,15.593547514175578
52.0,9453894486.921988,160382154713.59238,0.9865853787093293,15.784760160725083
53.0,7631866501.791225,159838023344.11804,0.9869375119830731,15.97665177846024
54.0,6037600911.7782135,159131583949.81064,0.987277613927988,16.169147178746012
55.0,4689439485.886073,158245044993.99072,0.9876060752877716,16.362168903747733
56.0,3583713160.0722995,157182338872.76852,0.9879232750051852,16.55563722506862
57.0,2700630097.9631433,155963239884.9194,0.9882295803876271,16.7494701449179
58.0,2011385577.8459728,154616216276.73724,0.9885253472637052,16.9435833960807
59.0,1483564356.6050282,153172418286.03217,0.9888109201678844,17.137890446051287
60.0,1084607023.0995533,71669723992.35512,0.9890866325259651,17.332302500958605
61.0,787287940.7848091,26548601872.183155,0.9893528068550421,17.5267285120934
62.0,568300767.1103013,9901320694.278112,0.989609754964461,17.721075183081425
63.0,408440491.8519749,3740758428.5460925,0.9898577781661249,17.915246979257482
64.0,292592779.24727505,1447338949.942839,0.9900971674882475,18.10914613855285
65.0,209137432.49354494,583715469.3255967,0.9903282038926282,18.302672684167273
66.0,149295539.71162143,251491476.40148148,0.990551158494374,18.495724439089987
67.0,106524640.92477842,118784362.00571248,0.990766292783188,18.68819704257347
68.0,76014534.61565359,62433431.68103703,0.9909738588453348,18.87998396865992
69.0,54272617.97776859,36318593.19654258,0.9911740995855328,19.07097654688564
70.0,38786547.236393414,22870081.1873373,0.9913672489480595,19.261063985297753
71.0,27759289.14932318,15184729.650895474,0.9915535321363759,19.450133395921146
72.0,19908890.518304143,10406665.180580588,0.9917331658307291,19.63806982285023
73.0,14321605.148211287,7259202.781925245,0.9919063584031388,19.82475627313025
74.0,10346143.196136823,5111545.743551047,0.9920733101292307,20.01007375060935
75.0,7518222.449754819,3616819.6556531205,0.9922342133967132,20.193901293030112
76.0,5506900.627463003,2565528.200847511,0.9923892529095776,20.376116012457086
77.0,4069316.1911455225,1828823.557636428,0.9925386058882099,20.556593139418073
78.0,2795324.5380591243,1477242.6461116516,0.992682442264988,20.735206071000977
79.0,1527279.8107578838,1344337.8042462962,0.9928209248747897,20.911826423117372
80.0,265634.04066566634,1291588.0349958409,0.9929542096400238,21.08632408715784
81.0,0.0,698856.5342589656,0.9930824457498021,21.258567291316734
82.0,0.0,257091.6295933683,0.9932057758355001,21.428422667662403
83.0,0.0,94577.50346129942,0.9933243361379898,21.595755323946694
84.0,0.0,34792.66990033397,0.9934382566701377,21.7604289216034
85.0,0.0,12799.3427670608,0.9935476613729215,21.92230575991163
86.0,0.0,4708.554319296997,0.9936526682652389,22.081246866756157
87.0,0.0,1732.1579947315356,0.9937533895873115,22.237112096404786
88.0,0.0,637.2171015963515,0.9938499319375858,22.389760234725617
89.0,0.0,234.41605100479407,0.993942396403041,22.53904911227872
90.0,0.0,86.2357343496017,0.9940308786828278,22.684835725726483
91.0,0.0,31.7239445791915,0.9941154692051622,22.826976368014044
92.0,0.0,11.670436381757547,0.9941962532374177,22.965326767776155
93.0,0.0,4.293258174516601,0.9942733109893522,23.099742238427865
94.0,0.0,1.5793810137984423,0.9943467177094201,23.230077837394635
95.0,0.0,0.5810142956985286,0.9944165437741149,23.35618853593108
96.0,0.0,0.21374045118238147,0.9944828547702985,23.477929399966808
97.0,0.0,0.07862970097729402,0.994545711570463,23.595155782401527
98.0,0.0,0.028925876353615886,0.9946051704008849,23.70772352725025
99.0,0.0,0.010641097592341144,0.9946612829026145,23.815489186010687
100.0,0.0,0.003914590401047789,0.9947140961852594,23.918310246590405
101.0,0.0,0.0014400787023424945,0.9947636528735022,24.016045375088037
102.0,0.0,0.0005297684964556601,0.994809991146301,24.108554670672124
103.0,0.0,0.00019488841814503828,0.994853144768712,24.195699933741384
104.0,0.0,7.169451537438144e-05,0.9948931431162756,24.27734494748071
105.0,0.0,2.6374561312505196e-05,0.9949300111918927,24.35335577284834
106.0,0.0,0.0,0.994963769635128,24.42360105693844
107.0,0.0,0.0,0.9949944347238563,24.487952354566666
108.0,0.0,0.0,0.9950220183681823,24.54628446280636
109.0,0.0,0.0,0.9950465280965393,24.59847576809774
110.0,0.0,0.0,0.9950679670339583,24.644408605364852
111.0,0.0,0.0,0.9950863338723596,24.683969628413568
112.0,0.0,0.0,0.9951016228326649,24.71705019149573
113.0,0.0,0.0,0.9951138236212338,24.7435467372207
114.0,0.0,0.0,0.9951229213686541,24.76336120457236
115.0,0.0,0.0,0.9951288966059859,24.77640140930348
116.0,0.0,0.0,0.9951317252526296,24.7825813460769
117.0,0.0,0.0,0.9951313779551632,24.781822301850656
118.0,0.0,0.0,0.9951278212407002,24.774051749604663
119.0,0.0,0.0,0.9951210164659451,24.75920492822014
120.0,0.0,0.0,0.9951109215547473,24.73722376457381
121.0,0.0,0.0,0.9950974833877422,24.70806562482929
122.0,0.0,0.0,0.9950806475979449,24.671689428440935
123.0,0.0,0.0,0.995060360327966,24.628056674335035
124.0,0.0,0.0,0.9950365530314136,24.57715352903062
125.0,0.0,0.0,0.9950091495097192,24.51897573838115
126.0,0.0,0.0,0.9949780735643144,24.453519048240075
127.0,0.0,0.0,0.9949432465715468,24.380785664495153
128.0,0.0,0.0,0.9949045768048724,24.300802537434915
129.0,0.0,0.0,0.9948619684040287,24.21360062012769
130.0,0.0,0.0,0.9948153205870771,24.119221540128425
131.0,0.0,0.0,0.9947645202952513,24.017724978552547
132.0,0.0,0.0,0.9947094531701592,23.90917287433409
133.0,0.0,0.0,0.9946499963882608,23.79364344843439
134.0,0.0,0.0,0.9945860147815709,23.67123106452844
135.0,0.0,0.0,0.9945173716126967,23.5420328112724
136.0,0.0,0.0,0.9944439190827431,23.406163849978434
137.0,0.0,0.0,0.9943655014717606,23.263748739186227
138.0,0.0,0.0,0.9942819549348166,23.11492407327176
139.0,0.0,0.0,0.9941931045774591,22.959838688313624
140.0,0.0,0.0,0.9940987716137639,22.798648242343262
141.0,0.0,0.0,0.9939987595913032,22.631526411313885
142.0,0.0,0.0,0.9938928682088431,22.45865021865979
143.0,0.0,0.0,0.9937808885117908,22.280207885270848
144.0,0.0,0.0,0.9936625930079858,22.096401685642263
145.0,0.0,0.0,0.9935377516429686,21.90743594424762
146.0,0.0,0.0,0.9934061203087128,21.7135272219357
147.0,0.0,0.0,0.9932674417287797,21.514899068479803
148.0,0.0,0.0,0.9931214512188479,21.311780590770546
149.0,0.0,0.0,0.9929678657398587,21.10440919327135
150.0,0.0,0.0,0.9928063983126704,20.893024967510595
151.0,0.0,0.0,0.992636739794263,20.67787562272685
152.0,0.0,0.0,0.992458571015586,20.4592106769269
153.0,0.0,0.0,0.9922715671443121,20.2372826788247
154.0,0.0,0.0,0.9920753762944997,20.012347835616914
155.0,0.0,0.0,0.9918696403084677,19.784662363197715
156.0,0.0,0.0,0.9916539906754839,19.554484212369054
157.0,0.0,0.0,0.9914280313437119,19.32207023094743
158.0,0.0,0.0,0.9911913624450647,19.08767689549721
159.0,0.0,0.0,0.9909435679036261,18.851559561033774
160.0,0.0,0.0,0.9906842059954741,18.613969086454702
161.0,0.0,0.0,0.9904128323901554,18.375155867867093
162.0,0.0,0.0,0.9901289803286183,18.135365169420428
163.0,0.0,0.0,0.9898321613267747,17.894836241341014
164.0,0.0,0.0,0.9895218839012191,17.653807410060644
165.0,0.0,0.0,0.9891976286540953,17.412507562842958
166.0,0.0,0.0,0.9888588597603095,17.17115981949428
167.0,0.0,0.0,0.9885050361017536,16.92998505014995
168.0,0.0,0.0,0.9881355852673741,16.689191178123817
169.0,0.0,0.0,0.9877499241289078,16.448981762957544
170.0,0.0,0.0,0.9873474598554202,16.20955565213673
171.0,0.0,0.0,0.9869275686709512,15.971097144391202
172.0,0.0,0.0,0.9864896206874996,15.733787727665018
173.0,0.0,0.0,0.9860329706933914,15.497800957038441
174.0,0.0,0.0,0.9855569468958394,15.263296428319409
175.0,0.0,0.0,0.9850608740072098,15.03043196984372
176.0,0.0,0.0,0.9845440564275622,14.799354405911256
177.0,0.0,0.0,0.9840057779147128,14.570197923891815
178.0,0.0,0.0,0.9834453201304033,14.343095589829977
179.0,0.0,0.0,0.9828619436895765,14.1181689021482
180.0,0.0,0.0,0.9822548932161517,13.89552691198115
181.0,0.0,0.0,0.9816234119155383,13.675277750062145
182.0,0.0,0.0,0.9809667225620216,13.457518894496015
183.0,0.0,0.0,0.9802840380769314,13.242334800323558
184.0,0.0,0.0,0.9795745722864152,13.029809124073637
185.0,0.0,0.0,0.9788375213948969,12.820019288432931
186.0,0.0,0.0,0.9780720731009555,12.613026846715087
187.0,0.0,0.0,0.9772774227606928,12.408890983296283
188.0,0.0,0.0,0.9764527601386856,12.207669965983433
189.0,0.0,0.0,0.975597249301684,12.009408884897713
190.0,0.0,0.0,0.9747100828471135,11.814143824856941
191.0,0.0,0.0,0.9737904586335392,11.621910789096967
192.0,0.0,0.0,0.9728375635774501,11.432743977687428
193.0,0.0,0.0,0.9718505663341012,11.246663459158997
194.0,0.0,0.0,0.9708286919792298,11.063684656348567
195.0,0.0,0.0,0.969771170844407,10.883823209564833
196.0,0.0,0.0,0.9686772225960755,10.707092126311831
197.0,0.0,0.0,0.9675460743704715,10.533492393264618
198.0,0.0,0.0,0.9663770082163515,10.363024424300571
199.0,0.0,0.0,0.9651693060640686,10.195687160506468
200.0,0.0,0.0,0.9639222706994732,10.031472639969587
201.0,0.0,0.0,0.9626352373340619,9.870370998092408
202.0,0.0,0.0,0.961307574031944,9.71236915986873
203.0,0.0,0.0,0.9599386808293316,9.557451203439966
204.0,0.0,0.0,0.9585279952542094,9.405598595050124
205.0,0.0,0.0,0.9570749953768592,9.256790351310912
206.0,0.0,0.0,0.9555792033752364,9.111003274014115
207.0,0.0,0.0,0.9540401885533654,8.968212109694694
208.0,0.0,0.0,0.9524575710854161,8.828389744257723
209.0,0.0,0.0,0.950831025473436,8.691507374368854
210.0,0.0,0.0,0.9491602840543951,8.557534671833723
211.0,0.0,0.0,0.9474451405093122,8.42643994055901
212.0,0.0,0.0,0.9456854533483078,8.298190265461738
213.0,0.0,0.0,0.9438811493585669,8.172751653519171
214.0,0.0,0.0,0.942032226996722,8.050089167142529
215.0,0.0,0.0,0.9401387597097599,7.930167050097376
216.0,0.0,0.0,0.9382008991641787,7.812948846139795
217.0,0.0,0.0,0.9362188783680792,7.698397510659892
218.0,0.0,0.0,0.9341930146657448,7.586475515538088
219.0,0.0,0.0,0.9321237125866236,7.477144947472984
220.0,0.0,0.0,0.9300114665298189,7.370367600032071
221.0,0.0,0.0,0.927856863266083,7.266105059697926
222.0,0.0,0.0,0.9256605842379706,7.164318786146929
223.0,0.0,0.0,0.9234234076405273,7.064970187028611
224.0,0.0,0.0,0.9211462102647521,6.968020687497419
225.0,0.0,0.0,0.9188299690868023,6.873431794747687
226.0,0.0,0.0,0.9164757625867124,6.781165157798807
227.0,0.0,0.0,0.9140847717811226,6.691182622769611
228.0,0.0,0.0,0.9116582809558044,6.603446283878728
229.0,0.0,0.0,0.9091976780850883,6.517918530402282
230.0,0.0,0.0,0.9067044549259774,6.434562089805338
231.0,0.0,0.0,0.9041802067768184,6.353340067264688
232.0,0.0,0.0,0.9016266318917535,6.274215981789758
233.0,0.0,0.0,0.8990455305438082,6.1971537991410734
234.0,0.0,0.0,0.8964388037312139,6.122117961737265
235.0,0.0,0.0,0.8938084515235261,6.049073415735001
236.0,0.0,0.0,0.8911565710459344,5.9779856354579985
237.0,0.0,0.0,0.8884853541020616,5.908820645342851
238.0,0.0,0.0,0.8857970844376843,5.8415450395628135
239.0,0.0,0.0,0.8830941346497451,5.776125999482961
240.0,0.0,0.0,0.880378962746969,5.712531309091929
241.0,0.0,0.0,0.8776541083705109,5.650729368549385
242.0,0.0,0.0,0.874922188684956,5.590689205981107
243.0,0.0,0.0,0.8721858939518263,5.532380487646026
244.0,0.0,0.0,0.8694479827996471,5.475773526593985
245.0,0.0,0.0,0.866711277206341,5.420839289926421
246.0,0.0,0.0,0.863978657211257,5.367549404765478
247.0,0.0,0.0,0.8612530553756994,5.315876163031751
248.0,0.0,0.0,0.8585374510121768,5.265792525125387
249.0,0.0,0.0,0.8558348642037379,5.217272122599106
250.0,0.0,0.0,0.8531483496358296,5.170289259907063
251.0,0.0,0.0,0.8504809902640142,5.12481891530872
252.0,0.0,0.0,0.8478358908415278,5.080836741001449
253.0,0.0,0.0,0.8452161713311964,5.0383190625515635
254.0,0.0,0.0,0.8426249602265815,4.997242877689311
255.0,0.0,0.0,0.8400653878073588,4.957585854528794
256.0,0.0,0.0,0.8375405793539049,4.919326329270005
257.0,0.0,0.0,0.835053648345883,4.882443303436919
258.0,0.0,0.0,0.8326076896692446,4.846916440701402
259.0,0.0,0.0,0.8302057728555414,4.812726063339644
260.0,0.0,0.0,0.8278509353767446,4.779853148364839
261.0,0.0,0.0,0.8255461760179895,4.748279323376544
262.0,0.0,0.0,0.8232944483497131,4.717986862164148
263.0,0.0,0.0,0.8210986543195922,4.688958680099734
264.0,0.0,0.0,0.8189616379835658,4.6611783293526585
265.0,0.0,0.0,0.8168861793940345,4.634629993955463
266.0,0.0,0.0,0.8148749886620014,4.609298484749166
267.0,0.0,0.0,0.8129307002086194,4.585169234233331
268.0,0.0,0.0,0.8110558672203161,4.56222829134397
269.0,0.0,0.0,0.8092529563202253,4.540462316181091
270.0,0.0,0.0,0.807524342467333,4.519858574705448
271.0,0.0,0.0,0.8058723040934699,4.50040493342198
272.0,0.0,0.0,0.8042990184869145,4.48208985406636
273.0,0.0,0.0,0.8028065574301134,4.464902388309323
274.0,0.0,0.0,0.8013968830979239,4.448832172491448
275.0,0.0,0.0,0.8000718442215915,4.433869422400286
276.0,0.0,0.0,0.7988331725225951,4.4200049281001785
277.0,0.0,0.0,0.7976824794196379,4.407230048823488
278.0,0.0,0.0,0.796621253011132,4.395536707931047
279.0,0.0,0.0,0.7956508553346883,4.384917387948639
280.0,0.0,0.0,0.7947725199045343,4.375365125684606
281.0,0.0,0.0,0.7939873495271759,4.3668735074330325
282.0,0.0,0.0,0.7932963143950147,4.359436664266069
283.0,0.0,0.0,0.7927002504573187,4.353049267417438
284.0,0.0,0.0,0.7921998580676343,4.347706523758563
285.0,0.0,0.0,0.7917957009063353,4.343404171367995
286.0,0.0,0.0,0.7914882051769097,4.340138475193519
287.0,0.0,0.0,0.7912776590745169,4.33790622280563
288.0,0.0,0.0,0.7911642125251024,4.3367047202404905
289.0,0.0,0.0,0.7911478771934053,4.336531787929355
290.0,0.0,0.0,0.791228526758263,4.337385756710605
291.0,0.0,0.0,0.7914058974534559,4.3392654639202055
292.0,0.0,0.0,0.7916795888724046,4.342170249555318
293.0,0.0,0.0,0.7920490650351474,4.346099952504892
294.0,0.0,0.0,0.7925136557158411,4.351054906840879
295.0,0.0,0.0,0.7930725580290426,4.3570359381626815
296.0,0.0,0.0,0.7937248382730424,4.364044359986496
297.0,0.0,0.0,0.7944694340282792,4.372081970171119
298.0,0.0,0.0,0.7953051565086852,4.381151047370789
299.0,0.0,0.0,0.7962306931636778,4.391254347504715
300.0,0.0,0.0,0.7972446105281169,4.402395100232785
301.0,0.0,0.0,0.7983453573171303,4.414577005426105
302.0,0.0,0.0,0.7995312677623657,4.427804229620087
303.0,0.0,0.0,0.8008005651856367,4.442081402437519
304.0,0.0,0.0,0.8021513658052665,4.457413612968449
305.0,0.0,0.0,0.8035816827698468,4.473806406092675
306.0,0.0,0.0,0.805089430413355,4.49126577873034
307.0,0.0,0.0,0.8066724287246801,4.5097981760056065
308.0,0.0,0.0,0.8083284080238081,4.529410487307408
309.0,0.0,0.0,0.8100550138360008,4.550110042230881
310.0,0.0,0.0,0.8118498119542339,4.571904606382634
311.0,0.0,0.0,0.8137102936792381,4.5948023770321775
312.0,0.0,0.0,0.8156338812254772,4.618811978591253
313.0,0.0,0.0,0.8176179332802753,4.643942457902562
314.0,0.0,0.0,0.8196597507023494,4.670203279318561
315.0,0.0,0.0,0.8217565823450028,4.697604319550407
316.0,0.0,0.0,0.823905630988195,4.726155862266941
317.0,0.0,0.0,0.8261040593628179,4.7558685924229716
318.0,0.0,0.0,0.8283489962496458,4.786753590295353
319.0,0.0,0.0,0.8306375426345896,4.818822325205443
320.0,0.0,0.0,0.8329667779011942,4.852086648905841
321.0,0.0,0.0,0.8353337660407191,4.886558788608771
322.0,0.0,0.0,0.8377355618596024,4.922251339633448
323.0,0.0,0.0,0.8401692171637467,4.959177257649393
324.0,0.0,0.0,0.842631786898804,4.997349850492176
325.0,0.0,0.0,0.8451203352254936,5.036782769528068
326.0,0.0,0.0,0.8476319415090254,5.077490000543991
327.0,0.0,0.0,0.8501637062018546,5.119485854138751
328.0,0.0,0.0,0.8527127565992693,5.1627849555916985
329.0,0.0,0.0,0.8552762524478149,5.207402234185006
330.0,0.0,0.0,0.8578513913871189,5.25335291195566
331.0,0.0,0.0,0.860435414206405,5.300652491853431
332.0,0.0,0.0,0.8630256098979014,5.349316745281495
333.0,0.0,0.0,0.865619320490327,5.399361698996466
334.0,0.0,0.0,0.8682139456467259,5.450803621344921
335.0,0.0,0.0,0.8708069470122232,5.50365900781424
336.0,0.0,0.0,0.8733958522985822,5.557944565875908
337.0,0.0,0.0,0.875978259093813,5.613677199100007
338.0,0.0,0.0,0.878551838386661,5.670873990520577
