Time,J,A,S,tau
0,100,100,0.762153432,19.44055819
1,4167.285338,998.1756457,0.759759988,19.79768535
2,16285.16346,1879.469776,0.757383728,20.15320252
3,36316.35625,2744.273475,0.755025105,20.50701801
4,64133.93733,3592.971797,0.752684545,20.85904263
5,99620.89267,4425.940629,0.750362478,21.20918705
6,142669.6433,5243.546993,0.748059326,21.55736181
7,193181.7013,6046.149245,0.745775512,21.9034773
8,251067.1479,6834.09743,0.743511456,22.24744375
9,316244.2598,7607.733506,0.741267576,22.58917127
10,388639.1434,8367.391559,0.739044289,22.92856977
11,468185.2441,9113.398132,0.736842008,23.26554905
12,554823.1512,9846.072293,0.734661149,23.60001874
13,648500.2362,10565.72582,0.732502122,23.93188831
14,749169.7229,11272.66395,0.730365339,24.26106709
15,856790.5585,11967.18542,0.728251211,24.58746425
16,971328.905,12649.5808,0.726160147,24.91098881
17,1092752.376,13320.13793,0.724092557,25.23154967
18,1221039.199,13979.13297,0.722048848,25.54905555
19,1356164.717,14626.84329,0.72002943,25.86341507
20,1498115.383,15263.53335,0.71803471,26.17453669
21,1646878.677,15889.46571,0.716065096,26.48232878
22,1802441.123,16504.90008,0.714120998,26.78669955
23,1964802.682,17110.08238,0.712202824,27.08755712
24,2133953.777,17705.26484,0.710310982,27.38480954
25,2309894.621,18290.68642,0.708445883,27.67836471
26,2492628.354,18866.58261,0.706607936,27.96813051
27,2682149.498,19433.19177,0.704797553,28.25401472
28,2878467.284,19990.7355,0.703015145,28.53592506
29,3081562.998,20723.857,0.701913084,28.70824183
30,3312949.173,26539.67105,0.702673121,28.57943479
31,3651661.502,39512.25418,0.70345471,28.44730357
32,4186391.937,59544.51793,0.704257498,28.31193481
33,5006783.82,86548.28591,0.705081115,28.17341797
34,6203544.061,120443.9176,0.705925174,28.03184524
35,7868544.974,161159.9253,0.706789275,27.88731134
36,10094916.13,208632.5813,0.707672999,27.73991343
37,12977123.97,262805.5203,0.708575914,27.5897509
38,16611040.53,323629.326,0.709497574,27.43692524
39,21093999.44,391061.1104,0.710437517,27.28153985
40,26524839.98,465064.0782,0.711395269,27.12369991
41,33003933,545607.0809,0.712370344,26.96351215
42,40633200.16,632664.1524,0.713362241,26.80108471
43,49516108.37,726214.0371,0.71437045,26.63652695
44,59757656.14,826239.7018,0.715394448,26.46994928
45,71464340.23,932727.8089,0.716433702,26.30146294
46,84744101.78,1045668.236,0.717487671,26.13117985
47,99706268.11,1165053.472,0.718555804,25.95921242
48,116461439.8,1290878.152,0.719637541,25.78567335
49,135121412.7,1423138.407,0.720732315,25.61067548
50,155799034,1561831.336,0.721839554,25.43433159
51,178608064.6,1706954.392,0.722958677,25.25675422
52,203662974.5,1858504.815,0.724089101,25.07805551
53,231078821.7,2016478.978,0.725230237,24.89834703
54,260971878.6,2182247.962,0.726381492,24.71773962
55,293696407.8,2402833.125,0.727542271,24.53634321
56,330853532.3,2780550.078,0.728711977,24.3542667
57,375782513,3422310.166,0.729890011,24.17161779
58,433634804.5,4436570.248,0.731075773,23.98850286
59,511436812.3,5933421.302,0.732268665,23.80502679
60,618150666.8,8024654.168,0.733468089,23.62129289
61,764732616.3,10823800.99,0.734673448,23.43740277
62,964187881.2,14446150.44,0.735884148,23.25345619
63,1231621215,19008735.17,0.737099597,23.06955098
64,1584281833,24630290.26,0.738319208,22.88578297
65,2041602692,31431180.07,0.739542398,22.70224585
66,2625232340,39533292.68,0.740768586,22.51903113
67,3359058037,49059901.07,0.741997202,22.33622806
68,4269220689,60135487.76,0.743227676,22.15392353
69,5384119201,72885534.21,0.744459449,21.97220207
70,6734402815,87436273.43,0.745691966,21.79114575
71,8352953163,103914403.9,0.746924681,21.61083418
72,10274852977,122446764.5,0.748157056,21.43134445
73,12537337879,143159977.3,0.749388559,21.25275109
74,15179739518,166180045.4,0.750618671,21.07512609
75,18243410173,191635622.7,0.751846878,20.89853885
76,21773583512,220086033.3,0.753072676,20.7230562
77,25839251600,253986430.1,0.754295573,20.54874237
78,30575450294,298287992.8,0.755515085,20.37565903
79,36230776701,360521793.1,0.756730737,20.20386525
80,43216193867,450866959.4,0.757942068,20.03341758
81,52154720363,582209582.3,0.759148624,19.86437003
82,63931613538,770190844.5,0.760349963,19.69677409
83,79744594837,1033242541,0.761545655,19.53067878
84,1.01154E+11,1392608073,0.762735278,19.36613068
85,1.3013E+11,1872347214,0.763918424,19.20317396
86,1.69102E+11,2499322986,0.765094695,19.04185044
87,2.21004E+11,3303168991,0.766263703,18.8821996
88,2.89315E+11,4316235832,0.767425072,18.72425865
89,3.78101E+11,5573514984,0.768578438,18.56806259
90,4.92047E+11,7112539572,0.769723448,18.41364423
91,6.36494E+11,8973260182,0.770859757,18.26103427
92,8.17461E+11,11197896505,0.771987035,18.11026135
93,1.04167E+12,13830767539,0.77310496,17.9613521
94,1.31656E+12,16921464960,0.774213224,17.81433121
95,1.6506E+12,20556410986,0.775311525,17.66922146
96,2.05443E+12,24923263318,0.776399577,17.52604382
97,2.54337E+12,30381267018,0.7774771,17.38481748
98,3.14115E+12,37531537025,0.778543827,17.24555993
99,3.88488E+12,47286430940,0.779599499,17.10828701
100,4.83113E+12,60937056792,0.780643871,16.97301296
101,6.06313E+12,80217989357,0.781676702,16.83975052
102,7.69886E+12,1.07368E+11,0.782697767,16.70851095
103,9.89995E+12,1.45188E+11,0.783706845,16.5793041
104,1.28812E+13,1.97087E+11,0.784703727,16.45213848
105,1.69208E+13,2.67134E+11,0.785688214,16.32702131
106,2.23704E+13,3.60087E+11,0.786660113,16.20395859
107,2.96659E+13,4.81427E+11,0.787619242,16.08295514
108,3.93376E+13,6.37374E+11,0.788565428,15.96401467
109,5.20209E+13,8.34902E+11,0.789498504,15.84713982
110,6.84654E+13,1.08177E+12,0.790418312,15.73233223
111,8.95482E+13,1.38706E+12,0.791324702,15.6195926
112,1.16306E+14,1.76317E+12,0.792217532,15.5089207
113,1.50017E+14,2.22972E+12,0.793096668,15.40031548
114,1.92364E+14,2.81907E+12,0.793961982,15.29377507
115,2.45701E+14,3.58346E+12,0.794813352,15.18929684
116,3.13447E+14,4.60346E+12,0.795650666,15.08687748
117,4.00624E+14,5.99749E+12,0.796473815,14.986513
118,5.14539E+14,7.9322E+12,0.7972827,14.88819879
119,6.65635E+14,1.06334E+13,0.798077225,14.79192968
120,8.68484E+14,1.43972E+13,0.798857302,14.69769995
121,1.14294E+15,1.96015E+13,0.799622847,14.6055034
122,1.51541E+15,2.67161E+13,0.800373783,14.51533337
123,2.0203E+15,3.63141E+13,0.801110039,14.42718278
124,2.70149E+15,4.90803E+13,0.801831547,14.34104417
125,3.61395E+15,6.58221E+13,0.802538245,14.25690974
126,4.82552E+15,8.74942E+13,0.803230076,14.17477136
127,6.41937E+15,1.15276E+14,0.803906988,14.09462064
128,8.49822E+15,1.50741E+14,0.804568932,14.01644891
129,1.12E+16,1.96149E+14,0.805215865,13.94024731
130,1.47E+16,2.54883E+14,0.805847747,13.86600677
131,1.92E+16,3.32053E+14,0.806464542,13.79371804
132,2.50E+16,4.35213E+14,0.807061633,13.72373957
133,3.27E+16,5.74785E+14,0.807597822,13.65935366
134,4.27E+16,7.65445E+14,0.808065411,13.60113595
135,5.61E+16,1.02708E+15,0.808466196,13.54890265
136,7.41E+16,1.38578E+15,0.808801974,13.50247383
137,9.83E+16,1.87485E+15,0.809074542,13.46167322
138,1.31E+17,2.53595E+15,0.8092857,13.42632815
139,1.75E+17,3.42009E+15,0.809437245,13.39626939
140,2.33E+17,4.58907E+15,0.809530973,13.37133106
141,3.12E+17,6.11788E+15,0.809568676,13.35135048
142,4.15E+17,8.09965E+15,0.809552146,13.33616807
143,5.51E+17,1.07E+16,0.809483167,13.32562726
144,7.28E+17,1.39E+16,0.809363521,13.31957434
145,9.58E+17,1.82E+16,0.809195086,13.31785042
146,1.26E+18,2.37E+16,0.809011003,13.31785184
147,1.65E+18,3.10E+16,0.808833353,13.31785184
148,2.15E+18,4.07E+16,0.808662182,13.31785184
149,2.82E+18,5.37E+16,0.808497552,13.31785184
150,3.69E+18,7.11E+16,0.808339523,13.31785184
151,4.85E+18,9.46E+16,0.808188153,13.31785184
152,6.39E+18,1.26E+17,0.808043498,13.31785184
153,8.45E+18,1.69E+17,0.80790561,13.31785184
154,1.12E+19,2.25E+17,0.807774539,13.31785184
155,1.48E+19,3.00E+17,0.807650333,13.31785184
156,1.97E+19,3.99E+17,0.807533039,13.31785184
157,2.61E+19,5.27E+17,0.807422699,13.31785184
158,3.45E+19,6.95E+17,0.807319354,13.31785184
159,4.56E+19,9.12E+17,0.807223041,13.31785184
160,6.01E+19,1.19E+18,0.807133796,13.31785184
161,7.90E+19,1.56E+18,0.807051653,13.31785184
162,1.04E+20,2.04E+18,0.80697664,13.31785184
163,1.36E+20,2.67E+18,0.806908787,13.31785184
164,1.78E+20,3.51E+18,0.806848117,13.31785184
165,2.34E+20,4.62E+18,0.806794654,13.31785184
166,3.08E+20,6.11E+18,0.806748417,13.31785184
167,4.05E+20,8.08E+18,0.806709422,13.31785184
168,5.34E+20,1.07E+19,0.806677686,13.31785184
169,7.05E+20,1.42E+19,0.806653218,13.31785184
170,9.32E+20,1.89E+19,0.806636029,13.31785184
171,1.23E+21,2.50E+19,0.806626124,13.31785184
172,1.63E+21,3.30E+19,0.806623508,13.31785184
173,2.16E+21,4.35E+19,0.806628181,13.31785184
174,2.86E+21,5.72E+19,0.806640141,13.31785184
175,3.77E+21,7.52E+19,0.806659385,13.31785184
176,4.98E+21,9.86E+19,0.806685904,13.31785184
177,6.56E+21,1.29E+20,0.80671969,13.31785184
178,8.65E+21,1.70E+20,0.806760729,13.31785184
179,1.14E+22,2.23E+20,0.806809007,13.31785184
180,1.50E+22,2.93E+20,0.806864506,13.31785184
181,1.98E+22,3.86E+20,0.806927205,13.31785184
182,2.61E+22,5.10E+20,0.806997081,13.31785184
183,3.45E+22,6.74E+20,0.807074109,13.31785184
184,4.56E+22,8.93E+20,0.807158259,13.31785184
185,6.04E+22,1.18E+21,0.807249501,13.31785184
186,8.00E+22,1.56E+21,0.807347802,13.31785184
187,1.06E+23,2.07E+21,0.807453125,13.31785184
188,1.41E+23,2.74E+21,0.807565431,13.31785184
189,1.87E+23,3.61E+21,0.80768468,13.31785184
190,2.48E+23,4.76E+21,0.807810827,13.31785184
191,3.29E+23,6.27E+21,0.807943826,13.31785184
192,4.36E+23,8.26E+21,0.808083629,13.31785184
193,5.77E+23,1.09E+22,0.808230185,13.31785184
194,7.64E+23,1.44E+22,0.808383439,13.31785184
195,1.01E+24,1.89E+22,0.808543336,13.31785184
196,1.34E+24,2.50E+22,0.808709817,13.31785184
197,1.78E+24,3.31E+22,0.808882823,13.31785184
198,2.36E+24,4.38E+22,0.80906229,13.31785184
199,3.14E+24,5.81E+22,0.809247398,13.31791006
200,4.18E+24,7.70E+22,0.809401946,13.32081932
201,5.55E+24,1.02E+23,0.809507043,13.32804114
202,7.39E+24,1.35E+23,0.809561598,13.33966531
203,9.83E+24,1.78E+23,0.809564569,13.35577918
204,1.31E+25,2.35E+23,0.809514974,13.37646752
205,1.74E+25,3.09E+23,0.809411889,13.40181248
206,2.30E+25,4.06E+23,0.809254448,13.43189355
207,3.05E+25,5.32E+23,0.809041844,13.46678753
208,4.03E+25,6.97E+23,0.808773333,13.50656853
209,5.33E+25,9.11E+23,0.808448228,13.55130795
210,7.03E+25,1.19E+24,0.808065905,13.60107447
211,9.26E+25,1.55E+24,0.807625798,13.65593399
212,1.22E+26,2.03E+24,0.807127405,13.71594969
213,1.60E+26,2.64E+24,0.80657453,13.78084796
214,2.11E+26,3.45E+24,0.806002114,13.84790026
215,2.77E+26,4.49E+24,0.805417562,13.9165316
216,3.63E+26,5.85E+24,0.804820966,13.98674093
217,4.76E+26,7.62E+24,0.804212424,14.05852705
218,6.24E+26,9.91E+24,0.803592035,14.13188858
219,8.17E+26,1.29E+25,0.802959898,14.20682396
220,1.07E+27,1.67E+25,0.802316119,14.28333143
221,1.40E+27,2.16E+25,0.801660802,14.36140901
222,1.82E+27,2.80E+25,0.800994056,14.4410545
223,2.38E+27,3.61E+25,0.800315993,14.52226544
224,3.09E+27,4.66E+25,0.799626726,14.60503914
225,4.02E+27,5.99E+25,0.798926371,14.68937263
226,5.21E+27,7.70E+25,0.798215048,14.77526264
227,6.75E+27,9.88E+25,0.797492879,14.86270562
228,8.72E+27,1.27E+26,0.796759988,14.9516977
229,1.13E+28,1.62E+26,0.796016503,15.04223469
230,1.45E+28,2.08E+26,0.795262554,15.13431204
231,1.87E+28,2.65E+26,0.794498274,15.22792485
232,2.41E+28,3.39E+26,0.793723799,15.32306787
233,3.09E+28,4.32E+26,0.792939269,15.41973542
234,3.96E+28,5.51E+26,0.792144825,15.51792147
235,5.08E+28,7.01E+26,0.791340611,15.61761953
236,6.50E+28,8.91E+26,0.790526777,15.71882272
237,8.30E+28,1.13E+27,0.789703473,15.82152367
238,1.06E+29,1.43E+27,0.788870853,15.92571459
239,1.35E+29,1.81E+27,0.788029074,16.03138721
240,1.72E+29,2.29E+27,0.787178295,16.13853275
241,2.18E+29,2.89E+27,0.786318681,16.24714195
242,2.76E+29,3.64E+27,0.785450397,16.35720502
243,3.50E+29,4.58E+27,0.784573613,16.46871166
244,4.42E+29,5.75E+27,0.783688501,16.58165101
245,5.57E+29,7.21E+27,0.782795236,16.69601164
246,7.02E+29,9.02E+27,0.781893998,16.81178158
247,8.82E+29,1.13E+28,0.780984967,16.92894824
248,1.11E+30,1.41E+28,0.780068329,17.04749846
249,1.39E+30,1.75E+28,0.779144271,17.16741846
250,1.73E+30,2.18E+28,0.778212985,17.28869382
251,2.16E+30,2.71E+28,0.777274664,17.4113095
252,2.70E+30,3.37E+28,0.776329506,17.53524981
253,3.35E+30,4.18E+28,0.77537771,17.66049839
254,4.17E+30,5.17E+28,0.774419479,17.7870382
255,5.17E+30,6.40E+28,0.773455021,17.91485152
256,6.40E+30,7.90E+28,0.772484543,18.04391994
257,7.91E+30,9.74E+28,0.771508258,18.17422433
258,9.76E+30,1.20E+29,0.770526382,18.30574485
259,1.20E+31,1.47E+29,0.769539131,18.43846091
260,1.48E+31,1.81E+29,0.768546727,18.57235119
261,1.82E+31,2.22E+29,0.767549394,18.70739363
262,2.23E+31,2.71E+29,0.766547357,18.84356538
263,2.73E+31,3.31E+29,0.765540848,18.98084285
264,3.33E+31,4.04E+29,0.764530097,19.11920165
265,4.06E+31,4.92E+29,0.763515339,19.2586166
266,4.94E+31,5.99E+29,0.762496813,19.39906173
267,6.00E+31,7.27E+29,0.761474758,19.54051027
268,7.28E+31,8.81E+29,0.760449417,19.68293462
269,8.82E+31,1.07E+30,0.759421036,19.82630638
270,1.07E+32,1.29E+30,0.758389863,19.9705963
271,1.29E+32,1.56E+30,0.757356149,20.11577431
272,1.55E+32,1.88E+30,0.756320146,20.2618095
273,1.87E+32,2.26E+30,0.75528211,20.40867011
274,2.24E+32,2.71E+30,0.754242299,20.55632353
275,2.69E+32,3.26E+30,0.753200973,20.70473628
276,3.21E+32,3.91E+30,0.752158395,20.85387405
277,3.84E+32,4.68E+30,0.751114829,21.00370164
278,4.59E+32,5.59E+30,0.750070543,21.154183
279,5.46E+32,6.68E+30,0.749025806,21.30528118
280,6.50E+32,7.96E+30,0.747980888,21.4569584
281,7.72E+32,9.48E+30,0.746936064,21.60917597
282,9.16E+32,1.13E+31,0.745891609,21.76189432
283,1.09E+33,1.34E+31,0.7448478,21.91507304
284,1.28E+33,1.59E+31,0.743804918,22.06867079
285,1.52E+33,1.88E+31,0.742763242,22.2226454
286,1.79E+33,2.23E+31,0.741723056,22.37695378
287,2.11E+33,2.63E+31,0.740684646,22.531552
288,2.48E+33,3.11E+31,0.739648298,22.68639521
289,2.91E+33,3.66E+31,0.738614301,22.84143773
290,3.41E+33,4.31E+31,0.737582945,22.99663299
291,3.99E+33,5.07E+31,0.736554521,23.15193354
292,4.67E+33,5.95E+31,0.735529323,23.30729108
293,5.46E+33,6.98E+31,0.734507646,23.46265645
294,6.37E+33,8.18E+31,0.733489786,23.61797963
295,7.42E+33,9.57E+31,0.732476042,23.77320977
296,8.63E+33,1.12E+32,0.731466713,23.92829513
297,1.00E+34,1.30E+32,0.730462099,24.0831832
298,1.16E+34,1.52E+32,0.729462503,24.23782058
299,1.35E+34,1.77E+32,0.728468228,24.3921531
300,1.56E+34,2.06E+32,0.727479579,24.54612575
301,1.81E+34,2.40E+32,0.726496861,24.69968273
302,2.09E+34,2.78E+32,0.725520382,24.85276744
303,2.41E+34,3.23E+32,0.724550449,25.00532253
304,2.78E+34,3.74E+32,0.723587373,25.15728986
305,3.20E+34,4.33E+32,0.722631462,25.30861054
306,3.68E+34,5.01E+32,0.721683028,25.45922496
307,4.23E+34,5.79E+32,0.720742384,25.60907276
308,4.86E+34,6.68E+32,0.719809842,25.75809289
309,5.57E+34,7.70E+32,0.718885717,25.90622362
310,6.39E+34,8.88E+32,0.717970322,26.05340252
311,7.32E+34,1.02E+33,0.717063974,26.19956655
312,8.37E+34,1.18E+33,0.716166989,26.34465198
313,9.58E+34,1.35E+33,0.715279683,26.48859453
314,1.09E+35,1.55E+33,0.714402373,26.63132929
315,1.25E+35,1.78E+33,0.713535379,26.7727908
316,1.42E+35,2.04E+33,0.712679017,26.91291307
317,1.62E+35,2.34E+33,0.711833606,27.05162957
318,1.85E+35,2.68E+33,0.710999467,27.18887331
319,2.11E+35,3.06E+33,0.710176917,27.32457684
320,2.40E+35,3.50E+33,0.709366277,27.45867227
321,2.73E+35,4.00E+33,0.708567867,27.59109133
322,3.10E+35,4.57E+33,0.707782006,27.72176539
323,3.52E+35,5.21E+33,0.707009013,27.85062548
324,3.99E+35,5.94E+33,0.706249208,27.97760235
325,4.53E+35,6.77E+33,0.705502912,28.10262652
326,5.13E+35,7.71E+33,0.704770442,28.22562826
327,5.82E+35,8.77E+33,0.704052117,28.34653771
328,6.59E+35,9.97E+33,0.703348256,28.46528486
329,7.46E+35,1.13E+34,0.702659175,28.58179963
330,8.45E+35,1.29E+34,0.701985193,28.69601193
331,9.56E+35,1.46E+34,0.701326623,28.80785164
332,1.08E+36,1.66E+34,0.700683782,28.91724877
333,1.22E+36,1.88E+34,0.700056982,29.0241334
334,1.38E+36,2.13E+34,0.699446537,29.12843583
335,1.56E+36,2.42E+34,0.698852756,29.23008657
336,1.76E+36,2.74E+34,0.69827595,29.32901644
337,1.99E+36,3.10E+34,0.697716425,29.42515662
338,2.25E+36,3.52E+34,0.697174488,29.51843871
339,2.54E+36,3.98E+34,0.69665044,29.6087948
340,2.87E+36,4.50E+34,0.696144584,29.69615754
341,3.24E+36,5.09E+34,0.695657218,29.7804602
342,3.66E+36,5.76E+34,0.695188636,29.86163677
343,4.13E+36,6.52E+34,0.694739132,29.93962201
344,4.66E+36,7.37E+34,0.694308995,30.01435153
345,5.26E+36,8.33E+34,0.693898511,30.08576187
346,5.94E+36,9.41E+34,0.69350796,30.1537906
347,6.71E+36,1.06E+35,0.693137622,30.21837638
348,7.57E+36,1.20E+35,0.692787771,30.27945906
349,8.55E+36,1.36E+35,0.692458673,30.33697976
350,9.65E+36,1.53E+35,0.692150595,30.39088096
351,1.09E+37,1.73E+35,0.691863795,30.4411066
352,1.23E+37,1.96E+35,0.691598525,30.48760214
353,1.39E+37,2.21E+35,0.691355034,30.53031473
354,1.57E+37,2.49E+35,0.691133563,30.56919319
355,1.78E+37,2.82E+35,0.690934346,30.60418822
356,2.01E+37,3.18E+35,0.69075761,30.63525242
357,2.27E+37,3.59E+35,0.690603577,30.66234044
358,2.57E+37,4.06E+35,0.690472459,30.68540902
359,2.91E+37,4.59E+35,0.69036446,30.70441716
360,3.29E+37,5.18E+35,0.690279778,30.71932615
361,3.73E+37,5.86E+35,0.690218598,30.73009973
362,4.22E+37,6.62E+35,0.6901811,30.73670413
363,4.79E+37,7.49E+35,0.690167451,30.73910822
364,5.43E+37,8.47E+35,0.69017781,30.73728357
365,6.16E+37,9.58E+35,0.690212325,30.73120457
366,6.99E+37,1.08E+36,0.690271132,30.72084849
367,7.93E+37,1.23E+36,0.690354358,30.70619562
368,9.01E+37,1.39E+36,0.690462115,30.6872293
369,1.02E+38,1.57E+36,0.690594506,30.66393607
370,1.16E+38,1.78E+36,0.69075162,30.63630569
371,1.33E+38,2.02E+36,0.690933531,30.60433127
372,1.51E+38,2.29E+36,0.691140305,30.5680093
373,1.72E+38,2.60E+36,0.691371987,30.52733978
374,1.96E+38,2.96E+36,0.691628615,30.48232621
375,2.24E+38,3.36E+36,0.691910206,30.43297571
376,2.55E+38,3.82E+36,0.692216768,30.37929905
377,2.92E+38,4.34E+36,0.692548288,30.3213107
378,3.34E+38,4.94E+36,0.692904741,30.25902889
379,3.82E+38,5.63E+36,0.693286086,30.19247561
380,4.37E+38,6.42E+36,0.693692265,30.12167667
381,5.01E+38,7.32E+36,0.694123202,30.04666169
382,5.74E+38,8.35E+36,0.694578806,29.96746416
383,6.59E+38,9.54E+36,0.69505897,29.8841214
384,7.58E+38,1.09E+37,0.695563566,29.79667457
385,8.71E+38,1.25E+37,0.696092453,29.70516866
386,1.00E+39,1.43E+37,0.69664547,29.60965246
387,1.15E+39,1.64E+37,0.697222438,29.51017856
388,1.33E+39,1.88E+37,0.697823162,29.40680326
389,1.54E+39,2.16E+37,0.698447428,29.29958658
390,1.78E+39,2.48E+37,0.699095005,29.18859213
391,2.05E+39,2.85E+37,0.699765642,29.07388711
392,2.38E+39,3.28E+37,0.700459074,28.9555422
393,2.75E+39,3.78E+37,0.701175016,28.83363148
394,3.20E+39,4.36E+37,0.701913165,28.70823232
395,3.71E+39,5.04E+37,0.702673202,28.57942532
396,4.31E+39,5.83E+37,0.703454791,28.44729413
397,5.02E+39,6.75E+37,0.704257579,28.31192539
398,5.85E+39,7.82E+37,0.705081196,28.17340859
399,6.82E+39,9.07E+37,0.705925255,28.03183589
400,7.96E+39,1.05E+38,0.706789355,27.88730202
401,9.31E+39,1.23E+38,0.707673079,27.73990415
402,1.09E+40,1.43E+38,0.708575994,27.58974166
403,1.28E+40,1.66E+38,0.709497654,27.43691603
404,1.50E+40,1.94E+38,0.710437597,27.28153068
405,1.76E+40,2.27E+38,0.711395349,27.12369078
406,2.07E+40,2.66E+38,0.712370424,26.96350306
407,2.44E+40,3.12E+38,0.713362321,26.80107567
408,2.87E+40,3.66E+38,0.714370529,26.63651796
409,3.39E+40,4.30E+38,0.715394527,26.46994034
410,4.01E+40,5.07E+38,0.716433781,26.30145404
411,4.75E+40,5.98E+38,0.71748775,26.131171
