Time,J,A,S,tau
0.0,100.0,100.0,0.7338336162572993,9.433962264150944
1.0,98.34557902240539,37.129852463655915,0.7259295880769977,10.422313344775102
2.0,96.75305169057896,13.978061574354914,0.7181565542200407,11.411324077601302
3.0,95.21750497523007,5.4411284730141505,0.7105106209109325,12.400913317584342
4.0,93.73458199476241,2.282597823408878,0.7029877638446642,13.39102675304534
5.0,92.3003214989719,1.1043899195841858,0.695584002585209,14.38161498863406
6.0,90.91111491706548,0.6562683715304969,0.6882954108214715,15.37263301291423
7.0,89.5636683168167,0.47814682101940237,0.681118124738069,16.364039721083184
8.0,88.2549686890351,0.40063470929384515,0.6740483497656428,17.35579748676549
9.0,86.9822540383455,0.36129646018623596,0.6670823659424385,18.347871777385592
10.0,85.74298681989131,0.3370555303232918,0.6602165320882374,19.340230808135544
11.0,84.53483032836111,0.3193281731528358,0.6534472889733566,20.332845230190472
12.0,83.3556276656027,0.3048703981312769,0.6467711616255442,21.325687848946806
13.0,82.20338288563642,0.29240954418338294,0.6401847608396479,22.31873336770153
14.0,81.0762447531855,0.2814361307180499,0.6336847846169703,23.311958161119904
15.0,79.97249093084169,0.2716853616888845,0.6272680179857776,24.305340054783557
16.0,78.89051523459891,0.26300703384941804,0.6209313336379219,25.298858138830884
17.0,77.82881499308958,0.2553085210876907,0.6146716912892236,26.292492583268434
18.0,76.78598060751025,0.24850950956799847,0.6084861375510647,27.286224477021403
19.0,75.76068523498991,0.24255304341814737,0.6023718048483305,28.280035668679567
20.0,74.75167618259944,0.23738251195883017,0.5963259109203756,29.273908623876437
21.0,73.75776637654835,0.23295774348357864,0.5903457574910377,30.267826283904533
22.0,72.77782713098503,0.22923711063607893,0.5844287295765559,31.26177193448302
23.0,71.81078096255827,0.2261929627552294,0.5785722940687151,32.25572907540835
24.0,70.85559537109539,0.22379578113129817,0.5727739989897035,33.24968129453373
25.0,69.91127664388426,0.22202862130985188,0.5670314721138329,34.243612142240124
26.0,68.97686434980444,0.22087248211757393,0.5613424202821045,35.237505004758965
27.0,68.05142583934831,0.22032009229696767,0.5557046281632447,36.23134297751159
28.0,67.13405119927465,0.2203619875819422,0.5501159577225492,37.22510873188212
29.0,66.22384819750539,0.22100004419035024,0.5445743472069344,38.21878438139478
30.0,65.31993747539326,0.2222338233944426,0.5390778108517278,39.212351335685426
31.0,64.42144771458615,0.22407426112449597,0.5336244381654303,40.20579015306169
32.0,63.527510861085645,0.22652985302249776,0.5282123939532856,41.19908037471058
33.0,62.63725730638518,0.2296209237127,0.5228399179743187,42.19220035639386
34.0,61.74981094341896,0.23336521529930845,0.5175053253609028,43.185127074828856
35.0,60.86428415844893,0.23779319132436888,0.5122070067225827,44.17783593007165
36.0,59.97977251498427,0.2429325611420407,0.5069434290458844,45.17030051446599
37.0,59.09534934720696,0.24882512484713232,0.5017131363259048,46.162492375603044
38.0,58.2100598548644,0.25550971383896276,0.49651475103985326,47.154380736181
39.0,57.32291507440834,0.263041156557275,0.49134697539796124,48.14593220523331
40.0,56.4328851465266,0.2714710392389085,0.4862085934973418,49.13711043460125
41.0,55.5388923871956,0.2808722715976817,0.4810984733464509,50.12787576148236
42.0,54.63980356369,0.2913100552567562,0.47601556966473285,51.11818479025785
43.0,53.73442168736692,0.30286593345344437,0.4709589269353384,52.10798994029288
44.0,52.82147704833633,0.3156320294534366,0.4659276830068924,53.097238936709715
45.0,51.89961733890165,0.32971336511042765,0.46092107333435406,54.085874235065894
46.0,50.9673970847,0.345222679775903,0.45593843555984626,55.073832391306816
47.0,50.02326607662863,0.36228481071140894,0.4509792147666513,56.061043356648895
48.0,49.06555662710887,0.3810430840243959,0.4460429694912454,57.04742968357527
49.0,48.09246959951019,0.4016564026876003,0.44112937846711314,58.03290563543959
50.0,47.10205945646874,0.42429658634101974,0.43623824787266,59.01737621200453
51.0,46.09221785624607,0.4491536632865479,0.43136951948241364,60.000736057710775
52.0,45.06065559228121,0.476446106193387,0.42652327981510424,60.982868233771725
53.0,44.004883134278856,0.5064103718509583,0.42169977004212666,61.963642861081624
54.0,42.922189863420705,0.5393033993638705,0.4168993966002875,62.94291563631547
55.0,41.80962144553675,0.5754162306732182,0.41212274291365963,63.92052617675397
56.0,40.66395544967645,0.6150644274745405,0.4073705821155158,64.89629618573775
57.0,39.48167579570448,0.6585901274226328,0.40264389037479903,65.87002746787256
58.0,38.25894538328889,0.7063753060658947,0.3979438612937127,66.84149974129483
59.0,36.99157760361002,0.7588361859036911,0.3932719209215021,67.81046827138111
60.0,35.675006791728,0.816425920988495,0.3886297433859536,68.7766613162339
61.0,34.30425804792744,0.879636567501406,0.3840192669126926,69.73977739239358
62.0,32.87391696027842,0.9490004954758434,0.379442709955037,70.69948237541227
63.0,31.37809993130405,1.0250911867097308,0.3749025870693469,71.6554064600978
64.0,29.81042601101269,1.1085232669326153,0.3704017240682444,72.60714101793357
65.0,28.16399136611697,1.1999515645192744,0.3659432718670125,73.55423540465117
66.0,26.431347767999586,1.3000689487797559,0.3615307183084893,74.49619378931071
67.0,24.604486753376282,1.4096026713367311,0.35716789711218055,75.43247209748442
68.0,22.674831390511518,1.529308914843182,0.35285899294985396,76.3624751849113
69.0,20.633237853349573,1.659965248264416,0.3486085415112216,77.2855543835897
70.0,18.4700092423214,1.8023607030876112,0.34442142330163844,78.20100558848277
71.0,16.17492426271542,1.9572832272749774,0.340302849825032,79.10806807801065
72.0,13.737283440839498,2.1255043511445937,0.3362583407693071,80.00592428276649
73.0,11.145975480109145,2.307761018697079,0.33229369085114363,80.8937007311945
74.0,8.389566085769031,2.5047347042875305,0.32841492511701476,81.77047040443622
75.0,5.456411071900976,2.7170281492504427,0.32462824176115684,82.63525672092584
76.0,2.334794780357131,2.945163658257023,0.320939941936977,83.48703933529885
77.0,0.0,3.189510347312694,0.317356346542507,84.3247619105391
78.0,0.0,3.4502054253475074,0.3138837008059625,85.14734188561361
79.0,0.0,4.329093653249394,0.3105280681710297,85.95368219695497
80.0,0.0,8.373821224732756,0.3072952160965023,86.74268481460022
81.0,0.0,12.652330809129122,0.30419049695112693,87.51326574614959
82.0,0.0,17.171750288539336,0.30121872822842366,88.26437108527287
83.0,0.0,21.93773196323819,0.2983840775498214,88.99499347338872
84.0,0.0,26.95424548206123,0.2956899570287304,89.70418832838106
85.0,0.0,32.223401031250106,0.29313893258502827,90.39108907447785
86.0,0.0,37.74531207795291,0.29073265295310974,91.05492062448086
87.0,0.0,43.51800540160043,0.28847180232014685,91.69501042297749
88.0,0.0,49.53738369575099,0.28635607928950685,92.31079648082572
89.0,0.0,55.79724305918298,0.2843842033580392,92.90183200560807
90.0,0.0,62.28934443778473,0.2825539484413817,93.46778644665494
91.0,0.0,69.00353504073914,0.2808622014357457,94.0084429930084
92.0,0.0,75.92791316251406,0.2793050424780321,94.52369276944997
93.0,0.0,83.04902794556291,0.27787784254980213,95.01352616147537
94.0,0.0,90.35210286423006,0.276575372839886,95.4780218964902
95.0,0.0,97.82127354312678,0.27539192100175214,95.91733449390124
96.0,0.0,105.43983016337671,0.27432140932498444,96.33168073442094
97.0,0.0,108.34630608031402,0.4035669704045526,59.10608132743244
98.0,18.526885304088307,105.41818956014298,0.5503785178567456,32.40724631570945
99.0,40.65959817027552,102.50985473492783,0.6019777157042733,25.730723669178953
100.0,63.35400283992375,99.62267447069789,0.6324789276915428,22.172367139472847
101.0,86.02181730180449,97.37556916334995,0.6534953316815701,19.832868220852315
102.0,108.12904743369432,96.60345356336192,0.669065835804577,18.13242457003708
103.0,130.03900384515492,97.39029071912849,0.6810941033037657,16.820514038718976
104.0,152.153194768812,99.91028948642993,0.6906380645172207,15.766962109848787
105.0,175.00265454933637,104.37256051820842,0.6983505233454619,14.895804858912458
106.0,199.28985174342935,111.0168316023371,0.7046644497518159,14.159043334503812
107.0,225.93332706712468,120.110937956699,0.7098827455282577,13.524519901734328
108.0,256.1166729513465,131.9491698825371,0.7142259280338433,12.969729874038554
109.0,291.3405434161629,146.8517986704978,0.7178596638770746,12.478372450751975
110.0,334.7961836495687,163.60542727270902,0.7209115386363357,12.03831480566927
111.0,389.3010240685309,180.65751698986986,0.7234817827020655,11.640326414748873
112.0,455.93643502713076,198.00130643452218,0.7256504130816286,11.27725841684755
113.0,535.5734039557713,215.9511641237865,0.7274821655598418,10.94349062354867
114.0,629.0618682800733,235.23090588970788,0.7290299797553742,10.634550029270246
115.0,737.6722738075686,256.7763037604479,0.7303375411839588,10.346838808747306
116.0,863.3051497573246,281.7970752163991,0.7314411620751761,10.077437557526256
117.0,1008.7907931811054,311.844073239001,0.7323712105775853,9.82395907740182
118.0,1178.2976772875356,348.88015865826833,0.7331532164347496,9.584437801117254
119.0,1377.910124923375,395.31158503580895,0.7338087302283277,9.35724574491886
120.0,1616.9710078000048,453.03049678982507,0.7343560101779493,9.141026898915081
121.0,1907.8969642367451,523.1335517157415,0.7348105693570555,8.934646115239204
122.0,2265.215462391923,606.8021337704064,0.735185622702856,8.73714836545406
123.0,2705.541811297691,705.7689186232346,0.7354924508960264,8.547726364809128
124.0,3248.1314281284886,822.7231541373751,0.7357407005539922,8.365694497085858
125.0,3915.953818279442,961.7664682851245,0.7359386344868063,8.190467636383664
126.0,4737.424358892853,1129.0330232397755,0.7360933390098585,8.021544023997402
127.0,5749.106514252698,1333.485984150179,0.7362108991504942,7.858491172124222
128.0,7000.096483142058,1587.350074876361,0.7362965456225659,7.700934339743792
129.0,8557.81670627814,1905.392985628926,0.7363547789878356,7.548547047461587
130.0,10512.915056822458,2304.837728134182,0.736389475095229,7.401043233245139
131.0,12984.074671902354,2806.165818355088,0.7364039745894053,7.258170765606827
132.0,16124.00150277349,3434.7465803009254,0.7364011591290026,7.119706065174894
133.0,20127.920515961076,4223.509414598189,0.7363835163941457,6.985449637901512
134.0,25246.429126776588,5217.109844202779,0.736353195613448,6.855222360129571
135.0,31805.745271375006,6477.756095170588,0.7363120550519869,6.728862385184636
136.0,40239.31769548354,8091.107250448625,0.7362617026563245,6.606222565928738
137.0,51131.47333594656,10171.699111635568,0.7362035309331139,6.487168299070551
138.0,65272.12048475467,12869.66917739583,0.7361387467644489,6.3715757338273065
139.0,83725.0047721437,16380.715860595426,0.7360683971003158,6.259330266012414
140.0,107915.20370217954,20962.019646899596,0.7359933909368707,6.15032528447221
141.0,139747.25116941973,26957.93742662799,0.7359145182646025,6.0444611168855555
142.0,181773.85274340492,34839.032274256315,0.7358324663036897,5.941644150460515
143.0,237443.64812101235,45254.14459041509,0.7357478335124842,5.84178609079091
144.0,311454.6725537283,59096.07270294092,0.7356611416036518,5.74480334279518
145.0,410242.0135221624,77585.71224996471,0.7355728459194093,5.650616487399806
146.0,542635.8791108229,102386.39032451849,0.7354833443472809,5.559149842696557
147.0,720749.2885700753,135769.3563544783,0.7353929850105418,5.47033109361089
148.0,961202.3174655216,180860.92337980648,0.7353020728969372,5.384090978723658
149.0,1286853.6904756571,242002.55771979393,0.7352108755756259,5.3003630252415315
150.0,1729275.3166044336,325254.6272893392,0.7351196281303353,5.219083324038821
151.0,2332263.5512643573,439086.24511499604,0.7350285374183138,5.140190338159012
152.0,3156760.7693374497,595325.2465317005,0.7349377857491189,5.063624739258368
153.0,4287708.026773113,810500.8041377284,0.7348475340639679,4.989329267387113
154.0,5843627.272322434,1107786.4381769043,0.7347579246849681,4.9172486102661335
155.0,7990167.064834419,1519818.1951550578,0.7346690836937757,4.847329298853797
156.0,10959386.791919485,2092732.6162974644,0.7345811229907225,4.779519616624767
157.0,15077301.782222489,2891881.3126663943,0.7344941420790546,4.713769519835673
158.0,20802881.07972602,4009927.052602048,0.7344082296106822,4.650030567956679
159.0,28783351.073849484,5578415.967502058,0.7343234647273019,4.588255861633462
160.0,39932579.72975601,7784480.744445139,0.7342399182248158,4.5283999874047085
161.0,55542752.45258614,10895006.18791079,0.73415765356388,4.470418968190436
162.0,77444100.07937343,15291413.902445413,0.7340767277488272,4.414270218316783
163.0,108233113.1875943,21519580.50994327,0.7339971920920703,4.3599125026241055
164.0,151598624.68021518,30361586.152773395,0.7339190928791111,4.307305898983895
165.0,212787444.28426012,42939223.97595341,0.7338424719483693,4.256411763520365
166.0,299269833.2297266,60863856.66991183,0.7337673671963476,4.207192698415042
167.0,421693750.51254326,86453235.20581084,0.7336938130184061,4.159612521723341
168.0,595252663.7476047,123044643.09412508,0.7336218406939224,4.113636238929492
169.0,841646724.6111484,175447373.00281605,0.7335514787226012,4.069230016178326
170.0,1191896778.850749,250597063.4547844,0.7334827531188475,4.026361154732975
171.0,1690378445.349354,358503483.3734658,0.7334156876695044,3.9849980666634686
172.0,2400617156.2163515,513624002.28878534,0.7333503041595291,3.945110251654034
173.0,3413615702.1667843,736851480.4107431,0.7332866225701368,3.9066682746291996
174.0,4859811819.455284,1058392683.8559144,0.7332246612526203,3.869643744338691
175.0,6926276338.611379,1521936899.5642428,0.7331644370810597,3.83400929270295
176.0,9881423271.952234,2190693545.46977,0.7331059655867449,3.799738554812683
177.0,14110533671.32171,3156141801.3655643,0.7330492610763618,3.7668061497099328
178.0,20166892210.724632,4550698478.995175,0.7329943367362007,3.7351876617196584
179.0,28845289759.153942,6566058563.118942,0.7329412047240585,3.7048596223885566
180.0,41287806648.964806,9479757564.283636,0.7328898762502637,3.675799493072046
181.0,59136075676.50131,13693610674.527262,0.7328403616493513,3.6479856479703243
182.0,84750236868.1667,19789360226.73291,0.7327926704433542,3.6213973577696392
183.0,121524378659.75719,28609194813.057907,0.7327468113977903,3.5960147738143395
184.0,174340451022.48126,41372185977.98799,0.7327027925712818,3.5718189127154254
185.0,250221531654.14975,59842739413.76128,0.7326606213594217,3.548791641551786
186.0,359273295043.80927,86574085029.63081,0.7326203045337003,3.5269156635122942
187.0,516038708833.41516,125260177648.79088,0.732581848276002,3.5061745040078174
188.0,741449709181.1368,181244325975.53,0.7325452582091386,3.486552497338345
189.0,1065639789666.6129,262253600345.2203,0.7325105394239871,3.468034773749011
190.0,1531992378007.692,379459592837.3693,0.7324776965034799,3.4506072469988376
191.0,2202979366819.0,549009881307.40735,0.7324467335438644,3.4342566024204344
192.0,3168572630796.3403,794237531650.6604,0.7324176541735452,3.418970285364423
193.0,4558362813667.595,1148850173211.0264,0.7323904615696685,3.404736490175374
194.0,6559047135472.152,1661528930509.8499,0.7323651584728017,3.391544149587052
195.0,9439625185957.143,2402559573843.8086,0.7323417471998205,3.379382924532737
196.0,13587743780289.057,3473395678968.633,0.7323202296551696,3.3682431944683593
197.0,19562153930991.914,5020436465196.208,0.7323006073407466,3.3581160480596175
198.0,28168325887763.863,7254883843584.641,0.7322828813644072,3.3489932743224515
199.0,40567666942801.59,10481352044625.951,0.7322670524472984,3.3408673542225604
200.0,58435138624727.7,15139060145666.83,0.7322531209301176,3.33373145261726
201.0,84186705805692.72,21861171353260.445,0.7322410867782995,3.327579410670219
202.0,121308128051239.69,31560207943981.7,0.7322309495863273,3.3224057386513115
203.0,174829520180256.0,45550983162590.984,0.7322227085811434,3.3182056090916343
204.0,252011062110628.22,65727581008162.8,0.7322163626247128,3.3149748503936878
205.0,363334514284553.4,94817901973651.02,0.7322119102158805,3.31270994075962
206.0,523934954911419.44,136749900668901.77,0.7322093494914258,3.3114080024995203
207.0,755672178271098.4,197178402386086.12,0.7322086782264383,3.3110667967407688
208.0,1090125206944749.2,284242359702767.1,0.7322098938340371,3.311684718414879
209.0,1572920019506112.5,409653892499069.2,0.7322129933643631,3.3132607916371657
210.0,2269994504786025.5,590263279095618.1,0.7322179735029783,3.3157946654068455
211.0,3276653186453227.0,850307333245745.5,0.7322248305685928,3.3192866095791724
212.0,4730664396366224.0,1224640393777948.2,0.7322335605101083,3.323737511208141
213.0,6831216266129964.0,1763372404261637.2,0.7322441589030743,3.3291488711296755
214.0,9866307886351644.0,2538527996752255.5,0.7322566209454094,3.3355228008273126
215.0,1.4252389945688538e+16,3653604058840574.5,0.732270941452453,3.342862019609037
216.0,2.059167966716003e+16,5257274039212789.0,0.7322871148513334,3.3511698519665716
217.0,2.9754967152499068e+16,7563043358035378.0,0.7323051351745231,3.3604502252201702
218.0,4.300140299902566e+16,1.0877412556285684e+16,0.7323249960526624,3.370707667384554
219.0,6.215144515761232e+16,1.5640205308884862e+16,0.7323466907065308,3.3819473051946067
220.0,8.983660452026075e+16,2.2482313113615084e+16,0.732370211938084,3.394174862386302
221.0,1.298601541561521e+17,3.23082597996236e+16,0.7323955521206005,3.4073966581051676
222.0,1.8771698097261814e+17,4.6414218141212136e+16,0.7324227031877326,3.421619605470871
223.0,2.7134338863290634e+17,6.665658175696409e+16,0.7324516566214354,3.436851210328753
224.0,3.9219703886253997e+17,9.56923806072697e+16,0.732482403438709,3.4530995700551674
225.0,5.6680996616933965e+17,1.3732207054381582e+17,0.7325149341769268,3.4703733725112724
226.0,8.19023054427094e+17,1.9697754789113226e+17,0.7325492388777252,3.488681895082882
227.0,1.183192485272732e+18,2.8241600962935536e+17,0.7325853070692615,3.5080350037373957
228.0,1.708787507616996e+18,4.0470582026691e+17,0.7326231277466091,3.5284431521902735
229.0,2.46697892356055e+18,5.796243030180549e+17,0.7326626893502112,3.549917381052387
230.0,3.560051324611071e+18,8.296373816904047e+17,0.7327039797420669,3.57246931698135
231.0,5.134845251840159e+18,1.1866993008156905e+18,0.732746986179405,3.596111171866628
232.0,7.401910561705105e+18,1.6962026466135337e+18,0.7327916952856491,3.6208557419135934
233.0,1.0662723140715012e+19,2.422544919259613e+18,0.7328380930182096,3.6467164067197957
234.0,1.53483359626256e+19,3.456954782474571e+18,0.732886164632819,3.6737071282799802
235.0,2.207406220869321e+19,4.928469533425267e+18,0.7329358946440095,3.7018424498530402
236.0,3.1716680947347812e+19,7.019307875364059e+18,0.7329872667811317,3.7311374947847344
237.0,4.552323941579131e+19,9.986330041214876e+18,0.7330402639395254,3.7616079651585688
238.0,6.52637097260377e+19,1.4190929197013815e+19,0.7330948681261485,3.793270140307206
239.0,9.344480458681292e+19,2.0140564456835293e+19,0.73315106039891,3.826140875216847
240.0,1.3360837653478587e+20,2.85462620281914e+19,0.7332088207990924,3.8602375986992343
241.0,1.907460724277106e+20,4.0402039354357465e+19,0.7332681282757922,3.8955783114408673
242.0,2.718743469887343e+20,5.709422367425301e+19,0.7333289606014234,3.932181583871845
243.0,3.868276200086147e+20,8.055136664981665e+19,0.733391294277256,3.97006655381378
244.0,5.493482508661829e+20,1.134492432707188e+20,0.7334551044274532,4.009252924020833
245.0,7.78579301663752e+20,1.5948992479806443e+20,0.7335203646803489,4.049760959505993
246.0,1.1010963007965584e+21,2.2378031305709483e+20,0.7335870470352549,4.091611484730181
247.0,1.5536629949233113e+21,3.133436562464694e+20,0.733655121712713,4.134825880714569
248.0,2.186949279233902e+21,4.3780723501032715e+20,0.7337245569863992,4.179426081997256
249.0,3.070515541779953e+21,6.103234398039728e+20,0.7337953189939603,4.225434573609181
250.0,4.299469317514432e+21,8.487973046161373e+20,0.7338673715240605,4.272874388057114
