Time,J,A,S,tau
0.0,100.0,100.0,0.7338336162572993,9.433962264150944
1.0,82.4003023863144,47.26168824412212,0.7341121771376766,10.080622608055014
2.0,65.11763925794283,27.786618508731976,0.7343907926803408,10.729892867105622
3.0,48.139560983054366,20.553366255064606,0.7346694466131822,11.381626666082244
4.0,31.453885303270862,17.827341374566604,0.7349481303500969,12.03569494631478
5.0,15.048907565050662,16.76315333274091,0.7352268371072119,12.691970142002175
6.0,0.0,16.31401079761797,0.7355055617987587,13.350326104419914
7.0,0.0,16.094752642564252,0.7357843009350263,14.010638026062944
8.0,0.0,15.963708133156826,0.736063052522389,14.672782364821693
9.0,0.0,15.868630271172542,0.7363418159634497,15.33663676661403
10.0,0.0,15.790126113325393,0.7366205919614552,16.002079990124017
11.0,0.0,15.721735040541672,0.736899382435423,16.668991839407173
12.0,0.0,15.660544488756768,0.7371781904099044,17.33725307324654
13.0,0.0,15.605425222170023,0.7374570199327228,18.006745337389507
14.0,0.0,15.55598837195501,0.7377358759831438,18.67735108744149
15.0,0.0,15.512087597063882,0.7380147643827036,19.34895351303791
16.0,0.0,15.473657614335135,0.7382936917071254,20.021436462051533
17.0,0.0,15.440661806541735,0.7385726651991984,20.69468436483621
18.0,0.0,15.413075226362668,0.7388516926824918,21.368582158506477
19.0,0.0,15.390879389204319,0.7391307824757796,22.04301521125171
20.0,0.0,15.374076151495515,0.7394099433080774,22.717869246711892
21.0,0.0,15.362664068072888,0.739689184233991,23.39303026826047
22.0,0.0,15.356636104890066,0.7399685145493705,24.06838448330822
23.0,0.0,15.355988872899113,0.7402479437072541,24.74381822771993
24.0,0.0,15.360722600404783,0.7405274812338464,25.41921789023552
25.0,0.0,15.37084111882699,0.7408071366444016,26.0944698368955
26.0,0.0,15.386351852850689,0.7410869193588772,26.7694603354646
27.0,0.0,15.407265812128747,0.7413668386172185,27.44407547984712
28.0,0.0,15.433709483584863,0.7416469033921559,28.11820111267654
29.0,0.0,8.162084330336043,0.7417613967612661,28.411422877036255
30.0,0.0,3.00262933808349,0.7417799090167636,28.481544557005883
31.0,0.0,1.1045932440319348,0.7417961019438534,28.543001454591845
32.0,0.0,0.40635252753035606,0.7418099360693832,28.59559511168313
33.0,0.0,0.149487048834024,0.7418213717670588,28.639132593235644
34.0,0.0,0.054992596760477956,0.7418303693465161,28.673427240587355
35.0,0.0,0.0202304186386194,0.7418368891500804,28.698299462423247
36.0,0.0,0.007442270262664425,0.7418408916573007,28.713577561897164
37.0,0.0,0.0027378274033514637,0.7418423375972818,28.719098597839352
38.0,0.0,0.001007179157084493,0.7418411880687809,28.714709277341118
39.0,0.0,0.00037051632009296455,0.7418374046679632,28.700266876325504
40.0,0.0,0.00013630376600265435,0.7418309496236343,28.675640183981315
41.0,0.0,5.0142663356421336e-05,0.7418217859396774,28.6407104661587
42.0,0.0,1.8446164510275258e-05,0.7418098775443398,28.59537244200173
43.0,0.0,0.0,0.7417951894459065,28.539535267279263
44.0,0.0,0.0,0.7417776878941972,28.47312351699917
45.0,0.0,0.0,0.7417573405472175,28.396078159100004
46.0,0.0,0.0,0.7417341166421724,28.30835751009276
47.0,0.0,0.0,0.7417079871699649,28.20993816287288
48.0,0.0,0.0,0.7416789250521296,28.10081587614983
49.0,0.0,0.0,0.7416469053192875,27.98100641568323
50.0,0.0,0.0,0.7416119052876479,27.850546312756574
51.0,0.0,0.0,0.741573904741597,27.709493611845943
52.0,0.0,0.0,0.7415328860886116,27.55792833644636
53.0,0.0,0.0,0.7414888345672801,27.39595338079126
54.0,0.0,0.0,0.7414417384401486,27.223694832513434
55.0,0.0,0.0,0.7413915888014945,27.041300412618174
56.0,0.0,0.0,0.7413383806892089,26.848945292774236
57.0,0.0,0.0,0.7412821117128604,26.646823699102335
58.0,0.0,0.0,0.741222783092264,26.43515173760105
59.0,0.0,0.0,0.7411604018167165,26.214183652956105
60.0,0.0,0.0,0.7410949754021683,25.984177240751244
61.0,0.0,0.0,0.7410265157942804,25.74541400407895
62.0,0.0,0.0,0.740955041989734,25.498214955828118
63.0,0.0,0.0,0.7408805736381201,25.24290496906163
64.0,0.0,0.0,0.7408031341245698,24.97982623601627
65.0,0.0,0.0,0.7407227538056351,24.709352990762913
66.0,0.0,0.0,0.7406394640433605,24.4318639187011
67.0,0.0,0.0,0.7405533015312988,24.147758009791907
68.0,0.0,0.0,0.7404643073048891,23.857449378491143
69.0,0.0,0.0,0.7403725240059038,23.561357490490003
70.0,0.0,0.0,0.7402780006537543,23.259918870549605
71.0,0.0,0.0,0.7401807880461602,22.953573507067684
72.0,0.0,0.0,0.7400809404176361,22.642768637326334
73.0,0.0,0.0,0.7399785168140742,22.32795638790424
74.0,0.0,0.0,0.7398735771868483,22.009589743220065
75.0,0.0,0.0,0.7397661861247067,21.6881229622532
76.0,0.0,0.0,0.7396564105369511,21.364006967011996
77.0,0.0,0.0,0.7395443189588136,21.037691545308128
78.0,0.0,0.0,0.73942998359629,20.709617927301682
79.0,0.0,0.0,0.7393134775845084,20.38022364763145
80.0,0.0,0.0,0.7391948767834476,20.049933764618057
81.0,0.0,0.0,0.7390742581373654,19.719166526647623
82.0,0.0,0.0,0.7389517001918662,19.388325986305407
83.0,0.0,0.0,0.7388272829869057,19.057803173879662
84.0,0.0,0.0,0.7387010868321178,18.72797914200309
85.0,0.0,0.0,0.7385731936004842,18.399212460189364
86.0,0.0,0.0,0.738443685218412,18.071855108333068
87.0,0.0,0.0,0.7383126439345978,17.746233979351572
88.0,0.0,0.0,0.7381801527348849,17.422664507760462
89.0,0.0,0.0,0.7380462936175589,17.101443843101535
90.0,0.0,0.0,0.737911149381872,16.782847328094988
91.0,0.0,0.0,0.7377748017621402,16.467141196905477
92.0,0.0,0.0,0.7376373319609816,16.154562150882402
93.0,0.0,0.0,0.7374988216981776,15.845339164775593
94.0,0.0,0.0,0.7373593499898992,15.53968031442107
95.0,0.0,0.0,0.7372189964423655,15.23777134260093
96.0,0.0,0.0,0.737077839595815,14.93979222798213
97.0,0.0,0.0,0.736935955114929,14.645894048923758
98.0,0.0,0.0,0.7367934202484606,14.356217072486713
99.0,0.0,0.0,0.7366503094841845,14.070893205616459
100.0,0.0,0.0,0.7365066944554817,13.790024790814881
101.0,0.0,0.0,0.7363626489190014,13.513708247625573
102.0,0.0,0.0,0.736218243856916,13.24203291274952
103.0,0.0,0.0,0.7360735457646649,12.975060175289268
104.0,0.0,0.0,0.7359286240730145,12.712846565187945
105.0,0.0,0.0,0.7357835459423695,12.455443680416696
106.0,0.0,0.0,0.735638372852934,12.202878785065648
107.0,0.0,0.0,0.7354931695993965,11.955174771625032
108.0,0.0,0.0,0.7353479993447875,11.712351367661563
109.0,0.0,0.0,0.7352029186753054,11.474407667657674
110.0,0.0,0.0,0.735057987607226,11.241339049236101
111.0,0.0,0.0,0.7349132652458572,11.01313915729687
112.0,0.0,0.0,0.7347688035694001,10.78978452275568
113.0,0.0,0.0,0.7346246578050145,10.571248687947186
114.0,0.0,0.0,0.7344808830247442,10.357504626971938
115.0,0.0,0.0,0.7343375269893763,10.148511388731896
116.0,0.0,0.0,0.7341946402261091,9.944225737560014
117.0,0.0,0.0,0.7340522739060402,9.744604864447442
118.0,0.0,0.0,0.7339104725534195,9.549595255495763
119.0,0.0,0.0,0.7337692822213008,9.359141606916758
120.0,0.0,0.0,0.7336287488152865,9.173188122263044
121.0,0.0,0.0,0.7334889132701743,8.991671264396862
122.0,0.0,0.0,0.7333498193791539,8.81452933287753
123.0,0.0,0.0,0.7332115077828711,8.641696928242077
124.0,0.0,0.0,0.7330740169253049,8.473105131973613
125.0,0.0,0.0,0.7329373874580067,8.308687133373356
126.0,0.0,0.0,0.7328016551183709,8.148370979295887
127.0,0.0,0.0,0.7326668566930044,7.992085767187509
128.0,0.0,0.0,0.7325330289461721,7.839760667959212
129.0,0.0,0.0,0.7324002041585984,7.6913210473392555
130.0,0.0,0.0,0.7322684172127893,7.546695362184608
131.0,0.0,0.0,0.7321377005755855,7.40581008829234
132.0,0.0,0.0,0.7320080845398058,7.268591100604773
133.0,0.0,0.0,0.7318796015453043,7.134966787959296
134.0,0.0,0.0,0.7317522797826753,7.0048625617085705
135.0,0.0,0.0,0.7316261483284334,6.8782066126244885
136.0,0.0,0.0,0.7315012371104033,6.754928199587304
137.0,0.0,0.0,0.7313775715251857,6.634954068559131
138.0,0.0,0.0,0.7312551784639271,6.518214507492561
139.0,0.0,0.0,0.7311340852970414,6.404640509462185
140.0,0.0,0.0,0.7310143154666718,6.2941616915677745
141.0,0.0,0.0,0.7308958939035216,6.186710884415451
142.0,0.0,0.0,0.7307788446193494,6.082220856890786
143.0,0.0,0.0,0.7306631899802998,5.980625448309934
144.0,0.0,0.0,0.7305489526810266,5.881859820471226
145.0,0.0,0.0,0.7304361541886206,5.785860186060548
146.0,0.0,0.0,0.7303248155962709,5.692563871095737
147.0,0.0,0.0,0.7302149573848276,5.601909505236023
148.0,0.0,0.0,0.7301065993873991,5.513836917649603
149.0,0.0,0.0,0.729999760922179,5.428287147814601
150.0,0.0,0.0,0.7298944606809645,5.345202492632528
151.0,0.0,0.0,0.7297907168551757,5.264526537652297
152.0,0.0,0.0,0.7296885470639992,5.1862041251708675
153.0,0.0,0.0,0.7295879684195249,5.110181384500218
154.0,0.0,0.0,0.7294889975129414,5.03640572097763
155.0,0.0,0.0,0.7293916504282395,4.964825822947699
156.0,0.0,0.0,0.7292959427626762,4.895391656983551
157.0,0.0,0.0,0.7292018896260422,4.8280544619422185
158.0,0.0,0.0,0.7291095056560688,4.76276674410492
159.0,0.0,0.0,0.7290188050262919,4.69948226880342
160.0,0.0,0.0,0.7289298014551171,4.638156049846585
161.0,0.0,0.0,0.7288425082144795,4.5787443404061205
162.0,0.0,0.0,0.7287569381378793,4.521204619692972
163.0,0.0,0.0,0.7286731036288142,4.465495581119541
164.0,0.0,1.3697018820696832e-05,0.7285910166677759,4.411577118058857
165.0,0.0,1.925035510017879e-05,0.7285106888200484,4.359410309680981
166.0,0.0,2.7115300865100642e-05,0.7284321312424389,4.30895740589051
167.0,0.0,3.827310492803367e-05,0.7283553546899386,4.2601818117281045
168.0,0.0,5.412745771026858e-05,0.728280369522249,4.2130480715306255
169.0,0.0,7.668827688573404e-05,0.7282071857098638,4.167521852621836
170.0,0.0,0.00010883597651121896,0.7281358128399573,4.123569928818162
171.0,0.0,0.00015470133307520515,0.7280662601219571,4.081160163736128
172.0,0.0,0.00022021175394012878,0.7279985363929439,4.040261493996523
173.0,0.0,0.00031387733898181116,0.7279326501227976,4.0008439124306845
174.0,0.0,0.0004479219624342553,0.7278686094190779,3.962878451239691
175.0,0.0,0.0006399109990010439,0.7278064220317012,3.926337165227228
176.0,0.0,0.000915092941216727,0.7277460953573909,3.891193115141742
177.0,0.0,0.0013097684727403837,0.7276876364439137,3.8574203511642233
178.0,0.0,0.0018761374844091,0.7276310519941015,3.824993896580773
179.0,0.0,0.002689272308066729,0.7275763483696656,3.79388973167489
180.0,0.0,0.0038571465152093414,0.7275235315948108,3.764084777855204
181.0,0.0,0.005535055667202478,0.7274726073596502,3.735556882061367
182.0,0.0,0.00794634858757459,0.7274235810234209,3.708284801468177
183.0,0.0,0.011412224553715222,0.7273764576175057,3.6822481885078933
184.0,0.0,0.016394552050745078,0.7273312418482609,3.6574275762328154
185.0,0.0,0.023557377779254967,0.7272879380996579,3.6338043640278297
186.0,0.0,0.033855258203787965,0.7272465504357378,3.611360803684525
187.0,0.0,0.04866007617484832,0.7272070826028797,3.590079985858865
188.0,0.0,0.06994305583460272,0.7271695380318831,3.569945826918347
189.0,0.0,0.10053594972083603,0.7271339198398615,3.5509430561885353
190.0,0.0,0.14450571221640413,0.7271002308319531,3.533057203608932
191.0,0.3062671909173712,0.2076914805926797,0.7270684735029143,3.516274587775509
192.0,0.7176986449681535,0.29847479789196874,0.727038650038437,3.5005823044292113
193.0,1.2815747753116595,0.42888344040007814,0.7270107623163178,3.4859682153414524
194.0,2.065568385013964,0.6161728030495314,0.7269848119074789,3.4724209376257438
195.0,3.1663900616332272,0.885090714165611,0.726960800076803,3.4599298334618935
196.0,4.722343461381127,1.2711211265037323,0.7269387277837809,3.4484850002367358
197.0,6.9313234059932896,1.825128465422538,0.7269185956829932,3.4380772611210473
198.0,10.076614201919902,2.620004414468653,0.7269004041244271,3.4286981560353396
199.0,14.563866262985545,3.7601794707908924,0.7268841531536064,3.420339933034301
200.0,20.97412890155556,5.3952326235581385,0.7268698425115544,3.412995540114848
201.0,30.139926294417634,7.739355950505185,0.726857471634603,3.4066586174003963
202.0,43.254368559872624,11.099192591923062,0.7268470396540162,3.4013234897301254
203.0,62.027755370343044,15.913642448142191,0.7268385453954529,3.3969851596530454
204.0,88.91236665245444,22.81075728229494,0.7268319873782793,3.393639300779131
205.0,127.42507501094084,32.689062984433605,0.7268273638147004,3.391282251515084
206.0,182.61068064320148,46.833772499415865,0.7268246726087381,3.3899110091796727
207.0,261.7073470972083,67.0827899019594,0.726823911355066,3.389523224450775
208.0,375.10212986300996,96.06383777250664,0.7268250773376672,3.390117196170625
209.0,537.7039805262218,137.53309435183718,0.7268281675283508,3.391691866499326
210.0,770.916331908195,196.85858800836277,0.7268331785851303,3.3942468163688706
211.0,1105.4705376152635,281.7101950921564,0.7268401068504344,3.397782261263065
212.0,1585.4982034781945,403.0442130528693,0.7268489483491894,3.4022990473083774
213.0,2274.382228363559,576.5076002027719,0.7268596987867696,3.4077986476283533
214.0,3263.1611997480995,824.4405067267547,0.7268723535467954,3.414283158985635
215.0,4682.606689904168,1178.7307188245622,0.726886907688814,3.4217552986914197
216.0,6720.569449109852,1684.8801425645952,0.7269033559458615,3.4302184017355875
217.0,9646.883514322933,2407.796538071603,0.7269216927218864,3.4396764181598485
218.0,13849.129999529989,3440.037478259263,0.7269419120890737,3.450133910648349
219.0,19883.956401336778,4913.536691608605,0.7269640077850623,3.4615960522897153
220.0,28550.67657481861,7016.276932427705,0.7269879732100452,3.4740686245308345
221.0,40996.82418824142,10015.976977690332,0.7270138014237857,3.4875580152910497
222.0,58869.37193478828,14293.714461241563,0.7270414851425493,3.502071217191802
223.0,84531.20527046823,20391.622766891393,0.7270710167359357,3.51761582591939
224.0,121370.91393091778,29080.48237267124,0.727102388223652,3.534200038683514
225.0,174245.51148665373,41455.401334023125,0.7271355912722222,3.551832652727892
226.0,250112.45726888184,59071.13962812794,0.7271706171916212,3.5705230639074403
227.0,358931.32052411424,84133.24760271939,0.7272074569318772,3.590281265288357
228.0,514947.8448508129,119767.67754743733,0.7272461010796332,3.611117845728982
229.0,738520.0707515295,170400.63640895468,0.7272865398546655,3.6330439884520556
230.0,1058712.6572173948,242292.86058058208,0.7273287631063968,3.656071469558348
231.0,1516974.0440858337,344289.83719505987,0.7273727603104014,3.6802126564382007
232.0,2172339.2676697234,488873.83680464816,0.7274185205648853,3.7054805061040272
233.0,3108779.9846045407,693635.6154907229,0.7274660325872193,3.7318885633440413
234.0,4445562.112148034,983329.7764734338,0.7275152847104761,3.7594509587200844
235.0,6351808.965077617,1392739.2434854058,0.7275662648799968,3.7881824063646437
236.0,9066921.940410512,1970657.9464795047,0.7276189606500214,3.8180982015196436
237.0,12929147.314804157,2785414.5052994043,0.727673359180382,3.849214217804481
238.0,18415426.24159678,3932514.629134637,0.7277294472332623,3.881546904183666
239.0,26196790.083342113,5545186.382301401,0.7277872111700499,3.9151132815810277
240.0,37215141.8420326,7808886.878554104,0.7278466369483029,3.949930939098424
241.0,52789323.76356375,10981200.167738859,0.7279077101188258,3.9860180298204475
242.0,74761070.62583287,15419045.921530046,0.7279704158228747,4.02339326616316
243.0,105695058.75403261,21615752.48988211,0.7280347387895256,4.06207591470121
244.0,149152049.67065966,30251393.784592565,0.7281006633332002,4.102085790454096
245.0,210060239.45833376,42260889.829088494,0.728168173351364,4.143443250594583
246.0,295217687.15017617,58925772.49941382,0.7282372523224294,4.1861691875159925
247.0,413968637.8234759,81997350.65895766,0.7283078833038823,4.230285021234526
248.0,579110299.6160312,113861270.15309848,0.7283800489306153,4.275812691057846
249.0,808100979.2708651,157756459.01691326,0.7284537314135208,4.322774646502512
250.0,1124661388.2155106,218065039.41951087,0.7285289125383442,4.371193837398825
251.0,1560884621.247952,300694352.95728076,0.7286055736648186,4.421093703141636
252.0,2159999396.306099,413577839.554686,0.7286836957260941,4.472498161041318
253.0,2979966684.6537676,567328193.8003736,0.7287632592284733,4.525431593720748
254.0,4098123991.5606465,776084745.24939,0.7288442442515148,4.579918835553516
255.0,5617153325.5890045,1058606023.1920099,0.7289266304484239,4.635985158023575
256.0,7672676937.3391285,1439670255.9202945,0.7290103970468693,4.69365625401369
257.0,10442863326.718796,1951860665.3486748,0.7290955228501328,4.752958221007819
258.0,14160477291.886492,2637824055.267109,0.7291819862386661,4.813917543046392
259.0,19127843945.8799,3553113119.7077217,0.7292697651721073,4.876561071562726
260.0,25735303230.475147,4769734840.673936,0.7293588371916767,4.940916004898682
261.0,34483733658.24343,6380552094.170676,0.7294491794230198,5.00700986656255
262.0,46011755050.48576,8504699616.403455,0.7295407685795476,5.074870482134069
263.0,61128294924.80981,11294198722.290148,0.7296335809661751,5.1445259547896125
264.0,80851058272.31667,14941974966.55433,0.7297275924836136,5.21600463947774
265.0,106451429994.04604,19691489223.583813,0.7298227786332162,5.289335115653817
266.0,139506383657.29443,25848207333.85562,0.7299191145221645,5.364546158481278
267.0,181957448781.1441,33793138473.308414,0.7300165748692897,5.441666708600969
268.0,236176776880.62335,43998661917.14567,0.7301151340113994,5.520725840374169
269.0,305039693538.0451,57046849179.70224,0.7302147659102873,5.601752728679558
270.0,392003557542.0227,73650441660.50967,0.730315444159971,5.6847766139802935
271.0,501191039186.2643,94676599011.60062,0.730417141994634,5.769826765894708
272.0,637475083681.1973,121173501583.02156,0.7305198322974696,5.8569324454297
273.0,806565297443.9418,154399736090.05432,0.7306234876094224,5.946122865246794
274.0,1015089685927.361,195856259467.96545,0.7307280801390121,6.037427148631228
275.0,1270669370170.8198,247320826363.5992,0.7308335817724919,6.130874286805423
276.0,1581980367720.1733,310884242788.8298,0.7309399640847792,6.226493094782426
277.0,1958799474743.6194,388987864118.0088,0.7310471983504714,6.324312165397488
278.0,2412023392929.913,484461770969.7158,0.7311552555561767,6.424359822302745
279.0,2953662579759.243,600562237646.1915,0.731264106412517,6.526664070911604
280.0,3596796315822.1284,741007680638.1663,0.7313737213673012,6.63125254829021
281.0,4355486636044.0884,910011596511.9941,0.7314840706192041,6.738152471607778
282.0,5244651291339.701,1112310779530.0735,0.731595124131208,6.847390584729988
283.0,6279879373716.665,1353187648231.7305,0.7317068516456924,6.958993104274819
284.0,7477198835099.009,1638484660419.4343,0.7318192226994001,7.072985663946846
285.0,8852798728030.031,1974608973629.3398,0.7319322066380715,7.189393257049267
286.0,10422683375271.172,2368526294599.4907,0.7320457726337559,7.308240179686798
287.0,12202308160495.303,2827741354632.6074,0.7321598896993491,7.42954997035987
288.0,14206148454352.717,3360265266166.0195,0.7322745267066672,7.553345350773945
289.0,16447253892813.035,3974567073471.992,0.7323896524033409,7.679648164957794
290.0,18936798305828.066,4679509280532.779,0.7325052354290295,7.808479316781119
291.0,21683595458259.43,5484268684683.528,0.7326212443346501,7.939858708268187
292.0,24693658445844.72,6398240029883.539,0.7327376475992493,8.07380517577984
293.0,27969777896524.766,7430925240878.611,0.7328544136481394,8.210336426439241
294.0,31511143594429.37,8591809326519.766,0.7329715108714658,8.349468974432508
295.0,35313024301869.555,9890224573513.523,0.7330889076434929,8.491218077621104
296.0,39366548930233.32,11335203210157.63,0.7332065723389324,8.635597668124122
297.0,43658534799556.61,12935329233591.732,0.7333244733561005,8.782620298227641
298.0,48171512899138.375,14698575835218.924,0.7334425791267026,8.932297058985823
299.0,52883680704507.14,16632157650593.33,0.7335608581474531,9.08463753380383
300.0,57769158405684.086,18742376346868.918,0.7336792789908492,9.239649727357435
301.0,62798309175683.016,21034473719871.71,0.7337978103185575,9.397339994622374
302.0,67938039859921.45,23512500174501.348,0.7339164209095331,9.55771298413108
303.0,73152325757159.61,26179198269564.965,0.7340350796744238,9.720771576556984
