Time,J,A,S,tau
0.0,100.0,100.0,0.6265441712842129,23.255813953488374
1.0,74.92227044743424,175.07946108455508,0.6294892676298552,23.634570787359625
2.0,75.92322165287081,249.6543462642427,0.6324594399518297,24.01699014904141
3.0,101.25319656999751,323.74365624108367,0.6354541056911789,24.40294128335015
4.0,149.29485016957045,397.36812111951093,0.6384728538486252,24.792315505157713
5.0,218.5580444991661,470.54803765421127,0.6415152933660956,25.185004565645784
6.0,307.67210097726695,543.303287659721,0.6445810525706909,25.58090065008956
7.0,415.3785503549379,615.6533556601927,0.6476697786206264,25.979896374687
8.0,540.5242762734418,687.6173460737909,0.6507811369368207,26.381884782146287
9.0,682.0551990424702,759.2139994158658,0.6539148106515199,26.78675933672159
10.0,839.0102302743464,830.4617083617234,0.6570705000246377,27.194413917718983
11.0,1010.5158346077405,901.3785324962837,0.6602479218984338,27.604742813030484
12.0,1195.780700536172,971.982213367681,0.6634468090905826,28.01764071062986
13.0,1394.0910951066437,1042.2901879746473,0.6666669098540582,28.433002690680098
14.0,1604.8061061696676,1112.319603253609,0.6699079872294578,28.85072421466474
15.0,1827.3537805747524,1182.0873279263876,0.6731698185118417,29.270701116654248
16.0,2061.227220580008,1251.609965282176,0.6764521946412967,29.692829592021532
17.0,2305.980954306746,1320.903865461493,0.6797549195742129,30.11700618533498
18.0,2561.227582024461,1389.9851373648917,0.6830778096467979,30.5431277774793
19.0,2826.6350177109507,1458.8696589807516,0.6864206930105793,30.97109157397118
20.0,3101.9241682896504,1527.573086082703,0.6897834090783251,31.400795094048586
21.0,3386.8660022466997,1596.110863880556,0.6931658077582957,31.8321361540769
22.0,3681.2767875013615,1664.498247486909,0.6965677483255738,32.2650128383148
23.0,3985.0235257044365,1732.750282231553,0.6999891003240626,32.69932352624145
24.0,4298.0112601117935,1800.8818513804356,0.7034297404720655,33.1349668172542
25.0,4620.194078752684,1868.9076443025529,0.7068895549198572,33.57184158131576
26.0,4951.552588645672,1936.8422289480168,0.7103684339666715,34.00984683915919
27.0,5292.13752578117,2004.6999131551474,0.7138662796143562,34.44888195576207
28.0,5642.010478241722,2072.4949649445657,0.7173829956426643,34.888846348380326
29.0,6001.273949939089,2140.2414764589575,0.7209184903446858,35.32963962689476
30.0,6370.083596646511,2207.953361054374,0.7244726787594469,35.77116161153364
31.0,6748.610057174328,2275.644469300098,0.7280454769608126,36.21331218123535
32.0,7137.082700354303,2343.328454235432,0.7316368052310284,36.65599139820451
33.0,7535.750491211895,2411.0189094454377,0.7352465851744071,37.099099377598854
34.0,7944.906373441452,2478.729278906625,0.7388747389011884,37.54253633209607
35.0,8364.87680666181,2546.472914773481,0.7425211893047265,37.98620253267119
36.0,8796.026322550599,2614.263051830615,0.7461858577814898,38.42999829203803
37.0,9238.755895110817,2682.112833862299,0.7498686647345467,38.87382394955742
38.0,9693.503414688617,2750.0352999174293,0.7535695272393403,39.31757984699169
39.0,10160.748246599285,2818.043398016793,0.7572883591795526,39.761166313756355
40.0,10641.00296296119,2886.149989114554,0.7610250698776424,40.20448365061696
41.0,11165.09816280228,2921.714895999634,0.7627451964532216,40.432575829240974
42.0,11699.453466625237,2951.8915175674215,0.763271808679577,40.53236629280025
43.0,12226.184798191523,2997.879198813694,0.7637668067758772,40.626497304675596
44.0,12750.005184298663,3059.064191718115,0.7642298782939031,40.71484866877128
45.0,13275.530499274459,3134.869535212774,0.7646607030744098,40.7973015349817
46.0,13807.305652278388,3224.7542045926,0.7650589533738298,40.873738593441004
47.0,14349.829860669495,3328.2124328097134,0.765424293992784,40.944044283432454
48.0,14907.5814124237,3444.772938114318,0.7657563824636714,41.008105002465285
49.0,15485.042000014608,3573.9983460458348,0.7660548692668184,41.06580933577011
50.0,16086.720644768844,3715.484633320335,0.7663193980591,41.117048288421486
51.0,16717.17750461437,3868.860650385796,0.7665496059387223,41.161715528199636
52.0,17381.047684513123,4033.787717458641,0.7667451237402015,41.19970763742595
53.0,18083.065105150803,4209.959247141896,0.7669055763827556,41.230924370417156
54.0,18828.087074783503,4397.100645522545,0.7670305831615828,41.25526893233227
55.0,19621.1186911821,4594.968975693871,0.767119758201075,41.272648244359765
56.0,20467.33838425556,4803.352934260443,0.7671727108592559,41.282973233858876
57.0,21372.124004395017,5022.072839836036,0.7671890461822827,41.286159124306074
58.0,22341.07989047254,5250.980715417213,0.7671683653942695,41.28212573240149
59.0,23380.0650399191,5489.960462084774,0.7671102664213075,41.27079777042586
60.0,24495.222553313703,5738.928127837358,0.7670143444499701,41.25210515291504
61.0,25693.01053334848,5997.832275893177,0.7668801925204872,41.22598330660613
62.0,26980.234627194313,6266.654457000234,0.76670740215467,41.1923734824935
63.0,28364.082411441774,6545.409790970659,0.7664955640185502,41.151223068716
64.0,29852.15983125863,6834.147662725599,0.7662442686195727,41.10248590287941
65.0,31452.529917449345,7132.952539705849,0.7659531070380483,41.04612258230176
66.0,33173.754025414535,7441.94491342368,0.7656216716924303,40.98210077055601
67.0,35024.93584151773,7761.2823838557415,0.765249557137832,40.91039549857494
68.0,37015.76845972513,8091.160867774351,0.7648363608970413,40.830989458480545
69.0,39156.58478940518,8431.815971795551,0.7643816843231297,40.74387328820473
70.0,41458.41163269258,8783.524528930586,0.763885133492583,40.649045844883894
71.0,43933.02780077422,9146.606277359302,0.7633463201277044,40.54651446493675
72.0,46593.02659524793,9521.425741883124,0.762764862546868,40.4362952086772
73.0,49451.88310826334,9908.394279994634,0.7621403866410181,40.31841308727209
74.0,52524.02673927784,10307.972342593592,0.7614725268746275,40.192902269830995
75.0,55824.91943828789,10720.671927716621,0.7607609273091522,40.0598062684132
76.0,59371.140163719254,11147.059262594315,0.7600052426468324,39.91917809875758
77.0,63180.476131715564,11587.75770709887,0.7592051392925226,39.771080414586116
78.0,67272.0214436221,12043.45090564953,0.758360296431057,39.615585613402985
79.0,71666.28376424249,12514.88618567605,0.7574704071175442,39.45277591185785
80.0,76385.9839025351,13002.153257273025,0.7565351793037987,39.2827433839005
81.0,81460.20493976484,13498.722400100924,0.7555543372016388,39.105589978925195
82.0,86909.4115325839,14006.169908676402,0.7545276221086539,38.92142750864928
83.0,92753.7400574604,14529.700780216846,0.7534547935837672,38.73037753680772
84.0,99017.36798336223,15074.583624805719,0.7523356306335065,38.532571317765914
85.0,105728.8897351114,15646.189045560392,0.7511699327794611,38.32814964513899
86.0,112921.75085473077,16250.026715541288,0.7499575211526274,38.117262672348765
87.0,120634.74088047708,16891.78401914262,0.7486982395748053,37.90006969368547
88.0,128912.55098215365,17577.366551606374,0.7473919556234777,37.67673888597093
89.0,137806.40317751476,18312.940750309535,0.746038561676593,37.447447011252294
90.0,147374.75871959658,19104.978932290625,0.7446379759336781,37.21237908129571
91.0,157684.11512286623,19960.307132661776,0.743190143413106,36.97172798593699
92.0,168809.87749638894,20886.1559845872,0.7416950368608538,36.72569407892981
93.0,180837.41410579087,21890.214648192417,0.740152657828639,36.474484749102245
94.0,193863.1244246729,22980.68969002747,0.7385630374253666,36.218313935511816
95.0,207995.6997728503,24166.367158109104,0.7369262372061838,35.9574016258108
96.0,223357.5146174348,25456.6798076276,0.7352423499791483,35.691973326969176
97.0,240086.17653090775,26861.779618650267,0.7335115005653392,35.42225951244402
98.0,258336.25108203242,28392.61617589697,0.7317338465096779,35.148495048986206
99.0,278281.18949723255,30061.021507693393,0.7299095787492894,34.870918607493365
100.0,300115.473056287,31879.80319689509,0.7280389222371815,34.589772059699705
101.0,324056.9766181525,33862.84519102004,0.7261221364895154,34.30529986151781
102.0,350349.5425587272,36025.21407850441,0.724159516008692,34.01774843024455
103.0,379265.94422247936,38383.27791492521,0.7221513907652559,33.72736552737984
104.0,411111.053195621,40954.83371277772,0.7200981265153557,33.43439963790881
105.0,446225.53762419947,43759.25661937022,0.7180001252672524,33.139099352460114
106.0,484989.59993463807,46817.64623899974,0.7158578253406379,32.84171275949327
107.0,527827.3221797674,50152.99134506491,0.7136717015315481,32.542486857992245
108.0,575211.712524379,53790.36406140696,0.7114422654083172,32.24166697033291
109.0,627669.7513238511,57757.11818304083,0.7091700652480972,31.93949618199966
110.0,685788.0891865187,62083.09992837166,0.7068556859182382,31.636214815066378
111.0,750219.7577448221,66800.92363893369,0.704499748925812,31.33205990476677
112.0,821692.1519964357,71944.7147846918,0.7021029123092253,31.02726470202941
113.0,901012.7284139083,77547.36896264115,0.6996658702516592,30.722058234760812
114.0,989068.7903708621,83646.95950345446,0.6971893528456611,30.416664875829234
115.0,1086838.3114091682,90289.58559073432,0.6946741259164435,30.11130392100982
116.0,1195404.8843113987,97530.34558936166,0.6921209904439692,29.806189249657233
117.0,1315975.8312163528,105434.47842896731,0.6895307820580332,29.50152900074238
118.0,1449904.1507482906,114078.75408435395,0.6869043706801058,29.19752524498218
119.0,1598712.4486405593,123552.99225657276,0.6842426598855346,28.894373736474094
120.0,1764121.2775604122,133961.74909968607,0.6815465861405207,28.592263705076146
121.0,1948083.743711013,145426.35374484834,0.6788171182141873,28.2913776342691
122.0,2152823.3825851805,158087.20066440586,0.6760552565040246,27.991891098769525
123.0,2380878.6626371583,172106.1557941704,0.6732620319800138,27.693972671154384
124.0,2635156.2742376626,187669.6477193244,0.6704385056395232,27.39778377011168
125.0,2918987.483741829,204991.69754909838,0.667585767353154,27.10347865239509
126.0,3236200.377158836,224317.81964358615,0.6647049351403517,26.811204315611846
127.0,3591193.161306009,245928.87009669413,0.6617971539885943,26.521100546202465
128.0,3989028.981613486,270145.94643928885,0.658863595003356,26.233299876980283
129.0,4435530.776272101,297335.22925697896,0.6559054541941355,25.947927683556607
130.0,4937404.383590097,327914.0849756099,0.6529239515030214,25.665102191306886
131.0,5502359.9235452125,362357.1189233189,0.6499203295711687,25.384934612443104
132.0,6139269.8984932825,401203.71846042457,0.6468958526521087,25.10752919647738
133.0,6858322.767432077,445065.5699712855,0.6438518053709318,24.83298340014206
134.0,7671222.312600859,494635.957246015,0.6407894915627823,24.561387974747575
135.0,8591384.795077518,550698.9290093852,0.637710232934613,24.292827161491722
136.0,9634181.049881367,614140.3801520361,0.6346153679035246,24.02737881690012
137.0,10817193.267331438,685954.0637161564,0.6315062502568215,23.76511460287329
138.0,12160483.971336335,767248.9162350907,0.6283842478676712,23.506100170059955
139.0,13686885.147856036,859271.0197669702,0.6252507414311632,23.250395341572972
140.0,15422347.431515614,963432.3936107047,0.6221071230889496,22.998054306465093
141.0,17396347.240600836,1081345.0209520648,0.6189547950992812,22.749125828232327
142.0,19642377.50596769,1214861.4937084378,0.6157951685359263,22.503653448337342
143.0,22198548.453587484,1366123.5469074212,0.6126296619570669,22.26167568640064
144.0,25108307.874606844,1537618.3045292662,0.6094597000098966,22.02322625386909
145.0,28421290.92824127,1732244.2604141312,0.6062867121256779,21.78833426629982
146.0,32194341.336521987,1953389.1818256034,0.6031121312254244,21.55702444826719
147.0,36492753.41088167,2205020.228539491,0.5999373923303328,21.32931733831293
148.0,41391710.797000065,2491787.0469420785,0.596763931254195,21.105229500642476
149.0,46977983.24776531,2819141.3123888755,0.5935931833297416,20.88477372779441
150.0,53351947.71624018,3193475.327509798,0.5904265821121985,20.667959235630782
151.0,60629953.52344695,3622277.3098558206,0.5872655580490027,20.454791862451145
152.0,68947023.49073419,4114308.0592539753,0.5841115372600684,20.245274263720255
153.0,78459988.20273907,4679803.289301316,0.5809659403286058,20.039406097317514
154.0,89351157.47212401,5330701.260370201,0.5778301810361756,19.83718420391514
155.0,101832470.7361785,6080891.508760892,0.5747056651459342,19.638602789186887
156.0,116150197.36937216,6946501.120372041,0.5715937892825088,19.443653592945868
157.0,132590275.55079255,7946193.546960748,0.568495939782271,19.252326057286453
158.0,151484279.27658275,9101485.378210418,0.5654134915770354,19.064607487367013
159.0,173216012.88071606,10437123.860243727,0.5623478071142114,18.880483206789457
160.0,198228884.41314968,11981555.435268067,0.5593002353096395,18.699936707183493
161.0,227034273.97849697,13767506.384330353,0.5562721105345533,18.52294979197339
162.0,260221166.91783443,15832699.103294829,0.5532647516380086,18.3495027143338
163.0,298467380.01178783,18220730.428138666,0.5502794610060043,18.179574309366853
164.0,342552771.45364887,20982141.202926733,0.5473175236584101,18.013142120555464
165.0,393374891.0480796,24175709.11326864,0.5443802063846972,17.850182520567618
166.0,451967595.1035163,27869999.303573456,0.5414687569193506,17.690670826503673
167.0,519523218.8691546,32145209.56507202,0.5385844031577176,17.53458140969367
168.0,597418966.735285,37095348.77863542,0.535728352412927,17.38188780016412
169.0,687248244.934141,42830788.72163818,0.5329017907143854,17.232562785904495
170.0,790857721.2905546,49481230.22723435,0.530105882148237,17.086578507072215
171.0,910390949.8579426,57199125.409000345,0.5273417682400421,16.94390654528205
172.0,1048339445.4058207,66163596.18166045,0.5246105673798096,16.804518008131275
173.0,1207602122.5345142,76584887.54588321,0.5219133742893921,16.668383609115914
174.0,1391554042.1567233,88709371.22075166,0.5192512595321309,16.535473743096375
175.0,1604125301.434639,102825078.58531755,0.5166252690645851,16.405758557474055
176.0,1849890789.95343,119267853.86686045,0.514036423829736,16.279208019233895
177.0,2134171778.5824127,138428334.61361465,0.5114857193914749,16.15579197801853
178.0,2463150851.0657783,160760027.9223003,0.5089741256098207,16.035480225394885
179.0,2844002406.63167,186788808.6303953,0.5065025863559843,15.918242550466605
180.0,3285041769.874495,217124221.24983123,0.50407201926657,15.804048791989814
181.0,3795896878.867076,252473015.62963516,0.5016833155360197,15.69286888714503
182.0,4387707518.901564,293655398.5832086,0.49933733974631833,15.584672917115078
183.0,5073358143.667668,341624533.577414,0.4970349297328795,15.479431149615278
184.0,5867751454.017603,397489867.20920914,0.49477689648545775,15.377114078518357
185.0,6788131070.101034,462544883.9420017,0.492564024082849,15.277692460712606
186.0,7854462762.442927,538299917.9940479,0.4903970696600713,15.181137350327484
187.0,9089884801.34446,626520664.6873202,0.48827676340665377,15.087420130456543
188.0,10521239037.65897,729273041.4267356,0.4862038085946029,14.996512542503103
189.0,12179695305.651773,848975029.2052144,0.4841788816345621,14.908386713269492
190.0,14101482563.620878,988455987.8210318,0.48220263215863746,14.823015179906186
191.0,16328740512.909794,1151023900.369104,0.4802756831283234,14.740370912832503
192.0,18910505810.25001,1340541319.5523407,0.4783986309659304,14.660427336735987
193.0,21903848474.09492,1561511317.4245677,0.47657204570789347,14.583158349753036
194.0,25375177113.347958,1819175368.1560726,0.4747964711783227,14.508538340928878
195.0,29401736320.165787,2119625763.2789505,0.4730724251811459,14.436542206050515
196.0,34073325983.412014,2469935863.518688,0.47140039970919,14.367145361941983
197.0,39494280346.08805,2878312212.096053,0.4697808611685505,14.300323759306938
198.0,45785754274.73864,3354273268.360316,0.46821425061660843,14.236053894199472
199.0,53088375347.70024,3908860214.1373467,0.46670098401206883,14.17431281820001
200.0,61565332845.61588,4554885945.202346,0.46524145247541715,14.115078147369179
201.0,71405988322.10802,5307228953.436703,0.4638360225582184,14.05832807004871
202.0,82830106963.46094,6183179308.785146,0.4624850365197155,14.004041353574753
203.0,96092824154.9716,7202844392.849115,0.46118881260922523,13.952197349965381
204.0,111490477498.0144,8389622271.158462,0.459947645352871,13.902776000640635
205.0,129367450242.4625,9770750534.238934,0.45876180584324416,13.855757840230016
206.0,150124187278.83096,11377938734.370464,0.4576315420306357,13.81112399951927
207.0,174226560926.4798,13248093650.678823,0.4565570790145431,13.768856207585111
208.0,202216783397.93518,15424148834.24584,0.4555386193342139,13.728936793163543
209.0,234726089025.37164,17956013121.030148,0.45457634325705726,13.691348685294672
210.0,272489444637.62827,20901656959.953785,0.45367040906382416,13.656075413284087
211.0,316362592039.53094,24328360405.33135,0.45282095332948036,13.623101106018172
212.0,367341788849.7456,28314152308.89093,0.45202809119890475,13.592410490669003
213.0,426586688160.6058,32949476472.318623,0.45129191665661883,13.563988890820601
214.0,495446879087.2197,38339127396.09144,0.4506125027894635,13.53782222404637
215.0,575492726851.3821,44604505079.37566,0.44998990204173167,13.513896998966976
216.0,668551267420.9492,51886245539.410645,0.44942414646207324,13.492200311814196
217.0,776748051864.3647,60347290800.824425,0.44891524794162235,13.47271984252473
218.0,902555991065.266,70176469052.88864,0.448463198442886,13.455443850386082
219.0,1048852422881.1326,81592662051.42027,0.44806797021901595,13.440361169254835
220.0,1218985809991.2874,94849643326.56345,0.44772951602317185,13.4274612023659
221.0,1416853678808.6792,110241678619.924,0.4474477693077696,13.416733916749708
222.0,1646993632967.4685,128109990708.70946,0.44722264441349213,13.408169837272782
223.0,1914689527924.8992,148850205487.7446,0.4470540367480245,13.401760040315619
224.0,2226095187634.4116,172920915766.1633,0.446941822954558,13.397496147100508
225.0,2588378393461.3315,200853524261.478,0.44688586107018824,13.395370316680504
226.0,3009888293963.4116,233263558118.93,0.44688599067441404,13.395375238599621
227.0,3500349886829.5273,270863684065.5868,0.4469420330280183,13.397504125233128
228.0,4071089826087.8433,314478696040.4411,0.4470537912026912,13.401750703815697
229.0,4735298523300.625,365062795647.98486,0.4472210502018256,13.408109208164186
230.0,5508334354806.043,423719539758.49677,0.44744357707298726,13.416574370100813
231.0,6408076771050.151,491724888640.9608,0.4477211210126278,13.427141410581678
232.0,7455336240511.119,570553851624.5172,0.44805341346367283,13.439806030534626
233.0,8674330259607.07,661911294703.2927,0.44844016820667926,13.454564401409765
234.0,10093236129223.957,767767545836.6765,0.4488810814453093,13.471413155445195
235.0,11744832846507.832,890399510471.937,0.4493758318869252,13.49034937564986
236.0,13667246300885.66,1032438095160.7125,0.4499240808191545,13.511370585504821
237.0,15904814017109.477,1196922834485.8513,0.45052547218332145,13.534474738383665
238.0,18509087985880.35,1387364730185.9985,0.4511796326456787,13.559660206692342
239.0,21539996704851.234,1607818445695.1396,0.4518861716674102,13.586925770728193
240.0,25067190470312.254,1862965158625.3027,0.4526446815744051,13.616270607257587
241.0,29171597272043.09,2158207559765.8118,0.4534547376278287,13.647694277811238
242.0,33947220410275.95,2499778707433.4385,0.45431589809653605,13.681196716695958
243.0,39503213254192.29,2894866699921.8984,0.4552277043323909,13.716778218721322
244.0,45966271464602.44,3351757420303.1035,0.4561896808495592,13.75443942663961
245.0,53483388586498.26,3879997936139.0527,0.45720133540885555,13.794181318297177
246.0,62225027242647.22,4490583506096.807,0.4582621591082159,13.836005193495224
247.0,72388765184048.52,5196171557141.274,0.45937162648034513,13.879912660557846
248.0,84203483635043.55,6011326442683.1875,0.4605291955986155,13.92590562260564
249.0,97934175051258.97,6952799264358.597,0.4617343081923902,13.97398626353371
