Time,J,A,S,tau
0.0,100.0,100.0,0.9685055773488649,8.547008547008547
1.0,135.70603522948988,151.91603365630579,0.9686636353654747,8.472286274698012
2.0,214.64446436625127,203.2920957769235,0.9688497362330281,8.384163567452312
3.0,340.47971936764725,254.1125366830533,0.969063742189289,8.282670569607511
4.0,516.9461545535879,304.3656472962724,0.9693055354528292,8.167831533619738
5.0,747.829333361756,354.04017043091216,0.9695750040804374,8.039671510108247
6.0,1036.9476361909246,403.1253185264068,0.9698720418172937,7.898216408126073
7.0,1388.1327250296927,451.6107911947107,0.9701965478999776,7.743493068749593
8.0,1798.1783127180888,507.86720187982456,0.9704890019067505,7.603550455135743
9.0,2262.927515574523,610.7201767869495,0.9706813724032971,7.510542195624393
10.0,2839.680472473093,763.1294840271644,0.9708679261555343,7.42007911302109
11.0,3594.6736654938964,968.2714109062462,0.9710489314590964,7.332062037764083
12.0,4605.009673128535,1229.2600398891434,0.9712246404158942,7.2463978058556995
13.0,5959.2171557366955,1549.1206979501608,0.971395289800369,7.162998886863528
14.0,7757.716582609388,1930.7629754705936,0.9715611018896375,7.081783032303476
15.0,10112.041738154328,2378.2616849058413,0.971722285260052,7.002672942963862
16.0,13131.56267636064,2929.8323174290213,0.9718790355502733,6.9255959545077665
17.0,16987.056083829953,3655.9766827316976,0.972031536191244,6.8504837407982455
18.0,21968.499307459213,4637.048541802603,0.9721799591013787,6.7772720350074085
19.0,28513.3872058055,5964.591217857137,0.9723244653518041,6.705900366326809
20.0,37239.242534946054,7741.5223991358835,0.9724652057984864,6.636311812961139
21.0,48978.395811782146,10082.149854630088,0.9726023216843986,6.568452769884711
22.0,64811.869947118445,13115.778559355293,0.9727359452117855,6.502272730948304
23.0,86095.43878122134,17040.012329918987,0.9728662000853854,6.4377240846630475
24.0,114601.36573346567,22188.06015387239,0.9729932020276533,6.3747619229513965
25.0,152798.63073063333,29061.92161612689,0.973117059266858,6.313343862236788
26.0,204221.89211488186,38366.92770780031,0.9732378729993246,6.253429876131128
27.0,273938.53587552195,51047.668848314286,0.9733557378266565,6.1949821391439555
28.0,369120.9998972816,68324.90026717934,0.9734707421688249,6.1379648808468295
29.0,499715.63531045854,91766.62884881458,0.9735829686541969,6.082344249877335
30.0,679281.33050009,123510.41913626417,0.9736924944874327,6.028088187238466
31.0,926357.8226141208,166624.66745749477,0.9737993917964808,5.975166308264115
32.0,1266690.0996518873,225572.48914734324,0.9739037279593853,5.923549792810598
33.0,1736592.4292828888,306784.2791591026,0.9740055659118748,5.873211283166559
34.0,2387760.6799085466,419342.2333202696,0.9741049644366649,5.824124789201176
35.0,3293838.075800075,575815.9866842306,0.9742019784353841,5.776265600292883
36.0,4559117.397115323,793530.2873722002,0.9742966591841234,5.72961020356193
37.0,6330511.316348618,1096697.3274659468,0.9743890545732701,5.6841362080589475
38.0,8814978.833414031,1519748.9096620537,0.9744792093324994,5.639822274500383
39.0,12305482.524206992,2112195.4614920854,0.9745671652416964,5.596648050190233
40.0,17219446.427707616,2945344.8209880027,0.9746529613286293,5.554594108757174
41.0,24154562.11917323,4121308.4916992974,0.9747366340540764,5.513641894388462
42.0,33967924.22641256,5785418.739830125,0.9748182174852444,5.473773670200876
43.0,47887445.42271674,8144432.153624351,0.9748977434576913,5.434972470619605
44.0,67670811.73160252,11493933.381302465,0.9749752417269529,5.397222057294093
45.0,95836120.77703422,16259336.136680825,0.9750507401101772,5.360506878401301
46.0,135999840.50646555,23055809.9460388,0.9751242646184377,5.324812031064745
47.0,193371558.6165675,32773815.861872744,0.975195839580252,5.290123226672395
48.0,275472274.1348301,46700591.22261098,0.9752654877568496,5.256426758877446
49.0,393170279.3006027,66695248.275712535,0.9753332304496876,5.223709474083685
50.0,562175360.8500577,95445550.98967545,0.9753990876006885,5.191958744231711
51.0,805205949.2581432,136847477.67441356,0.9754630778856614,5.16116244171095
52.0,1155151180.903416,196564169.87221295,0.9755252188013328,5.1313089162340475
53.0,1659696698.8700197,282841368.00780684,0.9755855267463808,5.1023869735294936
54.0,2388082255.6629076,407690483.9550708,0.9756440170968588,5.074385855710285
55.0,3440947861.7314177,588608606.0617254,0.9757007042763708,5.047295223188833
56.0,4964666616.2931385,851094922.0173167,0.9757556018213327,5.021105138018568
57.0,7172239574.541262,1232351059.5159361,0.9758087224416448,4.99580604854897
58.0,10373832737.473635,1786725609.5785472,0.9758600780770788,4.971388775288165
59.0,15021484630.546885,2593703456.5977,0.9759096799496514,4.947844497881307
60.0,21774574553.375,3769599993.9672527,0.9759575386122575,4.92516474311404
61.0,31595629687.36256,5484677299.857997,0.9760036639938074,4.903341373858594
62.0,45890478256.588295,7988247298.738597,0.9760480654411033,4.882366578887066
63.0,66713380521.05308,11645567688.229044,0.976090751757675,4.862232863480813
64.0,97067553393.91032,16992106076.46964,0.9761317312397813,4.842933040768898
65.0,141345836973.86905,24813293368.56499,0.9761710117097641,4.8244602237392336
66.0,205977070929.69983,36261630455.31725,0.9762086005469348,4.8068078178660985
67.0,300374153363.6803,53028612901.82891,0.9762445047161606,4.789969514303015
68.0,438324532173.7368,77597295462.89311,0.976278730794306,4.773939283594779
69.0,640030161218.4513,113613589382.25508,0.9763112849946747,4.758711369865263
70.0,935101406579.0817,166432232594.34308,0.9763421731895882,4.744280285439309
71.0,1366952755575.7327,243919413012.45953,0.976371400931225,4.730640805865522
72.0,1999257974723.1543,357632232099.3251,0.9763989734708352,4.717787965305909
73.0,2925429993953.4507,524551668846.84735,0.9764248957764401,4.705717052261717
74.0,4282543251488.3594,769629113633.8245,0.9764491725491156,4.69442360560807
75.0,6271783379378.113,1129528871136.3193,0.9764718082379507,4.683903410911916
76.0,9188487725806.207,1658127944448.6382,0.9764928070537698,4.674152497007743
77.0,13466281064347.201,2434596549291.1807,0.9765121729816926,4.665167132812874
78.0,19741923520009.344,3575266961669.559,0.9765299097926046,4.656943824362466
79.0,28950588935241.297,5251062999197.827,0.9765460210536031,4.6494793120466
80.0,42465848459944.984,7713092191766.61,0.9765605101374796,4.642770568034165
81.0,62305338350346.375,11330217060213.906,0.9765733802312886,4.636814793869471
82.0,91432907665529.27,16644198504406.807,0.9765846343440581,4.631609418226498
83.0,134202483456309.61,24450606553126.56,0.9765942753136803,4.627152094812271
84.0,197010053600132.84,35917498429764.63,0.9766023058130229,4.623440700408708
85.0,289251199011053.5,52759435030189.6,0.9766087283552953,4.620473333043901
86.0,424727113035761.3,77492562004806.69,0.976613545298699,4.618248310285511
87.0,623708832018242.6,113808380560439.83,0.9766167588503866,4.616764167649839
88.0,915966940284167.4,167121203455712.97,0.9766183710697528,4.616019657118603
89.0,1345217167106448.2,245369663498181.22,0.9766183838710762,4.6160137457615935
90.0,1975641498711305.2,360189605229081.75,0.9766167990255209,4.616745614460996
91.0,2901450269210795.0,528629586607071.4,0.9766136181625087,4.618214656734494
92.0,4260897595094066.5,775658769938161.1,0.9766088427704717,4.62042047765574
93.0,6256815754682953.0,1137831093543557.2,0.9766024741969815,4.623362892871417
94.0,9186683988926562.0,1668635508818374.8,0.9765945136482576,4.627041927712541
95.0,1.3486635073763946e+16,2446303217902478.5,0.9765849621880509,4.6314578164035005
96.0,1.9795820983367816e+16,3585192342857569.0,0.9765738207358912,4.636611001370024
97.0,2.9050493114439516e+16,5252377176270691.0,0.9765610900646868,4.642502132648405
98.0,4.262141454870217e+16,7691803328022317.0,0.9765467707976626,4.649132067399927
99.0,6.251441122726905e+16,1.1259429841464104e+16,0.9765308634046138,4.6565018695349005
100.0,9.166280567559222e+16,1.6474310167674976e+16,0.9765133681974568,4.664612809449373
101.0,1.3435343974673914e+17,2.409277349050839e+16,0.9764942853250502,4.673466363883497
102.0,1.968466878028642e+17,3.5216046297096356e+16,0.9764736147672535,4.6830642159081615
103.0,2.882778119914226e+17,5.1446225802780424e+16,0.9764513563281907,4.693408255048029
104.0,4.2196579825943155e+17,7.51120854343865e+16,0.9764275096286813,4.704500577550806
105.0,6.17311583190819e+17,1.0959558839050157e+17,0.9764020740977966,4.716343486813074
106.0,9.025472477390943e+17,1.5980343326852064e+17,0.9763750489634975,4.728939493972311
107.0,1.3187120451778243e+18,2.3284717302301037e+17,0.9763464332423035,4.742291318680615
108.0,1.925393960005949e+18,3.390228008497325e+17,0.9763162257279387,4.756401890073623
109.0,2.809007249466885e+18,4.93219604357887e+17,0.9762844249788947,4.771274347950029
110.0,4.094705462520914e+18,7.169433423673254e+17,0.9762510293048523,4.7869120441792585
111.0,5.963495780682218e+18,1.0412168297379537e+18,0.9762160367518882,4.803318544355296
112.0,8.67677630187209e+18,1.5107312906457723e+18,0.9761794450864044,4.820497629715021
113.0,1.261144392020088e+19,2.1897772422742994e+18,0.9761412517776963,4.83845329934536
114.0,1.8310016834592772e+19,3.1707016495854607e+18,0.9761014539790792,4.857189772702029
115.0,2.655202756795803e+19,4.5859434588897935e+18,0.9760600485074892,4.876711492465121
116.0,3.8455465743482e+19,6.625126381641938e+18,0.9760170318214622,4.897023127759637
117.0,5.5620554095484944e+19,9.559280188209107e+18,0.9759723999973966,4.918129577769329
118.0,8.033296099220788e+19,1.3775084318423443e+19,0.9759261487040011,4.940035975774151
119.0,1.1585021044158666e+20,1.982316534075637e+19,0.9758782731748118,4.962747693647575
120.0,1.6680414488660407e+20,2.8486044217733284e+19,0.9758287681786704,4.986270346849081
121.0,2.3976468830223254e+20,4.087347657906658e+19,0.9757776279880405,5.010609799950428
122.0,3.44026960633653e+20,5.855586569572303e+19,0.9757248463450348,5.035772172737848
123.0,4.927064819637386e+20,8.375040975072843e+19,0.9756704164250282,5.061763846932405
124.0,7.042574587649403e+20,1.1958004771061437e+20,0.9756143307977183,5.088591473574415
125.0,1.0045696931187825e+21,1.704325539540895e+20,0.9755565813854864,5.116261981123917
126.0,1.4298531822131132e+21,2.424568887818882e+20,0.9754971594189119,5.144782584328703
127.0,2.0305898959947736e+21,3.4424694179610526e+20,0.9754360553892875,5.174160793915448
128.0,2.8769242262948455e+21,4.877801206830289e+20,0.9753732589979681,5.204404427163922
129.0,4.065983060053928e+21,6.897009895893593e+20,0.975308759102397,5.235521619423452
130.0,5.73176888388937e+21,9.730700942232295e+20,0.9752425436586396,5.267520836636653
131.0,8.058465302070519e+21,1.3697371387031834e+21,0.9751745996602426,5.300410888941247
132.0,1.1298240640089846e+22,1.923548124936352e+21,0.9751049130732411,5.334200945420353
133.0,1.5794943478803722e+22,2.694660989780621e+21,0.9750334687671317,5.368900550076125
134.0,2.2015465400191917e+22,3.765327315041889e+21,0.9749602504416194,5.404519639106663
135.0,3.059101401094492e+22,5.247602148830598e+21,0.97488524054896,5.441068559563119
136.0,4.237109701054966e+22,7.293575870898711e+21,0.9748084202117087,5.47855808947216
137.0,5.849369218274754e+22,1.0108886173102794e+22,0.974729769135673,5.5169994595133405
138.0,8.047586037157292e+22,1.39704701844112e+22,0.9746492655178878,5.556404376339542
139.0,1.1032996001359979e+23,1.9249763670674658e+22,0.9745668859494211,5.596785047632646
140.0,1.5071163875853758e+23,2.6442853185341335e+22,0.9744826053128197,5.638154208991125
141.0,2.0510690701271363e+23,3.620943855360864e+22,0.9743963966740461,5.68052515273622
142.0,2.7806677012078108e+23,4.942289025512145e+22,0.9743082311686785,5.72391175875004
143.0,3.7549898824613104e+23,6.72341472082787e+22,0.9742180778823446,5.768328527405145
144.0,5.050282521539509e+23,9.115282437780307e+22,0.9741259037249284,5.81379061477457
145.0,6.764360819722147e+23,1.2314936708731451e+23,0.9740316732989923,5.860313870046847
146.0,9.02193928966758e+23,1.6578303978345146e+23,0.9739353487614786,5.907914875488287
147.0,1.1981019925467562e+24,2.2236086392178825e+23,0.9738368896795925,5.95661098874276
148.0,1.584047100632491e+24,2.971339234835384e+23,0.9737362528796686,6.006420387902246
149.0,2.0848919156191033e+24,3.955375727473413e+23,0.9736333922900768,6.05736211909518
150.0,2.731505186942318e+24,5.24483296949002e+23,0.9735282587774517,6.109456146888717
151.0,3.5619406851810306e+24,6.927102784430973e+23,0.9734207999765645,6.162723407484705
152.0,4.622765762659091e+24,9.112054434442023e+23,0.9733109601136372,6.2171858648581235
153.0,5.97053751521699e+24,1.1937003729422301e+24,0.9731986798237112,6.272866569730214
154.0,7.673412905604417e+24,1.5572538813174273e+24,0.9730838959618767,6.329789721528931
155.0,9.812871438525095e+24,2.022928026713929e+24,0.9729665414087761,6.3879807333012435
156.0,1.2485513767743964e+25,2.6165647006601857e+24,0.9728465448703095,6.447466299701911
157.0,1.5804891859903354e+25,3.369666077317934e+24,0.9727238306730704,6.5082744676684525
158.0,1.9903307466953354e+25,4.320383437353838e+24,0.9725983185541014,6.570434710334132
159.0,2.493349747441572e+25,5.514609951675888e+24,0.9724699234477112,6.633978003417674
160.0,3.107010946531319e+25,7.007174321485223e+24,0.9723385552679715,6.69893690463995
161.0,3.851087880932864e+25,8.863119094268513e+24,0.9722041186901583,6.765345635198343
162.0,4.747735071411834e+25,1.115905348454994e+25,0.9720665129282153,6.833240164401434
163.0,5.821505168998544e+25,1.3984545554172783e+25,0.9719256315140036,6.902658295660085
164.0,7.099297190796762e+25,1.7443526779991294e+25,0.9717813620763052,6.973639754604138
165.0,8.610219398304457e+25,2.1655669864350837e+25,0.9716335861204869,7.046226279181855
166.0,1.0385361913350603e+26,2.6757679393980135e+25,0.9714821788137747,7.120461710133253
167.0,1.2457460665750171e+26,3.290445243444298e+25,0.971327008773201,7.196392082994406
168.0,1.4860452860097734e+26,4.027002995391079e+25,0.9711679378623039,7.274065719626903
169.0,1.7628918954238654e+26,4.904827518145e+25,0.9710048209964391,7.353533319406159
170.0,2.079739958622981e+26,5.945321956492019e+25,0.970837505955621,7.434848050661235
171.0,2.439962880942411e+26,7.171896613952783e+25,0.9706658332163325,7.518065638201836
172.0,2.8467638963902446e+26,8.609912556386656e+25,0.9704896357931422,7.603244450636521
173.0,3.303083056992785e+26,1.0286566944695603e+26,0.970308739105926,7.6904455813858315
174.0,3.811494437694728e+26,1.2230720674465665e+26,0.9701229608574786,7.779732929566883
175.0,4.374104706870806e+26,1.4472657439460845e+26,0.9699321109464754,7.871173271189685
176.0,4.992451008985652e+26,1.704377735561052e+26,0.9697359914029288,7.9648363256849635
177.0,5.6674043280414485e+26,1.9976222356384207e+26,0.9695343963523743,8.06079481539649
178.0,6.399081546101866e+26,2.3302436748827967e+26,0.9693271120184057,8.15912451446059
179.0,7.186770303489484e+26,2.705466680069791e+26,0.969113916758939,8.2599042887836
180.0,8.028870363686114e+26,3.1264411454042116e+26,0.9688945811540949,8.363216120029692
181.0,8.922851481507248e+26,3.5961822198322755e+26,0.9686688681042225,8.469145130657411
182.0,9.865245872103379e+26,4.117508933239352e+26,0.9684365330510796,8.577779562514168
183.0,1.0851643666036662e+27,4.692979157272606e+26,0.9681973241426298,8.689210785763938
184.0,1.1876733359700483e+27,5.324827739731313e+26,0.9679509825587662,8.803533244318482
185.0,1.2934363914127365e+27,6.0149046671995464e+26,0.9676972428441307,8.920844402676853
186.0,1.4017620562192927e+27,6.764616307236435e+26,0.9674358332813384,9.041244684076936
187.0,1.511893511224932e+27,7.57487552317251e+26,0.9671664763837089,9.164837359456197
188.0,1.6230212413754842e+27,8.446058038244315e+26,0.9668888894304419,9.291728422806344
189.0,1.7342971508315248e+27,9.377965971687124e+26,0.9666027850603685,9.422026447163521
190.0,1.8448496143451886e+27,1.0369802166955573e+27,0.9663078719337332,9.55584241757023
191.0,1.953799735239364e+27,1.142015914981989e+27,0.9660038554995481,9.693289514960181
192.0,2.0602773926091826e+27,1.2527016341183958e+27,0.9656904388003088,9.83448289210462
193.0,2.1634371090698813e+27,1.3687751282122484e+27,0.965367323369491,9.979539406819848
194.0,2.2624731801194987e+27,1.4899160843354768e+27,0.9650342101939409,10.128577332881951
195.0,2.3566333069920512e+27,1.615749668662199e+27,0.9646908007312606,10.281716043771734
196.0,2.4452310066109691e+27,1.74585097076805e+27,0.964336798029114,10.439075650614093
197.0,2.5276556722345e+27,1.8797505161270615e+27,0.9639719078633147,10.60077662874104
198.0,2.603380885923287e+27,2.0169404393392983e+27,0.9635958399735362,10.766939399949266
199.0,2.671970299698902e+27,2.1568813718887984e+27,0.9632083093299714,10.93768389563335
200.0,2.7330812669191366e+27,2.2990097640161572e+27,0.9628090374520061,11.113129090893727
201.0,2.786466155267819e+27,2.4427454707438373e+27,0.9623977537611506,11.29339251435582
202.0,2.8319718380229144e+27,2.587499410551671e+27,0.9619741969990104,11.478589728255793
203.0,2.8695366430010394e+27,2.732681116831184e+27,0.9615381165839494,11.66883381158782
204.0,2.89918609777113e+27,2.877706009486313e+27,0.961089274075804,11.86423479568866
205.0,2.9210269529461126e+27,3.022002252301547e+27,0.960627444587868,12.064899105240325
206.0,2.935239970778998e+27,3.165017070610241e+27,0.9601524182221329,12.27092897286066
207.0,2.9420722274922526e+27,3.3062223164346704e+27,0.9596640013883037,12.482421901658391
208.0,2.941828170432583e+27,3.4451194842127006e+27,0.959162018264972,12.699470030652767
209.0,2.9348611337365477e+27,3.5812440951915643e+27,0.9586463122126713,12.922159540974297
210.0,2.9215635194271886e+27,3.714168565897738e+27,0.9581167468424534,13.150570128849607
211.0,2.902358363504849e+27,3.8435047112484333e+27,0.9575732072083957,13.384774456682972
212.0,2.877690996240207e+27,3.9689055515037886e+27,0.9570156009494237,13.624837607282759
213.0,2.848020971813936e+27,4.090066775391366e+27,0.9564438596089913,13.87081645670638
214.0,2.813814375719127e+27,4.206726614717539e+27,0.9558579394539415,14.122759196503402
215.0,2.775537294191097e+27,4.318665243243481e+27,0.9552578221692762,14.3807049171008
216.0,2.7336500581830104e+27,4.4257038487862966e+27,0.9546435155818234,14.644683169263459
217.0,2.688602153122317e+27,4.5277033351496775e+27,0.9540150543294724,14.914713539272668
218.0,2.6408276391030796e+27,4.624562848414539e+27,0.9533725006816457,15.190805147284841
219.0,2.590741767797477e+27,4.7162171924668537e+27,0.952715944750898,15.472956361731766
220.0,2.538738359666079e+27,4.8026342628808536e+27,0.9520455046060361,15.761154566443055
221.0,2.485187787432752e+27,4.8838124882535455e+27,0.9513613264224151,16.05537590575524
222.0,2.4304354497433227e+27,4.959778216852547e+27,0.9506635845744141,16.355585047300387
223.0,2.374800604720189e+27,5.030583144776692e+27,0.949952481866873,16.66173487063609
224.0,2.3185763974888473e+27,5.096301193727864e+27,0.9492282491022394,16.973766426812
225.0,2.2620297517550757e+27,5.157025878997897e+27,0.9484911448978856,17.291608798360837
226.0,2.2054024012391697e+27,5.212867342553005e+27,0.9477414546683158,17.615179330179345
227.0,2.1489107658021478e+27,5.263950315042676e+27,0.9469794909384655,17.944383264890313
228.0,2.0927467708174604e+27,5.310411669064059e+27,0.946205593256041,18.279113527070432
229.0,2.0370804301747963e+27,5.352397598578508e+27,0.9454201261325549,18.619251443650622
230.0,1.982060330075785e+27,5.390061943785423e+27,0.9446234787440426,18.96466666770898
231.0,1.9278136149894393e+27,5.423564498521166e+27,0.9438160662001956,19.315216287365793
232.0,1.8744503176608284e+27,5.453068708299858e+27,0.9429983259009219,19.670746393528198
233.0,1.8220628616703792e+27,5.478740511877501e+27,0.9421707178667255,20.031091664012372
234.0,1.7707267582437067e+27,5.500746802402712e+27,0.941333726618742,20.396074139461366
235.0,1.7205056748726072e+27,5.519254411921722e+27,0.9404878540795009,20.765506726551006
236.0,1.6714470669379492e+27,5.53442837534885e+27,0.9396336278445695,21.139188453136967
