Time,J,A,S,tau
0.0,100.0,100.0,0.5082983080226389,23.809523809523807
1.0,1259.967676457515,388.1316066480981,0.5085384235151181,23.747654578042376
2.0,4046.1841005328633,657.848960984027,0.5087863241261471,23.683852488355306
3.0,8310.148291493957,910.3203939532116,0.5090419626682455,23.61813469766433
4.0,13913.647949824266,1146.6448348851325,0.5093052928961117,23.550518100098895
5.0,20728.118039541398,1367.8530984887952,0.5095762658950441,23.48102024824016
6.0,28634.043629102358,1574.9119735790164,0.5098548300685722,23.40965934994688
7.0,37520.395824291634,1768.7280835174106,0.5101409311284834,23.33645426455612
8.0,47284.09789337104,1950.1515390660536,0.5104345120835682,23.261424499357826
9.0,57829.530944725826,2119.9793168506,0.5107355132320501,23.184590205140847
10.0,69068.05415726386,2278.958541978332,0.5110438721536724,23.105972171806577
11.0,80917.55832797938,2427.789541408469,0.5113595237062404,23.025591822919917
12.0,93302.09703088403,2567.128342770019,0.5116824000127881,22.943471212365303
13.0,106151.37374273683,2697.5902330294725,0.5120124304712966,22.859633015912564
14.0,119400.52964883584,2819.751136672139,0.512349541735803,22.774100529131903
15.0,132989.71404920638,2934.150584638014,0.5126936577307742,22.686897657899223
16.0,146863.6763331988,3041.294555781945,0.5130446996476556,22.598048912986847
17.0,160971.64139773147,3141.656223215556,0.5134025859386209,22.507579405018355
18.0,175266.86101067695,3235.679116710976,0.5137672323270573,22.415514835970253
19.0,189706.44935942892,3323.7781806600615,0.5141385518109999,22.32188149208618
20.0,204251.0860323833,3406.3418313584443,0.5145164546744686,22.22670623523722
21.0,218864.67598702706,3483.734374258851,0.5149008484916191,22.130016495849112
22.0,233514.6222074255,3556.293692078349,0.5152916381167135,22.03184026836339
23.0,248623.84601112362,4073.026917108637,0.5154436643511567,21.994474182994512
24.0,268265.097786808,5452.594557111252,0.5155864423585595,21.959491011992778
25.0,297301.438359928,7579.262427303826,0.5157269272454449,21.92511911251019
26.0,339782.419613482,10348.310840330889,0.5158650790825969,21.891365771630667
27.0,399031.5922741992,13665.434785296775,0.5160008587675826,21.85823806637774
28.0,477726.40565341257,17445.855290034786,0.5161342280332786,21.825742865235224
29.0,577971.2411370926,21613.496551672502,0.5162651494557909,21.793886829779314
30.0,701363.8235677632,26100.229158041166,0.5163935864623785,21.762676416270534
31.0,849055.3283364327,30845.17313986454,0.5165195033386374,21.732117877378112
32.0,1021805.314212908,35794.05365075764,0.5166428652355327,21.702217263896358
33.0,1220031.3075643643,40898.60915581352,0.5167636381760226,21.672980426509113
34.0,1443853.6764814162,46116.04419324857,0.516881789060321,21.644413017801085
35.0,1693135.5621276316,51408.54383886784,0.5169972856750606,21.616520493367126
36.0,1967520.6170203204,56742.788172762244,0.517110096693518,21.589308114822128
37.0,2266464.551219533,62089.553851832236,0.5172201916857551,21.5627809506102
38.0,2589265.5063198702,67423.32083375765,0.5173275411228758,21.53694387800677
39.0,2935090.4125006194,72721.9042229295,0.5174321163774066,21.511801585904664
40.0,3302998.768558695,77966.14485049972,0.5175338897332642,21.487358575500444
41.0,3691963.5476181083,83139.60026481158,0.5176328343853871,21.463619163089614
42.0,4100889.8057550136,88228.27803676801,0.5177289244451058,21.44058748160069
43.0,4528630.744550184,93220.38772493604,0.5178221349418085,21.418267482818994
44.0,4973996.760659493,98204.71042288549,0.5179124418349704,21.396662937436574
45.0,5438749.834122642,104874.03303788621,0.5179998219971959,21.375777440926445
46.0,5938455.563599571,115877.07950487068,0.5180842532347463,21.355614411740603
47.0,6503491.335279923,133335.57120102862,0.5181657142827744,21.336177094525816
48.0,7175317.421002325,158874.49235532183,0.5182441848076701,21.31746856186023
49.0,8003240.228135337,193691.7110599987,0.5183196454087364,21.299491716039867
50.0,9041674.377021065,238619.9589495502,0.5183920776192505,21.28224929090281
51.0,10347861.00144576,294181.5687906743,0.5184614639074321,21.265743853597996
52.0,11979963.448761217,360636.9857562057,0.5185277876771031,21.249977806329916
53.0,13995508.539602749,438027.4825224011,0.5185910332682476,21.23495338804694
54.0,16450133.259589931,526212.7618608506,0.5186511859568631,21.220672676177898
55.0,19396573.48496026,624903.9456270844,0.5187082319552421,21.207137588211673
56.0,22883898.200429164,733692.3956628656,0.5187621584111322,21.194349883396665
57.0,26956925.23039838,852074.7988242928,0.5188129534073913,21.182311164273724
58.0,31655803.61246097,979474.9686212813,0.5188606059611979,21.171022878206138
59.0,37015747.22560789,1115262.6077823003,0.5189051060231967,21.1604863188488
60.0,43066868.80566783,1258769.7560218791,0.5189464444741712,21.15070262791919
61.0,49834148.44199692,1409304.160619322,0.5189846131268867,21.141672796090454
62.0,57337409.50109071,1566161.7161914469,0.5190196047227262,21.133397664580567
63.0,65591475.03437695,1728635.9039089202,0.5190514129288577,21.12587792664749
64.0,74606320.9184085,1896025.8427159493,0.5190800323353832,21.119114128971788
65.0,84387270.68166903,2067657.869255606,0.5191054584545061,21.11310667267369
66.0,94936759.11508128,2244737.7284160405,0.5191276877210288,21.107855813850264
67.0,106278161.76695868,2435737.688847466,0.5191467174800489,21.103361666508775
68.0,118502879.0536777,2656404.520752368,0.5191625459915961,21.099624202216194
69.0,131808276.85545196,2927503.0451328177,0.519175172425835,21.0966432514546
70.0,146521061.41362622,3272919.238645075,0.51918459685855,21.094418504797886
71.0,163109026.06430817,3718130.2520965757,0.5191908202682657,21.092949513741456
72.0,182183700.1756107,4288974.831528889,0.5191938445316393,21.09223569173441
73.0,204495651.31311825,5010690.490599613,0.5191936724198979,21.092276314957275
74.0,230924843.52988183,5907168.064519851,0.5191903075942274,21.093070523201423
75.0,262466565.5117173,7000399.258163284,0.5191837546014177,21.094617320615093
76.0,300215337.62511444,8310075.424465662,0.5191740188693312,21.09691557641795
77.0,345346565.19872963,9853324.123289946,0.5191611067017049,21.09996402562913
78.0,399097715.7657144,11644548.543359179,0.5191450252737199,21.103761269610796
79.0,462749177.1513838,13695359.312621888,0.5191257826263951,21.108305776717003
80.0,537605340.9604884,16014577.332157105,0.5191033876613707,21.11359588280784
81.0,624977081.089999,18608288.843485665,0.5190778501353199,21.119629791760932
82.0,726164044.0238854,21479954.23038101,0.5190491806545697,21.126405575858126
83.0,842439484.2404008,24630542.47303983,0.5190173906688236,21.133921176264405
84.0,975035366.5983887,28058697.229099616,0.5189824924656911,21.142174403292845
85.0,1125130213.886811,31760909.9787177,0.5189444991648291,21.151162936682407
86.0,1293838102.8239655,35731697.27092035,0.5189034247092184,21.16088432625454
87.0,1482197568.203547,39964809.94811401,0.5188592838635225,21.171335991354894
88.0,1691186234.2830284,44464794.31147148,0.5188120922018811,21.18251522195351
89.0,1921835077.6039243,49269478.32510272,0.518761866106715,21.194419177898933
90.0,2175468420.1880965,54466650.22601328,0.5187086227566062,21.207044889887744
91.0,2454024249.8442974,60203429.129609846,0.5186523801225198,21.220389259013942
92.0,2760401032.676635,66689486.21453333,0.5185931569602146,21.23444905684433
93.0,3098810313.5777593,74195656.05458717,0.5185309728022116,21.249220925572423
94.0,3475093781.985992,83049447.14740221,0.5184658479512172,21.264701377823975
95.0,3896999551.392191,93628119.93147144,0.5183978034720585,21.280886796684335
96.0,4374404064.207689,106350324.05872488,0.5183268611840728,21.297773435592738
97.0,4919471888.919766,121666910.99888706,0.5182530436536694,21.31535741814925
98.0,5546750094.705102,140051385.63395962,0.5181763741861761,21.333634737996945
99.0,6273203274.844375,161990408.54556617,0.5180968768176862,21.352601258660673
100.0,7118192132.812045,187974643.6659661,0.5180145763070807,21.372252713307848
101.0,8103391124.921066,218490214.08010533,0.5179294981279905,21.39258470446782
102.0,9252660916.524254,254010849.4928244,0.5178416684601218,21.41359270382987
103.0,10591884080.575207,294990816.35405856,0.517751114180717,21.435272051978295
104.0,12148752155.823086,341858832.20826185,0.5176578628563906,21.457617958008612
105.0,13952538630.664461,395012754.4232446,0.5175619427341611,21.48062549926572
106.0,16033843830.904726,454815207.2652491,0.5174633827327595,21.504289620990527
107.0,18424312120.26896,521590196.2368877,0.5173622124337278,21.52860513597003
108.0,21156369551.37686,595620247.7496101,0.5172584620723656,21.553566724195882
109.0,24262913357.6791,677148141.8610052,0.5171521625287364,21.579168932467628
110.0,27777103495.18246,766409034.122344,0.5170433453189323,21.605406173920574
111.0,31732463825.276737,863717757.0241303,0.5169320425851486,21.63227272777655
112.0,36163543560.55042,969595381.7185757,0.5168182870860557,21.659762739011423
113.0,41107413398.92447,1084913761.9305704,0.5167021121895489,21.687870217468387
114.0,46605954546.642876,1211034151.6983953,0.5165835518596879,21.716589038257528
115.0,52708790514.639824,1349939816.0202322,0.5164626406510021,21.745912940455238
116.0,59477035229.42748,1504338083.188426,0.5163394136955531,21.775835527469876
117.0,66987259336.474884,1677744250.4228349,0.5162139066950209,21.80635026621103
118.0,75335834810.03337,1874533764.858035,0.5160861559104079,21.837450486811765
119.0,84643350364.2634,2099967550.68521,0.5159561981524116,21.869129382179004
120.0,95058980743.92563,2360189260.3245306,0.5158240707713305,21.90138000765143
121.0,106764574458.98842,2662197963.1847277,0.5156898116469838,21.934195280651544
122.0,119978380503.66785,3013798955.205925,0.5155534591786586,21.96756798032907
123.0,134958292262.72379,3423535532.1084585,0.5154150522749977,22.00149074721922
124.0,152004484381.97266,3900605590.1526437,0.5152746303439713,22.03595608287681
125.0,171461518411.87585,4454764557.415234,0.5151322332826228,22.070956349574082
126.0,193719691009.68222,5096219513.705977,0.5149879014666346,22.10648377005901
127.0,219215675738.4032,5835517587.452584,0.5148416757399966,22.142530427295025
128.0,248432476084.87476,6683430718.320246,0.5146935974046254,22.179088264226362
129.0,281898633424.4106,7650840139.2771015,0.5145437082100078,22.216149083547272
130.0,320186866989.8046,8748621171.10574,0.5143920503428253,22.253704547488528
131.0,363912107534.3627,9987531373.695337,0.5142386664162629,22.291746177724512
132.0,413728852358.8967,11378126635.507217,0.5140835994594436,22.330265355264366
133.0,470328337418.37885,12930794515.084259,0.5139268929068399,22.36925332037404
134.0,534436351544.7745,14656018106.906076,0.5137685905876728,22.408701172527135
135.0,606813303282.0114,16564932343.590921,0.5136087367152841,22.448599870390787
136.0,688257683348.7604,18670183506.090775,0.5134473758767468,22.488940231744042
137.0,779615549842.8593,20987037015.15897,0.5132845530213306,22.529712933878
138.0,881795232104.7944,23534712418.50388,0.5131203134502934,22.570908513525087
139.0,995790452762.109,26337867727.06685,0.512954702806674,22.612517366784875
140.0,1122710294746.7224,29428102467.595158,0.5127877670628795,22.65452975004247
141.0,1263816698115.429,32845562218.658554,0.5126195525118868,22.69693577937138
142.0,1420570538998.059,36640344503.69784,0.5124501057545394,22.739725431695952
143.0,1594680036454.3713,40873938314.27395,0.5122794736900715,22.782888544551096
144.0,1788161168028.642,45620354122.03013,0.5121077035045436,22.826414816851344
145.0,2003391953113.1953,50967170235.798836,0.5119348426600264,22.870293809363563
146.0,2243182775251.9844,57016236876.66874,0.5117609388839186,22.914514945178972
147.0,2510835387108.565,63884225794.375435,0.511586040157891,22.9590675104064
148.0,2810207778593.2476,71702869042.44768,0.5114101947069682,23.003940654876935
149.0,3145775838947.5693,80618953237.78482,0.5112334509886214,23.049123392901123
150.0,3522691333199.379,90794071210.90761,0.5110558576819143,23.094604604051128
151.0,3946837297484.9927,102404100482.76532,0.5108774636765334,23.140373034083556
152.0,4424875875910.165,115638468646.0378,0.5106983180617934,23.186417295950626
153.0,4964289834185.688,130699213602.19435,0.5105184701157016,23.232725870850057
154.0,5573416612769.0205,147799857624.5671,0.5103379692940224,23.27928710934997
155.0,6261473102838.917,167164141594.73523,0.5101568652193801,23.326089232552228
156.0,7038575372624.221,189024676043.8204,0.50997520767031,23.37312033337914
157.0,7915747606725.693,213621885301.8872,0.5097930465702609,23.420368377982353
158.0,8904925791351.936,241203719661.41873,0.5096104319766558,23.4678212071929
159.0,10018963708862.225,272026655232.48578,0.509427414069952,23.515466538068907
160.0,11271637291186.156,306358615466.2782,0.5092440431427353,23.563291965455498
161.0,12677683859819.555,344483965612.47516,0.5090603695888349,23.611284963636948
162.0,14252862981706.57,386710938872.7914,0.5088764438922225,23.6594328883662
163.0,16014047136358.377,433381818855.16614,0.5086923166161798,23.707722978613162
164.0,17979390613719.66,484885528010.7724,0.5085080383924833,23.756142358350544
165.0,20168543373078.7,541672223071.6422,0.5083236599102305,23.80467803911964
166.0,22602930992354.793,604270756747.7511,0.5081392319051379,23.85331692164086
167.0,25306166041470.73,673306470281.2153,0.5079548051485369,23.902045798524426
168.0,28304449837920.477,749521647981.486,0.5077704304364252,23.950851356423335
169.0,31627181425654.812,833795535585.4574,0.5075861585786561,23.999720178447983
170.0,35307521253943.25,927164978162.0345,0.507402040387934,24.04863874702644
171.0,39383156133055.06,1030845332656.7451,0.5072181266689342,24.0975934460872
172.0,43897057410830.77,1146248838863.2612,0.5070344682074828,24.146570564413423
173.0,48898321683545.016,1275004727050.8245,0.5068511157594471,24.195556297929706
174.0,54443140182805.47,1418973752420.2664,0.5066681200401087,24.24453675316905
175.0,60595647483467.914,1580264986821.0461,0.5064855317129785,24.293497950033217
176.0,67429054899663.984,1761246288696.808,0.5063034013790795,24.3424258250966
177.0,75026484553525.47,1964555230345.3916,0.5061217795660085,24.39130623499117
178.0,83482146173463.5,2193105734479.473,0.5059407167168216,24.440124959539713
179.0,92902208808832.97,2450091219988.4272,0.5057602631795531,24.488867705656023
180.0,103405814906111.27,2738987748116.2676,0.5055804691956362,24.537520110521704
181.0,115126078479910.34,3063549098341.625,0.5054013848897199,24.586067745726705
182.0,128210782252164.02,3427806888178.8213,0.5052230602580049,24.63449612078575
183.0,142823491856058.8,3836062353700.87,0.5050455451578211,24.68279068727126
184.0,159143963983360.78,4292888121879.1006,0.5048688892964303,24.73093684282473
185.0,177369272252408.53,4803128704084.199,0.5046931422198728,24.77891993523521
186.0,197714207534422.1,5371914473851.062,0.5045183533025618,24.826725266898496
187.0,220412280751687.1,6004688003966.31,0.5043445717352903,24.874338098963843
188.0,245716624548278.6,6707243494455.711,0.5041718465154111,24.921743656069197
189.0,273900892791959.25,7485795649513.586,0.504000226434521,24.96892713074267
190.0,305261141499171.8,8347059621611.879,0.5038297600684543,25.015873688252288
191.0,340117054812167.75,9298371824315.016,0.5036604957655,25.06256847135885
192.0,378815055211263.3,10347824240842.203,0.5034924816354057,25.10899660525286
193.0,421730609911808.1,11504437650190.51,0.5033257655387057,25.155143202616813
194.0,469272631528438.2,12778360284162.338,0.5031603950744481,25.20099336873044
195.0,521887827676064.8,14181086472975.047,0.50299641757053,25.24653220673836
196.0,580066265309819.4,15725720303632.406,0.5028338800706548,25.291744823008695
197.0,644348593592259.6,17427232160090.277,0.5026728293247681,25.33661633255318
198.0,715332913818606.6,19302771727319.21,0.5025133117764004,25.381131864625015
199.0,793685075156158.2,21371960268544.58,0.5023553735520134,25.425276568350036
200.0,880147332923620.2,23657224713574.29,0.5021990604496839,25.469035618457468
201.0,975551290016835.8,26184123673874.844,0.5020444179267528,25.512394221226753
202.0,1080829235851813.5,28981669975913.484,0.5018914910900049,25.555337620253695
203.0,1197028502360062.2,32082683761081.438,0.5017403246819581,25.59785110274473
204.0,1325326587633080.8,35524079451153.83,0.5015909630716503,25.6399200053523
205.0,1467045696130259.2,39347220476915.63,0.5014434502409177,25.681529720673193
206.0,1623671880386976.0,43598168608584.79,0.5012978297742369,25.722665703347662
207.0,1796869477213317.2,48327998562351.15,0.5011541448464049,25.76331347652133
208.0,1988503074526553.5,53593022538028.414,0.5010124382103711,25.803458638411666
209.0,2200652868770905.8,59455028879033.17,0.5008727521868817,25.843086868566722
210.0,2435636710302951.5,65981510097180.08,0.5007351286503254,25.882183934946653
211.0,2696028859366446.0,73245826297675.33,0.5005996090196534,25.92073570004002
212.0,2984678835014159.5,81327485049184.44,0.5004662342435665,25.958728128225548
213.0,3304735717539564.5,90312303628927.84,0.5003350447909524,25.996147292076405
214.0,3659663554908664.0,100292799444971.61,0.5002060806372862,26.032979379578958
215.0,4053270892926033.0,111368506318858.97,0.5000793812529497,26.069210701005158
216.0,4489726527817269.0,123646557922572.11,0.49995498559196494,26.10482769566705
217.0,4973592231852220.0,137242362983777.3,0.4998329320777494,26.13981693950474
218.0,5509846832291863.0,152280485244832.5,0.4997132585938911,26.174165151377647
219.0,6103919058541694.0,168895895499506.12,0.49959600246841457,26.207859201123245
220.0,6761729215884836.0,187235295266179.62,0.4994812004648416,26.24088611580004
221.0,7489724079708629.0,207459081954535.03,0.49936888876719376,26.273233087608585
222.0,8294942319236578.0,229743320584994.9,0.49925910296927095,26.304887480648812
223.0,9185056196034516.0,254282522339580.38,0.49915187806154976,26.335836838336345
224.0,1.0168464450244644e+16,281292416720880.56,0.4990472484187942,26.36606889065081
225.0,1.1254353844443144e+16,311013614425511.94,0.4989452477875115,26.39557156140505
226.0,1.2452823189073546e+16,343715151594095.7,0.4988459092744644,26.424332975194986
227.0,1.3774971296087186e+16,379699242622288.8,0.4987492653318717,26.45234146537519
228.0,1.5233053820237674e+16,419305519849351.06,0.49865534774849474,26.47958558014375
229.0,1.6840614214550892e+16,462916825491656.75,0.4985641876323899,26.50605409130775
230.0,1.8612669214387184e+16,510964166719926.56,0.49847581540400937,26.53173599962247
231.0,2.0565899909145584e+16,563933336982085.8,0.4983902607775082,26.556620544031404
232.0,2.2718858730832636e+16,622370666565308.9,0.4983075527545509,26.58069720665554
233.0,2.5092237744396788e+16,686890078575695.4,0.4982277196058093,26.60395572194445
234.0,2.770909235638906e+16,758179743856118.0,0.4981507888637884,26.626386081877346
235.0,3.059519291582727e+16,837009143601480.1,0.4980767873061526,26.64797854442345
236.0,3.377927050238547e+16,924236660985948.4,0.49800574094620426,26.668723639439865
237.0,3.729344651293458e+16,1020816298111613.2,0.49793767501918557,26.688612175983938
238.0,4.117351254731124e+16,1127806221840066.0,0.49787261396963095,26.707635249204113
239.0,4.545942374771004e+16,1246375027592018.2,0.4978105814411598,26.725784246262073
240.0,5.019563332319592e+16,1377811307154847.5,0.4977516002606027,26.743050854271583
241.0,5.543162633522234e+16,1523529863901109.5,0.49769569243108175,26.75942706485333
242.0,6.122234306929908e+16,1685082467461003.8,0.49764287911358185,26.77490518288493
243.0,6.762872117670915e+16,1864165223013544.2,0.49759318062230323,26.789477830026275
244.0,7.471826078240458e+16,2062630817893388.0,0.4975466164051873,26.80313795371434
245.0,8.256554504806429e+16,2282499130525699.5,0.49750320503974915,26.815878830309018
246.0,9.125300411128376e+16,2525971698580744.5,0.497462964214663,26.827694073521496
247.0,1.0087142160580197e+17,2795448164694391.0,0.49742591072406966,26.83857763793158
