Time,J,A,S,tau
0.0,100.0,100.0,0.9685055773488649,8.547008547008547
1.0,136.38850003551644,150.87434070137513,0.9685889009885071,8.492893319077037
2.0,215.3165329626536,201.05648567676337,0.968687891229893,8.428783601447556
3.0,340.2389150745999,250.53854747930936,0.9688027309158296,8.35461810318951
4.0,514.6660039581428,299.3163832643057,0.9689336073381566,8.270333458652281
5.0,742.1453881488247,347.3861102159593,0.9690807043985384,8.175869264610823
6.0,1026.2441300067342,394.7441206916311,0.9692442023757073,8.071168179789701
7.0,1370.53006760905,441.3870968404562,0.9694242776929644,7.956176021748675
8.0,1775.921803143511,490.1460560589521,0.9696086284004742,7.838944084237807
9.0,2228.9103551274666,579.9849700419699,0.9697293063624463,7.763550646933923
10.0,2780.269365570437,716.1562812050195,0.9698489745086685,7.689217879006231
11.0,3491.3680384874965,901.630437947711,0.9699676045005333,7.615951579332586
12.0,4433.725773717072,1139.3224133648698,0.9700851688903316,7.54375673538623
13.0,5689.543509324004,1432.06649111767,0.9702016411086084,7.472637556452271
14.0,7352.144380396747,1782.5906253555345,0.9703169954509259,7.402597506524707
15.0,9526.308638547116,2193.4906603838613,0.970431207064078,7.333639336884826
16.0,12320.910239724599,2678.6248942624766,0.9705442519317979,7.2657651182507035
17.0,15861.406829195486,3295.604661156273,0.9706561068602634,7.198976272423393
18.0,20370.247258918378,4114.4590190919935,0.9707667494629014,7.133273603529028
19.0,26195.420461667367,5215.3353317458395,0.9708761581451121,7.068657328627049
20.0,33839.4914523375,6688.959629188781,0.9709843120886028,7.005127107813927
21.0,43991.16957325899,8636.742663014898,0.9710911912355276,6.942682073688157
22.0,57558.75066932462,11170.717422895781,0.9711967762724235,6.881320860191588
23.0,75700.19026530908,14420.730872117148,0.9713010486139878,6.821041630799624
24.0,99856.1139103276,18595.513725371762,0.971403990386712,6.761842106054779
25.0,131917.11270782672,24036.48057597115,0.9715055844124445,6.703719590404666
26.0,174504.54421747525,31247.40335343811,0.9716058141918997,6.646670998339696
27.0,231333.9334789986,40926.875521985334,0.9717046638881531,6.590692879816685
28.0,307671.05039286776,54001.94557251321,0.9718021183101203,6.535781444977947
29.0,410886.9568004604,71662.22485663406,0.9718981628960713,6.481932588148042
30.0,551105.8873665071,95415.21726328203,0.9719927836972098,6.429141911102614
31.0,741986.4763618235,127270.40001445186,0.9720859673613383,6.377404745611019
32.0,1001952.7039043984,170061.00733505157,0.9721777011166312,6.326716175256716
33.0,1356193.4389913573,227860.23719612975,0.9722679727555122,6.277071056546425
34.0,1839689.116315617,306497.2091978176,0.9723567706186902,6.228464039298639
35.0,2501546.7726460267,414175.9796733476,0.972444083579359,6.180889586323249
36.0,3410934.3981297123,562203.5673778146,0.9725299010275849,6.134341992398066
37.0,4664890.734055636,765956.6296727466,0.9726142128548787,6.088815402559396
38.0,6398644.5031215055,1046471.7682137205,0.972697009438973,6.044303829709678
39.0,8800055.75554776,1433009.6486506169,0.9727782816288311,6.000801171551742
40.0,12130664.677494574,1966887.1559008039,0.9728580207298924,5.9583012268630915
41.0,16756638.00485435,2706881.3870927496,0.9729362184895686,5.9167977111237215
42.0,23193720.448448557,3736506.5707034087,0.9730128670829816,5.876284271513477
43.0,32171074.485313084,5173613.140883537,0.9730879590989724,5.836754501285815
44.0,44720054.69127476,7183569.847362278,0.9731614875263864,5.7982019535354095
45.0,62297400.20439884,9998438.460673735,0.9732334457406443,5.760620154373474
46.0,86958614.05621769,13945479.214464994,0.9733038274905965,5.724002615528415
47.0,121606002.18533528,19489182.575863887,0.9733726268856643,5.688342846382568
48.0,170346829.10971004,27291845.426682778,0.973439838383285,5.653634365461195
49.0,239009948.28979656,38298763.95759092,0.9735054567766624,5.619870711389874
50.0,335884979.2007162,53857097.97494306,0.9735694771828326,5.587045453336422
51.0,472771415.0643509,75883707.6137408,0.9736318950310142,5.555152200946989
52.0,666465747.6186019,107106621.43959068,0.9736927060512992,5.524184613801357
53.0,940879411.5557717,151416158.81181407,0.9737519062636477,5.494136410392823
54.0,1330074014.5381794,214375306.96415645,0.9738094919672013,5.465001376652026
55.0,1882628600.23302,303955114.89112425,0.9738654597299145,5.436773374028747
56.0,2667922392.765068,431584983.310895,0.9739198063785076,5.409446347146061
57.0,3785147341.64158,613649917.2745374,0.9739725289887416,5.383014331041069
58.0,5376206421.501138,873634820.8225633,0.9740236248760121,5.357471458006104
59.0,7644172297.305397,1245215493.5230474,0.9740730915862674,5.332811964044341
60.0,10879757230.781609,1776730761.4896178,0.9741209268872436,5.309030194952875
61.0,15499362406.17704,2537647368.728999,0.9741671287600235,5.286120612045669
62.0,22099843573.012894,3627873873.7360773,0.9742116953909121,5.2640777975298745
63.0,31537318356.305206,5191145141.607332,0.9742546251636337,5.24289645954762
64.0,45040467561.30768,7434257652.564589,0.9742959166518453,5.222571436895081
65.0,64373347435.54336,10654770490.39986,0.9743355686119664,5.20309770343047
66.0,92069445251.63924,15280984199.529015,0.9743735799763243,5.184470372182521
67.0,131768466772.72609,21929676929.268963,0.9744099498466102,5.166684699168877
68.0,188701351492.96326,31489418717.441288,0.9744446774876473,5.149736086935502
69.0,270388979330.1744,45240646925.02743,0.974477762321469,5.133620087827381
70.0,387648566669.94366,65028622358.34606,0.9745092039217034,5.118332406999719
71.0,556042925932.7212,93512638613.8436,0.9745390020082639,5.103868905178769
72.0,797967537124.314,134525377308.38066,0.9745671564423426,5.0902256011813485
73.0,1145657089302.7554,193591295289.84335,0.9745936672217005,5.077398674200961
74.0,1645517956041.7146,278674298529.1089,0.9746185344762602,5.065384465867421
75.0,2364372859221.8857,401255548307.4422,0.974641758463992,5.054179482088984
76.0,3398461791965.8545,577886438593.125,0.9746633395670922,5.043780394683502
77.0,4886414585403.745,832425873508.3492,0.9746832782884539,5.034184042805245
78.0,7027946439833.085,1199263628340.036,0.9747015752484253,5.02538743417367
79.0,10110802891576.441,1727964574093.7578,0.9747182311818514,5.01738774611063
80.0,14549595547971.71,2489958764150.551,0.9747332469353978,5.010182326389561
81.0,20941777474770.15,3588175454067.089,0.9747466234651554,5.003768693903148
82.0,30148318343508.91,5170910963924.728,0.9747583618345224,4.998144539154256
83.0,43409962782575.37,7451784561031.089,0.9747684632123574,4.993307724574167
84.0,62514739810477.89,10738448114657.168,0.9747769288714077,4.989256284672026
85.0,90039283601644.48,15473880562556.43,0.9747837601870023,4.985988426019621
86.0,129696440108388.28,22295762861157.96,0.9747889586360101,4.983502527073964
87.0,186835860117987.1,32121817263340.81,0.9747925257960616,4.981797137839897
88.0,269164755689232.1,46272410302352.53,0.9747944633450284,4.980870979376788
89.0,387785343403057.06,66646610522494.15,0.9747947730607607,4.980722943150897
90.0,558687621110055.5,95974894170468.08,0.9747934568210753,4.981352090235272
91.0,804896533289967.2,138181709525787.45,0.9747905166039965,4.982757650358784
92.0,1159559276973742.2,198905393194077.53,0.9747859544882398,4.984939020806115
93.0,1670382242967135.0,286243303217854.75,0.9747797726539404,4.987895765167584
94.0,2406004537750814.0,411819106609442.75,0.9747719733836228,4.991627611941235
95.0,3465148354871404.0,592310524274303.4,0.9747625590634054,4.996134452987316
96.0,4989748054511003.0,851634736852335.2,0.9747515321844398,5.0014163418350215
97.0,7183775456872916.0,1224072406727004.2,0.974738895344579,5.00747349184123
98.0,1.0340214029544352e+16,1758730243465784.2,0.974724651250273,5.014306274201352
99.0,1.4879679368691502e+16,2525910325680963.5,0.9747088027186834,5.02191521581049
100.0,2.1405666365515628e+16,3626193431825938.5,0.9746913526800204,5.030300996973878
101.0,3.0783510746211388e+16,5203381216535295.0,0.9746723041800929,5.039464448966503
102.0,4.425313275084751e+16,7462919131532829.0,0.9746516603830712,5.049406551439957
103.0,6.358984546165438e+16,1.0698094944234922e+16,0.9746294245744553,5.060128429674864
104.0,9.133345876489253e+16,1.5327256310912062e+16,0.9746056001642492,5.071631351677139
105.0,1.3111429874637307e+17,2.1946621892914144e+16,0.9745801906903285,5.083916725116357
106.0,1.8811651442472333e+17,3.1405130447453524e+16,0.9745531998220073,5.096986094102395
107.0,2.6973558268131872e+17,4.491039347061225e+16,0.9745246313637925,5.110841135799609
108.0,3.865100296178804e+17,6.417847851800282e+16,0.9744944892593266,5.125483656875644
109.0,5.5343964883033914e+17,9.164536172544792e+16,0.9744627775955069,5.140915589782045
110.0,7.918474118124562e+17,1.3076500777819266e+17,0.9744295006067857,5.157138988863797
111.0,1.132004717391985e+18,1.864289275091582e+17,0.9743946626796385,5.174156026295344
112.0,1.6168258962574252e+18,2.655557395222544e+17,0.9743582683571972,5.191968987838901
113.0,2.307057030513189e+18,3.779182353041729e+17,0.9743203223440462,5.210580268422353
114.0,3.288548260210429e+18,5.373015465682098e+17,0.9742808295111726,5.229992367534022
115.0,4.682423445828428e+18,7.631219250916563e+17,0.9742397949010666,5.250207884430666
116.0,6.659268122853113e+18,1.0826848795308617e+18,0.9741972237329652,5.2712295131553
117.0,9.458874697124143e+18,1.5343287874967946e+18,0.9741531214082354,5.293060037361598
118.0,1.341765086125809e+19,2.1717916179662984e+18,0.9741074935158871,5.315702324941435
119.0,1.9006559477474935e+19,3.07026297616946e+18,0.9740603458382125,5.339159322451342
120.0,2.688348712339395e+19,4.334752201193743e+18,0.9740116843565446,5.363434049335508
121.0,3.796531067880604e+19,6.111630244899216e+18,0.9739615152571286,5.388529591941617
122.0,5.3526757902436e+19,8.604508079444276e+18,0.973909844937099,5.414449097326125
123.0,7.53355746824003e+19,1.2096022607138986e+19,0.9738566800105559,5.441195766845654
124.0,1.0583669995362284e+20,1.6977644272749986e+19,0.9738020273147332,5.468772849531532
125.0,1.4840229926186428e+20,2.3790339620012552e+19,0.9737458939162486,5.497183635243785
126.0,2.0766992264472615e+20,3.327987490548023e+19,0.9736882871174325,5.526431447602023
127.0,2.8999804532190334e+20,4.647179409040021e+19,0.9736292144627252,5.556519636690462
128.0,4.0407720404547135e+20,6.477273654847118e+19,0.9735686837451362,5.587451571534234
129.0,5.6174634491562236e+20,9.010688051696776e+19,0.973506703012755,5.619230632344468
130.0,7.790784122077707e+20,1.2509904327160172e+20,0.973443280575309,5.651860202529754
131.0,1.0778172524139711e+21,1.7331947609807883e+20,0.9733784250107554,5.685343660471941
132.0,1.4872701551974296e+21,2.396098993713108e+20,0.9733121451719018,5.719684371064333
133.0,2.046787941168919e+21,3.305160222989449e+20,0.9732444501930454,5.754885677010819
134.0,2.8089978010142554e+21,4.5485897135696524e+20,0.9731753494966234,5.790950889884482
135.0,3.84399415137642e+21,6.244870332515185e+20,0.9731048527998635,5.827883280944663
136.0,5.244740210247666e+21,8.552602813833119e+20,0.9730329701214278,5.865686071711645
137.0,7.133989041808004e+21,1.1683342787061626e+21,0.9729597117880383,5.904362424298528
138.0,9.673095455468465e+21,1.5918261542883953e+21,0.9728850884410811,5.943915431499413
139.0,1.3073159170655808e+22,2.1629653278042706e+21,0.9728091110431517,5.984348106640889
140.0,1.7609034654464541e+22,2.930858421149934e+21,0.9727317908845998,6.025663373179767
141.0,2.3636795343924334e+22,3.960020639076743e+21,0.9726531395899599,6.067864054076947
142.0,3.1615373583439295e+22,5.334868792710068e+21,0.9725731691243779,6.110952860914026
143.0,4.213313626706981e+22,7.165396361214952e+21,0.9724918917999028,6.154932382792424
144.0,5.594029227117411e+22,9.594312644022988e+21,0.972409320281755,6.199805074977068
145.0,7.398801662220309e+22,1.2805957220488939e+22,0.9723254675944344,6.2455732473326275
146.0,9.747535009940657e+22,1.7037371198653264e+22,0.9722403471277782,6.292239052512261
147.0,1.279048038295296e+23,2.2591958987474765e+22,0.972153972642884,6.339804473929093
148.0,1.6714764470764914e+23,2.985623059306395e+22,0.9720663582779007,6.388271313512727
149.0,2.1751975130394635e+23,3.932017775221969e+22,0.9719775185536933,6.437641179250536
150.0,2.8186866752110036e+23,5.160191383716671e+22,0.971887468379365,6.487915472516268
151.0,3.6367238876644704e+23,6.747721589903215e+22,0.971796223057624,6.53909537520221
152.0,4.671498126816909e+23,8.791470620443295e+22,0.9717037982899889,6.59118183665343
153.0,5.973824865698109e+23,1.1411739171323742e+23,0.9716102101818249,6.644175560414181
154.0,7.604464183055137e+23,1.4757130859553158e+23,0.9715154752471841,6.698076990802772
155.0,9.635521551967686e+23,1.9010199886845368e+23,0.9714196104134611,6.752886299309845
156.0,1.2151907136079848e+24,2.439394451590491e+23,0.9713226330258924,6.808603370817901
157.0,1.5252808430943355e+24,3.11791960271052e+23,0.9712245608517599,6.865227789722553
158.0,1.9053129103535606e+24,3.9692965011237625e+23,0.9711254120844619,6.922758825840899
159.0,2.3684840878854835e+24,5.032771182744962e+23,0.9710252053472885,6.981195420277491
160.0,2.9298166867268083e+24,6.355159295751225e+23,0.9709239596970748,7.040536171057839
161.0,3.606251056388827e+24,7.99195604168824e+23,0.9708216946274505,7.100779318799817
162.0,4.4167047928637243e+24,1.0008528442514627e+24,0.9707184300719814,7.1619227321791765
163.0,5.382087837469105e+24,1.2481371273182308e+24,0.970614186407022,7.223963893355028
164.0,6.525262677178834e+24,1.5499407764437953e+24,0.9705089844542943,7.286899883336454
165.0,7.870938372082842e+24,1.9165308201937881e+24,0.9704028454831317,7.350727367340455
166.0,9.445493082599194e+24,2.359679336957981e+24,0.9702957912126086,7.415442580035235
167.0,1.1276711133466296e+25,2.892788321745355e+24,0.9701878438132614,7.481041310836954
168.0,1.3393429478846132e+25,3.531004532869497e+24,0.9700790259085144,7.547518889201684
169.0,1.5825096690843088e+25,4.291318765144088e+24,0.9699693605760356,7.614870169832006
170.0,1.8601230689973384e+25,5.192644058918314e+24,0.9698588713484665,7.683089518125445
171.0,2.1750787623235e+25,6.255866927929341e+24,0.9697475822140426,7.7521707955331065
172.0,2.5301453842922913e+25,7.503864736415581e+24,0.9696355176170858,7.822107344928554
173.0,2.927885115814968e+25,8.961484124557701e+24,0.9695227024577758,7.8928919762576175
174.0,3.370570532622698e+25,1.0655471957387503e+25,0.9694091620919054,7.964516952316775
175.0,3.860096813820948e+25,1.2614357505033293e+25,0.9692949223304684,8.036973974296618
176.0,4.3978929575913105e+25,1.486827748595152e+25,0.9691800094385425,8.110254167910282
177.0,4.98483613527873e+25,1.7448741801055638e+25,0.9690644501341396,8.184348069588438
178.0,5.62116971994217e+25,2.038833929345235e+25,0.9689482715866949,8.259245612704277
179.0,6.306431095394491e+25,2.372038134928126e+25,0.9688315014153482,8.334936114166723
180.0,7.03938943662763e+25,2.7478487270014496e+25,0.9687141676863577,8.4114082616282
181.0,7.817997789851139e+25,3.1696113383507737e+25,0.9685962989111914,8.48865009980617
182.0,8.63936574747755e+25,3.6406029503461402e+25,0.9684779240441509,8.566649017871548
183.0,9.499747436137581e+25,4.163976483098565e+25,0.9683590724773369,8.645391739140084
184.0,1.0394552585286924e+26,4.742700340699507e+25,0.9682397740405149,8.724864305418073
185.0,1.1318377177552094e+26,5.3794981545829495e+25,0.9681200589941623,8.805052068524441
186.0,1.226506568367154e+26,6.076787518049278e+25,0.9679999580270635,8.885939679234697
187.0,1.3227780539120539e+26,6.8366172477231136e+25,0.9678795022534558,8.96751107263558
188.0,1.4199102828743604e+26,7.660611199339446e+25,0.9677587232057981,9.049749461821879
189.0,1.5171149110531914e+26,8.54991491615845e+25,0.9676376528309352,9.13263732797868
190.0,1.6135698918947656e+26,9.505144745511504e+25,0.9675163234869675,9.216156407229464
191.0,1.7084336620198845e+26,1.0526347859570524e+26,0.9673947679355293,9.30028768402368
192.0,1.800860159001298e+26,1.1612971345439498e+26,0.967273019335847,9.385011384484624
193.0,1.8900139992682292e+26,1.2763838437624204e+26,0.9671511112403106,9.4703069670876
194.0,1.9750856341545533e+26,1.3977134324755373e+26,0.9670290775890862,9.556153113383086
195.0,2.0553058955912533e+26,1.5250406171497444e+26,0.9669069527011505,9.642527723822313
196.0,2.1299594894075455e+26,1.658057418851726e+26,0.9667847712691748,9.729407911979505
197.0,2.198397505947872e+26,1.7963951062279212e+26,0.9666625683525968,9.81676999709926
198.0,2.2600475756777122e+26,1.939627742485054e+26,0.9665403793693536,9.904589503187953
199.0,2.314423341990126e+26,2.0872760699253913e+26,0.9664182400901563,9.992841149483858
200.0,2.361130420645277e+26,2.2388131354606258e+26,0.966296186628986,10.081498852678983
201.0,2.399871141710162e+26,2.393670199551359e+26,0.9661742554365126,10.170535721740153
202.0,2.4304467817386475e+26,2.551243530326449e+26,0.9660524832915183,10.25992405681281
203.0,2.452757656284036e+26,2.710901709458662e+26,0.9659309072925261,10.349635348378143
204.0,2.4668011460409557e+26,2.8719933141997406e+26,0.965809564849201,10.439640277242042
205.0,2.472667829264679e+26,3.0338547966866303e+26,0.9656884936735235,10.529908715379944
206.0,2.4705359174497e+26,3.195818404600808e+26,0.9655677317707388,10.620409727661619
207.0,2.4606642392371406e+26,3.357219972562541e+26,0.9654473174300663,10.711111574558936
208.0,2.443383972187995e+26,3.517406418552939e+26,0.965327289215821,10.801981715780101
209.0,2.419089909816198e+26,3.675742796030252e+26,0.9652076859554134,10.892986815126516
210.0,2.3882305579424252e+26,3.831618930632289e+26,0.9650885467324198,10.984092743705014
211.0,2.351298094004871e+26,3.984455263834186e+26,0.9649699108750838,11.07526458841549
212.0,2.3088183623673475e+26,4.133707995621761e+26,0.9648518179457146,11.166466659550126
213.0,2.261341036306089e+26,4.278873448410495e+26,0.9647343077300586,11.257662499328617
214.0,2.2094301654023006e+26,4.41949161860865e+26,0.9646174202264314,11.34881489149279
215.0,2.1536552833909477e+26,4.555148901616836e+26,0.964501195634608,11.4398858719828
216.0,2.0945832169650287e+26,4.685479997171485e+26,0.964385674344461,11.53083674071451
217.0,2.032770670324021e+26,4.810169071714481e+26,0.964270896924431,11.621628073691435
218.0,1.968757681124702e+26,4.928950143626462e+26,0.9641569041099045,11.712219736553006
219.0,1.9030620958406743e+26,5.041606619418242e+26,0.9640437367906345,11.802570901294562
220.0,1.8361749750905377e+26,5.147970279060916e+26,0.9639314359981633,11.892640062805098
221.0,1.768556926649794e+26,5.247919704600226e+26,0.9638200428930671,11.982385056542553
222.0,1.7006353331852476e+26,5.341378220851192e+26,0.9637095987518927,12.071763077441505
223.0,1.6328024215655154e+26,5.4283114290039715e+26,0.9636001449537714,12.16073070007323
224.0,1.5654141098594747e+26,5.5087244116569956e+26,0.9634917229666982,12.249243900077573
225.0,1.4987895205742633e+26,5.582658708120143e+26,0.9633843743336,12.3372580763109
226.0,1.4332111234786155e+26,5.650189111582031e+26,0.9632781406578566,12.424728074438265
227.0,1.3689255446039319e+26,5.711420258996877e+26,0.9631730635880925,12.511608213734425
228.0,1.3061448275730184e+26,5.766483204250733e+26,0.9630691848027301,12.597852315164124
229.0,1.245047627080638e+26,5.815532263320083e+26,0.9629665459948819,12.683413724233489
230.0,1.1857816247150769e+26,5.858741369638477e+26,0.9628651888556364,12.768245349093043
231.0,1.1284654112878399e+26,5.8963010851084186e+26,0.9627651550571121,12.852299689702532
232.0,1.0731899300130006e+26,5.928415792985273e+26,0.9626664862397244,12.935528856092317
233.0,1.0200212401694616e+26,5.9553005869334684e+26,0.9625692239846669,13.017884613817818
234.0,9.690046542276728e+25,5.9771781757362476e+26,0.9624734098055081,13.099318444686213
235.0,9.20162615261812e+25,5.994277364273389e+26,0.962379085130932,13.179781507515088
236.0,8.735026138648264e+25,6.0068299043500704e+26,0.9622862912657152,13.259224785458448
237.0,8.290139001532412e+25,6.015068816251246e+26,0.9621950694113512,13.337599002049618
