Time,J,A,S,tau
0.0,100.0,100.0,0.7123692841050466,30.3030303030303
1.0,3130.5585885719647,752.0689447810902,0.7103741470302836,30.244503600215143
2.0,11614.529071436937,1378.8783806985657,0.7083140600481428,30.184151837961128
3.0,25242.48391327566,1981.1963967142976,0.7061896948225083,30.121990965209157
4.0,43714.80211975626,2559.772811084557,0.7040017597124514,30.05803710436128
5.0,66741.50697151337,3115.336324414172,0.7017510150367419,29.992306994726633
6.0,94042.12344912691,3648.5950760226915,0.699438272673057,29.924817989262717
7.0,125345.50186496446,4160.237285553147,0.6970643955752038,29.85558805107199
8.0,160389.6895057647,4650.931743634642,0.6946302971899699,29.784635749624837
9.0,198921.75939452826,5121.3284126307435,0.6921369407837423,29.711980256619
10.0,240697.64296068417,5572.058998502662,0.6895853386421223,29.63764134112774
11.0,285482.05413916084,6003.737260873777,0.686976551286769,29.561639365972695
12.0,333048.1979468247,6416.959912539958,0.6843116864539716,29.48399528149843
13.0,383177.82076047576,6812.306541171761,0.6815918981645746,29.404730622107746
14.0,435660.79941948416,7190.340804712463,0.6788183853689519,29.323867497114335
15.0,490295.2169066645,7551.61028751559,0.6759923910522087,29.241428589366816
16.0,546887.1235483813,7896.647182717953,0.6731152007986365,29.15743714711475
17.0,605250.3579620807,8225.968790435732,0.6701881413090335,29.071916975963056
18.0,665206.4695748903,8540.077765569275,0.667212579165859,28.984892435171272
19.0,726584.4310043451,8839.462892462165,0.664189919093196,28.896388427244467
20.0,789220.6901628312,9124.598933158946,0.6611216026291931,28.806430394981472
21.0,852958.7883243244,9395.947641121542,0.6580091061703224,28.715044308920127
22.0,917649.4099007567,9653.957612962684,0.6548539395904812,28.622256665290003
23.0,983150.0852981264,9899.064996607105,0.65165764407286,28.52809447148048
24.0,1049324.9245775624,10131.69426274167,0.6484217905145035,28.43258524086964
25.0,1116045.0082226745,10352.2568161967,0.645147977473027,28.335756983033267
26.0,1183187.6194246758,10561.153335924635,0.6418378295811817,28.237638199047996
27.0,1250636.520440259,10758.77282178063,0.6384929956201605,28.138257876762104
28.0,1318281.4072625635,10945.493647132487,0.6351151452795142,28.03764545284126
29.0,1388941.1996641809,12880.540133822966,0.633477810502648,27.994278527529687
30.0,1485675.333659096,18443.09741319772,0.6319371632972628,27.95411640270054
31.0,1636779.4800341008,27308.24800532603,0.6304195964726347,27.914721307877333
32.0,1867298.639754767,39166.73319832041,0.6289257797378737,27.87610147850807
33.0,2199248.6603756524,53728.21643050516,0.6274563727402512,27.838264891477326
34.0,2651832.9080860517,70720.39437890312,0.6260120245983558,27.80121926711255
35.0,3241646.968187126,89888.14553771263,0.6245933734449417,27.76497207120051
36.0,3982872.604404303,110992.71074717659,0.6232010459819495,27.729530517062884
37.0,4887465.271059928,133810.88895591995,0.621835657051673,27.694901567772273
38.0,5965326.666740374,158134.28727914905,0.6204978092102181,27.661091938181308
39.0,7224473.088481072,183768.56903398383,0.6191880923350315,27.628108097406873
40.0,8671188.321275694,210532.7714837999,0.6179070832120575,27.595956270693772
41.0,10310179.403167449,238258.58660295987,0.6166553451792994,27.564642442142436
42.0,12144706.490095228,266789.76031147613,0.6154334277243647,27.534172356325424
43.0,14176728.5679566,295981.37545906805,0.6142418662174348,27.50455152204055
44.0,16407012.914324015,325699.35101788054,0.6130811814642131,27.475785212790452
45.0,18835259.15765058,355819.81186661066,0.6119518794329032,27.447878469992173
46.0,21460210.18048273,386228.50844406383,0.6108544509963227,27.420836106030993
47.0,24279750.252132505,416820.3389589861,0.6097893715413677,27.394662705168663
48.0,27291004.826267324,447498.7785286615,0.6087571008122535,27.36936262762686
49.0,30490426.507828094,478175.4642974167,0.6077580824796646,27.344940009601856
50.0,33873881.81113101,508769.6465736351,0.6067927440891054,27.321398768284542
51.0,37436724.43498729,539207.8297609591,0.6058614966095751,27.29874260130979
52.0,41173869.3506322,569423.253244148,0.6049647344875567,27.276974992560245
53.0,45079874.07441903,599355.4865187826,0.6041028352720691,27.256099212208582
54.0,49148979.91210907,628950.1761629225,0.6032761591913188,27.236118316250668
55.0,53375176.705859184,658158.5596369165,0.6024850492299336,27.217035151970517
56.0,57752986.2103254,688338.9179507195,0.6017298313692344,27.19885236464691
57.0,62318926.53048968,732746.5786188277,0.601010813777102,27.181572391882582
58.0,67239194.05669945,808855.4840758207,0.6003282869405603,27.165197469033306
59.0,72809874.7656766,931591.3901864376,0.599682523530661,27.149729631086917
60.0,79434252.282529,1113518.015274357,0.59907377829614,27.135170714736162
61.0,87602504.17469703,1365067.1724330632,0.5985022879674307,27.121522360379767
62.0,97873602.749903,1694752.017394138,0.5979682711764979,27.10878601411354
63.0,110859349.00114658,2109363.544735305,0.5974719283893751,27.096962929674252
64.0,127210282.08949557,2614151.774449423,0.5970134418507287,27.0860541703329
65.0,147603261.4743974,3212992.739062763,0.596592975540215,27.076060610737006
66.0,172730683.44638723,3908541.713074343,0.5962106751401076,27.066982938694753
67.0,203291123.7075692,4702374.012798365,0.595866668017208,27.05882165693434
68.0,239981189.35369524,5595114.2685542535,0.5955610632145459,27.051577084796417
69.0,283488746.0322129,6586554.1702990215,0.595293951461714,27.045249359939643
70.0,334486932.32955307,7675760.363034859,0.5950654051783452,27.03983843982406
71.0,393629373.52904546,8861172.68697487,0.5948754785093058,27.035344103338428
72.0,461546131.67856264,10140693.71147306,0.5947242073654999,27.031765952324356
73.0,538840324.7576419,11511770.126736848,0.5946116094615849,27.029103412917845
74.0,626085733.6284413,12971465.214990262,0.5945376843618262,27.027355736805394
75.0,723824889.8373954,14516526.805186382,0.5945024136224311,27.02652200325629
76.0,832567274.1439363,16143445.781532126,0.5945057607416517,27.026601119173197
77.0,952788510.947207,17848511.99959492,0.5945476713674359,27.02759182144828
78.0,1084930506.0192993,19627858.90690563,0.5946280733810221,27.029492677949996
79.0,1229400045.602802,21477510.528716538,0.5947468769033688,27.03230208771143
80.0,1386569736.009724,23393418.306037832,0.594903974538795,27.036018283157002
81.0,1556778382.6045957,25371494.06236089,0.5950992414266864,27.04063933037706
82.0,1740331209.7639422,27407591.07362323,0.5953325353633251,27.04616312995397
83.0,1937500367.0313952,29498627.95815325,0.5956036970205532,27.052587418572216
84.0,2148585175.5175376,31670073.74831646,0.5959125500867518,27.059909769668927
85.0,2374315634.879298,34022709.5204674,0.596258901444931,27.068127594361545
86.0,2616469840.5700364,36728498.65901638,0.5966425412855296,27.077238141670968
87.0,2878395942.980411,40015986.225239635,0.5970632433080632,27.08723849937615
88.0,3165412590.1813354,44157448.271841355,0.5975207649318472,27.098125594849467
89.0,3485106693.8103223,49457829.939582385,0.5980148474805701,27.109896195508515
90.0,3847542800.4969206,56245138.51660507,0.5985452163991271,27.122546909449262
91.0,4265396643.792111,64862218.84054127,0.5991115814706752,27.13607418595427
92.0,4754026043.178109,75659735.18541288,0.5997136370374961,27.150474315906326
93.0,5331490070.577679,88990213.18649712,0.6003510622391254,27.165743432247297
94.0,6018519508.681441,105203059.52952372,0.6010235212559384,27.181877510369805
95.0,6838457095.521608,124640403.8633249,0.6017306635510676,27.198872368356906
96.0,7817164874.433652,147633700.26974642,0.6024721241443254,27.216723667440256
97.0,8982911392.576735,174500970.10555637,0.6032475238621442,27.235426912070388
98.0,10366234105.301163,205544653.26061547,0.6040564696250877,27.254977450275415
99.0,11999801651.645098,241049908.24093208,0.6048985547273206,27.275370473806923
100.0,13918253962.68156,281283393.4661914,0.605773359121501,27.296601018221526
101.0,16158039304.777426,326492424.789321,0.606680449723314,27.31866396306915
102.0,18757257134.531612,376904423.8876933,0.6076193807187826,27.341554031997514
103.0,21755484407.28622,432726691.66381663,0.6085896938689098,27.365265792699514
104.0,25193621146.86711,494146372.7932057,0.6095909188408185,27.389793657074673
105.0,29113719001.674015,561330669.7248867,0.6106225735240822,27.415131881081102
106.0,33558834229.98692,634427165.5610294,0.6116841643721291,27.441274564796952
107.0,38572871897.26168,713564348.0595696,0.6127751867509909,27.468215652487235
108.0,44200426663.26499,798852234.260911,0.6138951252691698,27.495948932273443
109.0,50486674676.17244,890382957.3369112,0.6150434541393128,27.524468036141418
110.0,57477204461.58993,988231419.8040717,0.6162196375587727,27.55376644016516
111.0,65217927381.96506,1092463137.3756738,0.6174231300314229,27.583837463665855
112.0,73755213917.90785,1203254256.6762621,0.6186533767900608,27.614674269901993
113.0,83137834180.36267,1321196470.8509111,0.6199098141381062,27.646269865340418
114.0,93421394393.22519,1447595468.3408701,0.6211918698311955,27.678617099412072
115.0,104675223149.6251,1584692498.718343,0.6224989635078424,27.71170866524544
116.0,116990704458.26137,1735836476.8876586,0.6238305070297542,27.745537098459568
117.0,130491002112.12888,1905595004.518593,0.6251859049052012,27.780094777561686
118.0,145341360953.24194,2099827191.8027165,0.626564554679655,27.81537392356573
119.0,161759926022.66818,2325718568.563305,0.6279658473410653,27.85136659986833
120.0,180028668727.2539,2591786650.6849713,0.6293891677259681,27.888064712073856
121.0,200504211486.43735,2907862174.2716994,0.6308338949283313,27.92546000782459
122.0,223628364114.458,3285050731.5931125,0.6322994027106877,27.963544076637138
123.0,249938223152.9126,3735678898.3534017,0.6337850599171462,28.002308349747068
124.0,280075718592.48926,4273228283.668953,0.6352902308878622,28.04174409996387
125.0,314796519985.7767,4912260523.689321,0.6368142758745386,28.081842441538353
126.0,354978238362.56946,5668335810.877298,0.6383565514565175,28.122594330044464
127.0,401627880532.00964,6557927015.2952385,0.6399164109570173,28.16399056227775
128.0,455888528370.924,7598331247.07542,0.6414932048590649,28.20602177617247
129.0,519045230413.6605,8807580417.6847,0.6430862812206619,28.24867845073949
130.0,592530104881.2626,10204352001.011614,0.6446949860887238,28.291950906027033
131.0,677926661809.478,11807880983.75325,0.6463186639113266,28.335829303106483
132.0,776973360322.7094,13637873945.602346,0.6479566579477928,28.380303644085195
133.0,891566422847.0557,15714425760.609943,0.6496083106761483,28.425363772148586
134.0,1023761932734.6857,18057939606.38962,0.6512729641974829,28.47099937163346
135.0,1175777245571.0295,20689050532.62243,0.6529499606367475,28.517199968134808
136.0,1349991747151.9277,23628552983.954376,0.6546386425395258,28.563954928648062
137.0,1548946989879.2476,26897332235.68715,0.65633835326433,28.61125346174871
138.0,1775346479296.222,30516299390.82375,0.6580484373690976,28.65908461784835
139.0,2032053927253.1196,34506333104.16594,0.6597682409957913,28.70743728934013
140.0,2322092673230.7954,38888241404.0106,0.6614971122437233,28.75630021102736
141.0,2648644551504.798,43683118142.07159,0.6632344015406952,28.80566196040668
142.0,3015054496638.7817,48913818263.786964,0.6649794620040784,28.855510958222236
143.0,3424853923748.5513,54607690841.55109,0.6667316498027305,28.905835468595953
144.0,3881812033477.2173,60800260939.188576,0.6684903245002456,28.956623599746006
145.0,4390016182781.645,67539580205.82488,0.6702548493935294,29.007863304741843
146.0,4954000031953.631,74891136693.25572,0.6720245918597018,29.059542381463682
147.0,5578905880937.811,82942839244.60127,0.6737989236546561,29.11164847420459
148.0,6270695946001.866,91810427727.13165,0.6755772212599643,29.164169073403183
149.0,7036407134626.651,101642506123.10483,0.6773588661569782,29.21709151731971
150.0,7884442347270.223,112625848059.84518,0.6791432451524343,29.270402992206417
151.0,8824919072067.527,124990151304.45084,0.6809297506406411,29.32409053370294
152.0,9870039725924.594,139012801041.67838,0.682717780893963,29.37814102759166
153.0,11034507098755.748,155023198050.17313,0.6845067403247728,29.432541210936385
154.0,12335971140332.996,173406797298.2241,0.686296039743094,29.48727767317617
155.0,13795507950001.713,194608770738.6986,0.6880850966025712,29.542336857308246
156.0,15438122783832.385,219137254787.4116,0.6898733352323086,29.597705061221184
157.0,17293274597786.254,247566229438.96426,0.6916601870599676,29.653368439057108
158.0,19395419830726.258,280538003232.43884,0.6934450908236309,29.709313002649388
159.0,21784570164103.76,318765319379.39795,0.6952274927731874,29.765524623030622
160.0,24506863549928.258,363033098762.5376,0.6970068468624123,29.821989031988977
161.0,27615145176248.383,414199738330.58374,0.6987826149239814,29.878691823798967
162.0,31169546314267.965,473198087595.0243,0.700554266835215,29.93561845700998
163.0,35238066640568.46,541036079610.5393,0.7023212806728196,29.992754256306494
164.0,39897153872405.6,618797035989.5941,0.7040831428562766,30.050084414455853
165.0,45232276622117.53,707639698406.7622,0.7058393482825638,30.107593994310662
166.0,51338500801999.766,808797882214.6838,0.7075894004451694,30.165267930955814
167.0,58321042261223.53,923579880522.6792,0.7093328115409091,30.223091033971013
168.0,66295809554753.89,1053367624936.2073,0.7110691025673355,30.281047989755805
169.0,75389932974986.17,1199615603059.7385,0.7127978034088057,30.339123363951632
170.0,85742271483606.47,1363849593678.7769,0.7145184529133601,30.397301603942168
171.0,97503917207034.62,1547665383147.5068,0.7162305989580299,30.45556704145564
172.0,110838677859366.58,1752729689656.3452,0.7179337984985354,30.513903895330913
173.0,125923575386655.42,1980788176547.7593,0.7196276176113479,30.572296274348357
174.0,142949450624101.56,2233685367410.9287,0.7213116315252802,30.63072818016068
175.0,162121790109871.97,2513400221892.429,0.7229854246419498,30.689183510335827
176.0,183661886585870.06,2822100437522.67,0.724648590554441,30.74764606142961
177.0,207808596480638.38,3162216372693.5835,0.7263007320436433,30.80609953228247
178.0,234820710369828.44,3536535497804.5293,0.7279414610578292,30.864527527499817
179.0,264980189019916.06,3948319923012.027,0.7295703987128651,30.922913560748977
180.0,298596605169056.8,4401443901870.549,0.7311871752606182,30.981241058373843
181.0,336012619763575.5,4900550572066.276,0.7327914300365869,31.03949336323831
182.0,377610763525649.06,5451231868112.702,0.7343828114340887,31.097653738375456
183.0,423822182683367.4,6060224963928.791,0.7359609768505,31.155705370897685
184.0,475136337285611.2,6735621263587.45,0.7375255925973174,31.213631376270577
185.0,532113269309045.1,7487103665123.264,0.7390763338778235,31.271414802095773
186.0,595397116630988.4,8326177994777.598,0.740612884656789,31.329038632765528
187.0,665731786737501.4,9266439417898.21,0.7421349376218289,31.386485793539446
188.0,743979163383704.1,10323828223962.809,0.7436421940621659,31.443739155227288
189.0,831138143065259.6,11516907357769.691,0.7451343637774948,31.500781538775513
190.0,928367813059255.9,12867146637555.117,0.7466111649892905,31.55759571990944
191.0,1037010363032708.6,14399195922135.959,0.7480723241945861,31.61416443416965
192.0,1158618503461592.2,16141194290870.902,0.7495175760964422,31.6704703816747
193.0,1294983506887756.2,18125036533268.33,0.7509466634343597,31.726496232399736
194.0,1448165530980446.8,20386687660804.36,0.7523593368946001,31.78222463125991
195.0,1620527827199129.0,22966455785004.586,0.7537553549585084,31.837638203494166
196.0,1814769348689130.5,25909285480181.754,0.7551344837648258,31.892719560108453
197.0,2033964631926105.8,29265049194902.13,0.7564964969904867,31.9474513034122
198.0,2281599947963628.5,33088803037825.906,0.7578411756699992,32.00181603271717
199.0,2561616093778783.5,37441093262476.15,0.7591683080902453,32.055796350138294
200.0,2878450827852857.0,42388181151907.195,0.7604776895996093,32.10937486646944
201.0,3237081673992918.0,48002336033098.79,0.7617691224813137,32.16253420725095
202.0,3643075877850802.5,54362056693859.19,0.7630424157860529,32.21525701888695
203.0,4102632933257967.0,61552317051450.01,0.7642973851646991,32.267525974856916
204.0,4622639761695207.0,69664808542790.6,0.7655338527308707,32.319323782198374
205.0,5210716714796430.0,78798145807279.48,0.7667516468637697,32.37063318777187
206.0,5875272389277853.0,89058203954719.64,0.767950602079554,32.42143698510173
207.0,6625559621036266.0,100558454739568.56,0.7691305588351028,32.47171802080481
208.0,7471728752629616.0,113420591926445.4,0.7702913633788551,32.52145920155805
209.0,8424899187142440.0,127775336676153.75,0.7714328675804472,32.57064350095889
210.0,9497220385767552.0,143763636022649.84,0.7725549287501111,32.61925396636298
211.0,1.0701963719909296e+16,161538342597003.88,0.7736574094939905,32.66727372632302
212.0,1.2053612373101028e+16,181266329260988.84,0.7747401775162255,32.71468599728735
213.0,1.3567979598588616e+16,203131431346135.56,0.77580310547868,32.761474091416424
214.0,1.5262355197098264e+16,227337889948440.94,0.7768460708123514,32.807621423496116
215.0,1.7155667447593836e+16,254114828855868.4,0.7778689555594593,32.85311151864959
216.0,1.926871085319151e+16,283721507579928.3,0.7788716462103451,32.89792801991474
217.0,2.162438373762466e+16,316453506853562.2,0.779854033524045,32.94205469550779
218.0,2.4248016977235932e+16,352650220770958.6,0.7808160123857455,32.98547544716809
219.0,2.7167733993481664e+16,392702951271775.9,0.7817574816210654,33.028174317119394
220.0,3.0414895717204092e+16,437064837232664.56,0.7826783438548958,33.070135496717015
221.0,3.402463534602728e+16,486261255478987.94,0.7835785053403604,33.11134333374394
222.0,3.803644511722853e+16,540902030163680.44,0.7844578758044093,33.151782340632494
223.0,4.249492624731819e+16,601694694517101.4,0.7853163682998867,33.19143720268165
224.0,4.745056450073598e+16,669458698804257.5,0.7861538990393357,33.23029278548633
225.0,5.296071226039801e+16,745141882779922.4,0.7869703872624465,33.26833414406002
226.0,5.909062899441023e+16,829836717284717.4,0.787765755072457,33.30554652984651
227.0,6.591468964047126e+16,924799670956995.9,0.7885399273035788,33.34191539996058
228.0,7.35177734603692e+16,1031470135748315.4,0.7892928313746147,33.377426424721584
229.0,8.199670968851264e+16,1151491783900312.0,0.7900243971484537,33.41206549606791
230.0,9.146205890436862e+16,1286735005276498.5,0.7907345568052905,33.44581873627047
231.0,1.020398637014697e+17,1439319453681263.2,0.7914232446991134,33.47867250521044
232.0,1.1387379179249549e+17,1611640226738992.5,0.7920903972417703,33.51061341005494
233.0,1.2712732912657085e+17,1806391725659379.8,0.7927359527686018,33.54162831206828
234.0,1.4198620950147464e+17,2026596460161831.2,0.7933598514226318,33.57170433610816
235.0,1.5866117918509862e+17,2275631541200008.5,0.7939620350377543,33.60082887819956
236.0,1.7739069932821597e+17,2557258228558846.5,0.7945424470206128,33.628989613745084
237.0,1.984442949772727e+17,2875652406885560.0,0.7951010322496156,33.65617450651104
238.0,2.22125667531562e+17,3235433589096542.0,0.7956377369611026,33.68237181538754
239.0,2.4877646349325843e+17,3641699595479853.0,0.7961525086558819,33.70757010428316
240.0,2.7878006716088774e+17,4100056086727004.0,0.796645295998828,33.731758248451236
241.0,3.125656016339695e+17,4616654483016779.0,0.797116048726895,33.75492544380347
242.0,3.506125981871275e+17,5198227036326092.0,0.7975647175652969,33.77706121426912
243.0,3.934552718213135e+17,5852128931102656.0,0.7979912541384877,33.79815541933699
244.0,4.4168805200309594e+17,6586386936944077.0,0.7983956108988737,33.8181982630027
245.0,4.9597058997549894e+17,7409751704329526.0,0.7987777410476037,33.837180299607766
246.0,5.570339319382324e+17,8331769911261006.0,0.799137598468938,33.85509244351602
247.0,6.256870488802108e+17,9362860211062558.0,0.7994751376668632,33.871925974637975
