Time,J,A,S,tau
0.0,100.0,100.0,0.8313023177239346,27.027027027027028
1.0,65.25182014182828,58.714298523401055,0.8339151317742588,27.460569984642113
2.0,30.555805379884866,43.50834540074773,0.8365330016284516,27.89635279605308
3.0,0.0,37.90140910594718,0.8391558660878025,28.3342427077337
4.0,0.0,35.829526759622496,0.841783795087905,28.774132696196368
5.0,0.0,35.06188590295721,0.8444168735264465,29.215916059024604
6.0,0.0,34.77793036392516,0.847055200525724,29.65948640188474
7.0,0.0,34.67579781774973,0.849698888715681,30.104737624922638
8.0,0.0,34.64436047327419,0.8523480635207934,30.551563908252515
9.0,0.0,34.64243670443594,0.8550028624719752,30.99985969708335
10.0,0.0,34.65628038638204,0.8576634346718671,31.449519689282628
11.0,0.0,34.67976252643321,0.8603299399229011,31.900438814880424
12.0,0.0,34.71067179311782,0.8630025482654556,32.35251222371413
13.0,0.0,34.74833589890644,0.8656814392065265,32.80563526582682
14.0,0.0,34.79255623320385,0.8683668011878455,33.25970347642537
15.0,0.0,34.84345245846277,0.8710588310046252,33.71461255912499
16.0,0.0,34.901011097968855,0.8737577331385932,34.17025836708899
17.0,0.0,34.965231040748364,0.876463719146391,34.626536885001414
18.0,0.0,35.03611545291793,0.8791770070649378,35.08334421114277
19.0,0.0,35.11366832457701,0.8818978208168715,35.54057653926443
20.0,0.0,35.198068077898036,0.8846263896267766,35.99813014036598
21.0,0.0,35.28948128936158,0.887362947423024,36.455901343973935
22.0,0.0,35.3879211728161,0.8901077321907426,36.91378651889153
23.0,0.0,35.49340027502899,0.8928609853563572,37.37168205451332
24.0,0.0,35.60593029152317,0.895622951166723,37.82948434218397
25.0,0.0,35.725533383654025,0.8983938760574843,38.28708975654293
26.0,0.0,35.85246175226715,0.9011740080063516,38.74439463642235
27.0,0.0,35.98683075228958,0.9039635958535834,39.20129526575392
28.0,0.0,36.1286606654119,0.9067628886089719,39.65768785516279
29.0,0.0,36.27797073096603,0.9095721347523862,40.113468523618586
30.0,0.0,36.4347789308058,0.9123915815133542,40.56853328026951
31.0,0.0,36.59914533158063,0.9152214741243885,41.02277800636626
32.0,0.0,36.77136596659677,0.918062055015602,41.47609843620441
33.0,0.0,36.95151676309108,0.9209135629998644,41.92839013967638
34.0,0.0,37.139624515841824,0.9237762324425502,42.3795485055471
35.0,0.0,37.33571445334059,0.9266502923898988,42.82946872458138
36.0,0.0,37.53980998435766,0.9295359656608242,43.278045773051694
37.0,0.0,37.75203296871236,0.932433467884928,43.7251743962491
38.0,0.0,37.97268686446893,0.9353430064312439,44.17074909082375
39.0,0.0,38.20182119223842,0.9382647793902004,44.61466409073082
40.0,0.0,38.43946782542778,0.9411989744915021,45.056813352986715
41.0,0.0,38.6856563489904,0.9441457679555886,45.49709054350687
42.0,0.0,38.94041376958827,0.9471053232894727,45.93538902351946
43.0,0.0,39.2039518960146,0.950077789973579,46.371601835589445
44.0,0.0,39.4765360342924,0.9530633020173083,46.805621689325875
45.0,0.0,39.75820398848422,0.9560619766364429,47.23734095185096
46.0,0.0,40.0489899911939,0.9590739127829011,47.666651637089416
47.0,0.0,40.348925015193416,0.9620991895911508,48.093445395601
48.0,0.0,40.65804315330357,0.9651378647436789,48.51761350516196
49.0,0.0,36.85551375768285,0.9678634156239181,48.89259279761771
50.0,0.0,13.558216777747909,0.9678043423571318,48.86565263439215
51.0,0.0,4.987726509164095,0.9677245465559196,48.82934090502391
52.0,0.0,1.8348588461506465,0.9676236635283434,48.783562477157325
53.0,0.0,0.6749983101222755,0.9675013016937524,48.72823011245366
54.0,0.0,0.24831487157873752,0.9673570418602213,48.66326500036623
55.0,0.0,0.0913487921961635,0.9671904364766867,48.58859729704139
56.0,0.0,0.033604923357337335,0.9670010088608901,48.50416666663128
57.0,0.0,0.012362404805800222,0.9667882524044574,48.409922822014906
58.0,0.0,0.0045478170585049795,0.966551629756673,48.30582606163432
59.0,0.0,0.00167302724614351,0.9662905719887657,48.19184779887034
60.0,0.0,0.0006154645785837238,0.966004477740789,48.0679710801137
61.0,0.0,0.0002264139333600599,0.9656927123534725,47.93419108743161
62.0,0.0,8.3291990985064e-05,0.9653546069877382,47.790515621501044
63.0,0.0,3.06409754799199e-05,0.9649894577349101,47.636965560279116
64.0,0.0,1.1271984024286245e-05,0.9645965247209919,47.47357528871637
65.0,0.0,0.0,0.9641750312088005,47.300393094702216
66.0,0.0,0.0,0.963724162702092,47.11748152635078
67.0,0.0,0.0,0.9632430660563913,46.92491770573095
68.0,0.0,0.0,0.9627308486013803,46.72279359419428
69.0,0.0,0.0,0.9621865772824484,46.51121620417536
70.0,0.0,0.0,0.9616092778223617,46.29030775387524
71.0,0.0,0.0,0.9609979339209775,46.06020575905875
72.0,0.0,0.0,0.9603514865426461,45.82106304750791
73.0,0.0,0.0,0.9596688333960676,45.57304766805228
74.0,0.0,0.0,0.958948827142411,45.316343054433624
75.0,0.0,0.0,0.958190276270248,45.051147515785004
76.0,0.0,0.0,0.9573919464037096,44.77767323467998
77.0,0.0,0.0,0.9565525490413472,44.49614932309907
78.0,0.0,0.0,0.955670769201486,44.20681342833193
79.0,0.0,0.0,0.9547452270863614,43.90992268126011
80.0,0.0,0.0,0.9537744748948315,43.605749523018154
81.0,0.0,0.0,0.952757065617507,43.29456715026368
82.0,0.0,0.0,0.9516915041082595,42.976665519569515
83.0,0.0,0.0,0.9505761895702952,42.65235398709195
84.0,0.0,0.0,0.9494095116400594,42.32194297747785
85.0,0.0,0.0,0.9481898473566032,41.985747808842014
86.0,0.0,0.0,0.9469154851403698,41.64410141382991
87.0,0.0,0.0,0.9455846768651652,41.297339633744386
88.0,0.0,0.0,0.9441956599552869,40.945802686826966
89.0,0.0,0.0,0.9427465894356435,40.58983940694452
90.0,0.0,0.0,0.9412356001452827,40.22979964247575
91.0,0.0,0.0,0.9396608031128955,39.866036417426145
92.0,0.0,0.0,0.9380202512915284,39.49890519665798
93.0,0.0,0.0,0.9363119840656619,39.12876175982802
94.0,0.0,0.0,0.9345339940190485,38.75596083502669
95.0,0.0,0.0,0.9326842572909854,38.380856393881935
96.0,0.0,0.0,0.9307607272754174,38.003799451155395
97.0,0.0,0.0,0.9287613254598315,37.62513591081725
98.0,0.0,0.0,0.9266839716564234,37.24521077673144
99.0,0.0,0.0,0.9245265697207906,36.864359719590475
100.0,0.0,0.0,0.922287012453034,36.48291305491233
101.0,0.0,0.0,0.9199631964702165,36.101197059765056
102.0,0.0,0.0,0.9175530241753812,35.71952529085867
103.0,0.0,0.0,0.9150544009417971,35.33820746376646
104.0,0.0,0.0,0.9124652583589825,34.95754034982358
105.0,0.0,0.0,0.9097835402790124,34.57781399943101
106.0,0.0,0.0,0.9070072222803626,34.19930829710308
107.0,0.0,0.0,0.9041343426094699,33.8222864203611
108.0,0.0,0.0,0.9011629428139765,33.447010197298184
109.0,0.0,0.0,0.8980911218253247,33.07372798098281
110.0,0.0,0.0,0.8949171032146657,32.702667601578305
111.0,0.0,0.0,0.8916391220749984,32.33405532825251
112.0,0.0,0.0,0.888255446236889,31.96810950247348
113.0,0.0,0.0,0.8847645506468237,31.60502315034776
114.0,0.0,0.0,0.881164967203003,31.24498433451397
115.0,0.0,0.0,0.8774552264376644,30.888178751950292
116.0,0.0,0.0,0.8736340842277792,30.534768576905858
117.0,0.0,0.0,0.8697004943725198,30.184902960826214
118.0,0.0,0.0,0.8656534121489061,29.838730924615476
119.0,0.0,0.0,0.8614918373089451,29.49639220518017
120.0,0.0,0.0,0.8572151992074823,29.158000943583627
121.0,0.0,0.0,0.852823047573881,28.823666939384523
122.0,0.0,0.0,0.8483149254327793,28.493499877119355
123.0,0.0,0.0,0.8436904609993721,28.16759729263834
124.0,0.0,0.0,0.8389498703155603,27.84603402409948
125.0,0.0,0.0,0.8340934914618956,27.528882422847936
126.0,0.0,0.0,0.8291216622175087,27.21621483902834
127.0,0.0,0.0,0.8240346958983615,26.90809658180488
128.0,0.0,0.0,0.8188336160233869,26.604570101225118
129.0,0.0,0.0,0.8135197822434816,26.305673255819684
130.0,0.0,0.0,0.8080945542095426,26.01144390411923
131.0,0.0,0.0,0.802559287010425,25.721919407764407
132.0,0.0,0.0,0.7969155787571571,25.437122480518916
133.0,0.0,0.0,0.7911657555679066,25.157063656052458
134.0,0.0,0.0,0.7853122521162067,24.881753812884693
135.0,0.0,0.0,0.7793575004912892,24.611203551692956
136.0,0.0,0.0,0.7733041450408895,24.345414043973527
137.0,0.0,0.0,0.7671554501528149,24.084378162246857
138.0,0.0,0.0,0.7609147753071647,23.828089014647965
139.0,0.0,0.0,0.7545854946283231,23.576537004101667
140.0,0.0,0.0,0.7481714923353511,23.32970390700592
141.0,0.0,0.0,0.7416769500994893,23.087570362765465
142.0,0.0,0.0,0.7351060535036535,22.85011631642503
143.0,0.0,0.0,0.7284632665902019,22.617315458217647
144.0,0.0,0.0,0.7217534151934708,22.389139517093394
145.0,0.0,0.0,0.7149813510141936,22.165559169391294
146.0,0.0,0.0,0.7081522399112621,21.946540962979636
147.0,0.0,0.0,0.7012714518250941,21.732050910322364
148.0,0.0,0.0,0.6943443960555586,21.522052888898383
149.0,0.0,0.0,0.687376807255729,21.316508495706575
150.0,0.0,0.0,0.6803744938325871,21.11537912522064
151.0,0.0,0.0,0.6733433615781277,20.918623887163548
152.0,0.0,0.0,0.6662895129319192,20.726201296962067
153.0,0.0,0.0,0.6592190733844305,20.538068769597817
154.0,0.0,0.0,0.652138333300417,20.354182979317613
155.0,0.0,0.0,0.6450535910272766,20.174500037234047
156.0,0.0,0.0,0.6379712356413688,19.998975326734325
157.0,0.0,0.0,0.630897687239964,19.827564101577206
158.0,0.0,0.0,0.6238393607124657,19.660220986270534
159.0,0.0,0.0,0.6168027208348928,19.496900747557756
160.0,0.0,0.0,0.6097941587071711,19.33755771922302
161.0,0.0,0.0,0.6028200946379759,19.182146535571356
162.0,0.0,0.0,0.5958868526402367,19.03062160554637
163.0,0.0,0.0,0.5890007226195729,18.882937755646758
164.0,0.0,0.0,0.5821679152773458,18.739049786924454
165.0,0.0,0.0,0.5753945194042285,18.598912981243227
166.0,0.0,0.0,0.568686574008047,18.46248282508595
167.0,0.0,0.0,0.5620499215481131,18.329715268414784
168.0,0.0,0.0,0.5554903548267123,18.200566716123976
169.0,0.0,0.0,0.5490134473962179,18.074993988029345
170.0,0.0,0.0,0.5426246748839096,17.952954597659016
171.0,0.0,0.0,0.536329320932507,17.83440640710066
172.0,0.0,0.0,0.5301324912151355,17.719308182945664
173.0,0.0,0.0,0.5240391519934259,17.607618997715907
174.0,0.0,0.0,0.5180540113425063,17.499298954688392
175.0,0.0,0.0,0.5121816798081841,17.394308517187685
176.0,0.0,0.0,0.50642646726178,17.292609159442488
177.0,0.0,0.0,0.5007925823992926,17.194162888838825
178.0,0.0,0.0,0.4952839526100803,17.0989325857652
179.0,0.0,0.0,0.48990435259581994,17.006881903226997
180.0,0.0,0.0,0.4846573389016473,16.91797516145194
181.0,0.0,0.0,0.4795462285343819,16.8321777817694
182.0,0.0,0.0,0.47457424043813484,16.749455484594044
183.0,0.0,0.0,0.4697442384756261,16.669775445109167
184.0,0.0,0.0,0.4650589947714601,16.59310535233931
185.0,0.0,0.0,0.4605211295456636,16.5194134231007
186.0,0.0,0.0,0.4561329274011385,16.44866936773615
187.0,0.0,0.0,0.4518966160231524,16.380843216889165
188.0,0.0,0.0,0.44781419342737283,16.315906028603457
189.0,0.0,0.0,0.4438874786857585,16.25382974216119
190.0,0.0,0.0,0.44011814460295007,16.194587051864577
191.0,0.0,0.0,0.43650767323105116,16.138151614266025
192.0,0.0,0.0,0.43305742521378116,16.084497784658698
193.0,0.0,0.0,0.4297685899531101,16.03360085211863
194.0,0.0,0.0,0.4266422209513729,15.985436940469036
195.0,0.0,0.0,0.4236792450005098,15.939982927140255
196.0,0.0,0.0,0.4208804447672004,15.897216631801724
197.0,0.0,0.0,0.4182465000257605,15.857116578889451
198.0,0.0,0.0,0.4157779651293668,15.819662170149138
199.0,0.0,0.0,0.4134752886073516,15.78483361870474
200.0,0.0,0.0,0.4113388222229748,15.752611904211966
201.0,0.0,0.0,0.40936881706020206,15.72297881099058
202.0,0.0,0.0,0.40756543504491954,15.695916932649858
203.0,0.0,0.0,0.405928758474333,15.671409607744817
204.0,0.0,0.0,0.4044587863340477,15.649440942195083
205.0,0.0,0.0,0.403155442323998,15.62999583517964
206.0,0.0,0.0,0.4020185841946767,15.61305989888344
207.0,0.0,0.0,0.4010480024316348,15.59861949927188
208.0,0.0,0.0,0.4002434234411466,15.586661730728599
209.0,0.0,0.0,0.39960451441972705,15.577174413030226
210.0,0.0,0.0,0.39913088574056355,15.570146073826407
211.0,0.0,0.0,0.39882209315557476,15.565565930653987
212.0,0.0,0.0,0.398677639224663,15.563423897963533
213.0,0.0,0.0,0.3986969741935895,15.563710564279813
214.0,0.0,0.0,0.39887949703674525,15.566417183650579
215.0,0.0,0.0,0.3992245557902295,15.571535664113973
216.0,0.0,0.0,0.39973144739654687,15.579058555955534
217.0,0.0,0.0,0.4003994172951671,15.58897904000129
218.0,0.0,0.0,0.4012276585411399,15.601290915267327
219.0,0.0,0.0,0.4022153105156182,15.615988586521292
220.0,0.0,0.0,0.4033614568671035,15.633067052239511
221.0,0.0,0.0,0.4046651248921808,15.652521889392085
222.0,0.0,0.0,0.4061252820683217,15.674349244351363
223.0,0.0,0.0,0.407740833892894,15.698545816986927
224.0,0.0,0.0,0.4095106212046425,15.725108848043918
225.0,0.0,0.0,0.4114334170209901,15.754036104889616
226.0,0.0,0.0,0.41350792400137504,15.785325870074656
227.0,0.0,1.0546130684283523e-05,0.4157327706057941,15.818976923833088
228.0,0.0,1.1887627383582309e-05,0.41810650826113915,15.85498853076272
229.0,0.0,1.3402708809362478e-05,0.4206276074785019,15.893360427577603
230.0,0.0,1.5116707702420755e-05,0.42329445463590576,15.934092805310495
231.0,0.0,1.7058514773745364e-05,0.42610534904252767,15.977186295685229
232.0,0.0,1.926084108518911e-05,0.42905849873243296,16.022641956563618
233.0,0.0,2.176038103291773e-05,0.4321520181687097,16.070461254158957
234.0,0.0,2.459804872930133e-05,0.43538392426480693,16.120646050052255
235.0,0.0,2.7819167423886382e-05,0.4387521343747369,16.173198582146576
236.0,0.0,3.1473812396846336e-05,0.4422544627186077,16.228121451383213
237.0,0.0,3.56172010384251e-05,0.4458886188205387,16.28541760202898
238.0,0.0,4.031034702546046e-05,0.4496522045265532,16.345090307817983
239.0,0.0,4.5620850677452905e-05,0.4535427129979649,16.407143151806974
240.0,0.0,5.162400168832201e-05,0.45755752649314224,16.471580011680263
241.0,0.0,5.840405706741842e-05,0.4616939160146148,16.53840503936781
242.0,0.0,6.605582816387751e-05,0.4659490400082942,16.607622645326718
243.0,0.0,7.468644782742538e-05,0.47031994474454863,16.679237478029314
244.0,0.0,8.441741680048317e-05,0.47480356406499596,16.753254407127688
245.0,0.0,9.538683818073718e-05,0.4793967205606764,16.829678502837986
246.0,0.0,0.0001077518332727676,0.48409612646323635,16.908515017976075
247.0,0.0,0.00012169119576125584,0.4888983856677487,16.98976936719707
248.0,0.0,0.00013740805651064685,0.4937999958240017,17.073447107958426
249.0,0.0,0.00015513287193933214,0.4987973512364455,17.15955391952173
250.0,0.0,0.00017512621930386446,0.5038867461653858,17.248095582952974
251.0,0.0,0.000197682008763644,0.509064378620512,17.33907795975847
252.0,0.0,0.0002231302771666928,0.5143263548347681,17.432506971068786
253.0,0.0,0.00025184059597370255,0.519668693949255,17.528388575764225
254.0,0.0,0.00028422488451748966,0.5250873335784919,17.626728749006933
255.0,0.0,0.0003207411533932828,0.5305781353615102,17.727533459715307
256.0,0.0,0.00036189659132818385,0.5361368915002224,17.83080864860652
257.0,0.0,0.00040825197632270887,0.5417593311228284,17.936560204905174
258.0,0.0,0.00046042545790386726,0.5474411276507982,18.044793944033895
259.0,0.0,0.0005190980343916542,0.5531779058855141,18.155515583491116
260.0,0.0,0.0005850184723232567,0.5589652500463217,18.268730720279514
261.0,0.0,0.0006590101640095129,0.5647987114526267,18.384444805958694
262.0,0.0,0.000741977532238395,0.5706738170662766,18.502663123841575
263.0,0.0,0.0008349144339490462,0.576586077617676,18.62339076329859
264.0,0.0,0.0009389122356821112,0.5825309964745617,18.746632596695274
265.0,0.0,0.001055169726133537,0.5885040780369795,18.87239325309888
266.0,0.0,0.0011850028671321546,0.5945008367623957,19.000677094868415
267.0,0.0,0.001329855884133211,0.6005168056270227,19.131488190987255
268.0,0.0,0.0014913124402362809,0.6065475451542008,19.26483029316463
269.0,0.0,0.0016711073308129795,0.612588651722089,19.40070680907339
270.0,0.0,0.001871138574496608,0.6186357664579527,19.539120777790473
271.0,0.0,0.002093478905876973,0.624684583170064,19.680074843251518
272.0,0.0,0.002340388100991998,0.6307308569825691,19.82357122884914
273.0,0.0,0.0026143232266653935,0.6367704116829458,19.96961171142419
274.0,0.0,0.0029179503447770466,0.6427991479796213,20.11819759485629
275.0,0.0,0.003254152691141894,0.6488130500846199,20.269329684893336
276.0,0.0,0.003626041074360238,0.6548081934789565,20.423008261609723
277.0,0.0,0.004036959301885514,0.660780750591107,20.579233055330437
278.0,0.0,0.004490492652429001,0.6667269979540279,20.738003217899227
279.0,0.0,0.004990470383361898,0.6726433208907918,20.89931729988049
280.0,0.0,0.005540972011274571,0.6785262199430863,21.063173220672727
281.0,0.0,0.006146326913096665,0.6843723144874652,21.22956824718764
282.0,0.0,0.006811118264625857,0.6901783483990209,21.398498962400737
283.0,0.0,0.007540180705694876,0.6959411928168763,21.569961246094632
284.0,0.0,0.008338599818978904,0.701657850124538,21.74395024357454
285.0,0.0,0.009211710431184968,0.7073254569938835,21.920460342926365
286.0,0.0,0.010165090459765483,0.7129412858483701,22.099485151636895
287.0,0.0,0.011204558866650114,0.7185027481197096,22.281017466587382
288.0,0.0,0.012336168005213663,0.7240073949448882,22.465049253059203
289.0,0.0,0.013566195357656354,0.7294529178558717,22.65157162123818
290.0,0.0,0.014901134264863005,0.7348371495603604,22.84057479858316
291.0,0.0,0.01634768537061421,0.7401580645757543,23.032048106573573
292.0,0.0,0.01791274194941727,0.7454137781372059,23.225979938413587
293.0,0.0,0.019603375178381302,0.750602545352079,23.42235773604572
294.0,0.0,0.021426818760298207,0.7557227605312333,23.621167965576756
295.0,0.0,0.02339044859678461,0.7607729551994662,23.822396096079018
296.0,0.0,0.025501761163006006,0.7657517963138499,24.026026576417053
297.0,0.0,0.02776834849110903,0.77065808400038,24.232042812474266
298.0,0.0,0.030197873043977048,0.7754907492748014,24.440427148322954
299.0,0.0,0.032798034860045656,0.7802488507845226,24.651160843505437
300.0,0.0,0.035576538213793085,0.784931571804709,24.86422405158449
301.0,0.0,0.0385410582773543,0.7895382171679932,25.079595803619018
302.0,0.0,0.041699199523215554,0.794068209501611,25.297253984917184
303.0,0.0,0.04505845376727259,0.7985210851755122,25.517175318077793
304.0,0.0,0.0486261595419271,0.8028964916779232,25.739335340387427
305.0,0.0,0.05240945269387144,0.8071941820094739,25.963708390304287
306.0,0.0,0.05128107337364301,0.8114140125756741,26.190267574911854
307.0,0.0,0.02213472194308701,0.815555935661658,26.41898479815119
308.0,0.0,0.011597021235465113,0.8196199979146789,26.649830680911673
309.0,0.0,0.007910020546363437,0.823606335329091,26.882774584155836
310.0,0.0,0.006747954572802726,0.82751516875814,27.117784583594766
311.0,0.0,0.006519170503959484,0.8313467995264083,27.354827454213364
312.0,0.0,0.006637771221725794,0.8351016050461795,27.59386865525502
313.0,0.0,0.006887832824400373,0.838780034451557,27.834872315709934
314.0,0.0,0.007189503855294673,0.8423826042807446,28.077801219943062
315.0,0.0,0.007512922892197602,0.8459098941264578,28.322616795222793
316.0,0.0,0.00784674516032648,0.8493625426615451,28.569279094240677
317.0,0.0,0.008186224168944975,0.8527412431130372,28.817746790104415
318.0,0.0,0.008529127290531504,0.8560467395730866,29.06797715586766
319.0,0.0,0.008874164058677022,0.859279822939637,29.319926056944748
320.0,0.0,0.009220165436626668,0.862441326752039,29.573547938825588
321.0,0.0,0.009566317476385882,0.865532123813699,29.82879581899021
322.0,0.0,0.009911743631697502,0.8685531223274582,30.085621273792
323.0,0.0,0.010255419610064303,0.8715052632754177,30.34397436383452
324.0,0.0,0.010596563142633037,0.8743895154540225,30.603803807530564
325.0,0.0,0.01093426321201851,0.8772068727558169,30.865056760752953
326.0,0.0,0.011267513210226995,0.879958351768278,31.12767890755034
327.0,0.0,0.011595578643256827,0.882644987918705,31.39161445294411
328.0,0.0,0.01191761168764393,0.8852678330828416,31.656806089691965
329.0,0.0,0.012232779978663353,0.887827952689069,31.923194998890963
330.0,0.0,0.01254028322402339,0.890326423119037,32.19072083914935
331.0,0.0,0.012839352586070638,0.8927643292320665,32.459321737467285
332.0,0.0,0.013129152935584663,0.8951427620314745,32.72893427767305
333.0,0.0,0.013409110867051833,0.8974628164119159,32.99949350001577
334.0,0.0,0.013678552272640773,0.8997255891070308,33.27093288223757
