Time,J,A,S,tau
0.0,100.0,100.0,0.5266221956123407,26.65377925740666
1.0,909.4969192583909,352.0041643097179,0.526207490202811,26.562045447834432
2.0,2870.1005123409254,599.1384775874903,0.5257820927586133,26.468005632031396
3.0,5929.792983915353,841.478095670093,0.5253461270398807,26.3716862238245
4.0,10037.88759488991,1079.1003850119466,0.524899713890188,26.273112667094644
5.0,15145.014843954195,1312.0814448357503,0.5244429794355202,26.172311236702242
6.0,21203.112525596654,1540.4961309540304,0.5239760550371779,26.06930903254277
7.0,28165.41309022893,1764.4180817475478,0.523499077243417,25.964133973716
8.0,35986.432370374125,1983.9197416319332,0.5230121877317154,25.856814791552413
9.0,44621.96066772228,2199.072380899154,0.5225155332481954,25.747381022516734
10.0,54029.04641275594,2409.9461234224677,0.52200926554968,25.635863001818258
11.0,64165.98238984166,2616.6099690698857,0.5214935413127014,25.522291852083537
12.0,74992.29609046076,2819.131813634643,0.5209685220930206,25.406699480410825
13.0,86468.73784966605,3017.578465845571,0.5204343742109241,25.289118563852885
14.0,98557.2613943479,3212.015675578105,0.5198912686821683,25.169582542437134
15.0,111220.99761819822,3402.5081696343705,0.5193393811353231,25.04812561030338
16.0,124424.27351477508,3589.119629909845,0.5187788917109305,24.92478270434934
17.0,138132.56179121803,3771.9127565195495,0.5182099849694414,24.79958949429171
18.0,152312.48805611298,3950.9492573745733,0.517632849775969,24.672582369363262
19.0,166931.79252525247,4126.289897375563,0.5170476792152623,24.543798430152965
20.0,181959.3415317143,4297.99447833644,0.516454670458841,24.413275472820764
21.0,197365.05681415324,4466.121929025973,0.5158540246591146,24.28105197776567
22.0,213120.00302438578,4630.7301839422225,0.5152459468443024,24.14716709927241
23.0,229196.24709432555,4791.876364276712,0.5146306457851132,24.011660649740843
24.0,245564.08842281852,4953.040545118432,0.5140540341283923,23.884932232451757
25.0,262513.27713268466,5507.76876621648,0.5138483109890181,23.84228189630908
26.0,282491.0717283326,6704.317739604967,0.5136466032537982,23.800546513454606
27.0,308400.37437595293,8514.75581245845,0.5134489698536504,23.759733167660592
28.0,342931.09947592847,10911.90369550105,0.5132554682208011,23.71984866468911
29.0,388568.9552273878,13869.324604603824,0.5130661542756054,23.680899536351816
30.0,447604.1635300779,17361.3140035518,0.5128810824144399,23.64289204464634
31.0,522139.95069639274,21362.88945727965,0.5127003054977981,23.60583218580793
32.0,614101.0493357129,25849.77971432179,0.5125238748402512,23.569725694552986
33.0,725241.6109649977,30798.41499590272,0.5123518401989274,23.534578047946805
34.0,857153.3526420331,36185.9158009053,0.512184249764911,23.500394469627768
35.0,1011273.3143393075,41990.08236391376,0.5120211501537716,23.46717993375311
36.0,1188891.6173211408,48189.383239675786,0.5118625863981775,23.43493916913672
37.0,1391158.3693688677,54762.94567844034,0.5117086019392244,23.403676663041093
38.0,1619091.6216374862,61690.54286487612,0.5115592386196398,23.373396665148167
39.0,1873583.4505064127,68952.58508510023,0.5114145366762178,23.34410319124187
40.0,2155407.5806170646,76530.10564013939,0.5112745347386282,23.315800027682652
41.0,2465225.728169594,84404.75107769648,0.5111392698197034,23.288490734512614
42.0,2803593.8721968452,92558.76960872952,0.5110087773130323,23.262178649447094
43.0,3170967.233660487,100975.00387059874,0.5108830909838614,23.236866890765878
44.0,3567709.277474127,109636.8689295345,0.5107622429791888,23.212558362766238
45.0,3994093.7685448183,118528.35569199569,0.510646263799745,23.189255755835294
46.0,4450313.713758791,127634.0041225567,0.5105351823272334,23.166961553805738
47.0,4936485.193662189,136938.6993849805,0.5104290258031692,23.14567803476753
48.0,5452685.961411956,146681.25863667758,0.5103278198339637,23.125407274629044
49.0,6001646.061439287,158216.53953537112,0.5102315884038608,23.106151152893485
50.0,6593095.722912896,173118.92422959194,0.5101403538534146,23.087911352295787
51.0,7243750.400747977,192847.39414951054,0.5100541368889765,23.070689363125318
52.0,7976570.268842978,218750.47272307775,0.509972956583926,23.054486486138916
53.0,8820064.439896118,252071.2322650008,0.5098968303802511,23.039303835360126
54.0,9807641.263358893,293952.1770761023,0.509825774091074,23.025142340837924
55.0,10976994.040792074,345440.0035793612,0.5097598019034749,23.01200275127437
56.0,12369542.131913833,407490.1596160345,0.509698926381661,22.999885636557988
57.0,14029891.574289061,480971.3584310192,0.5096431584710827,22.988791390225646
58.0,16005349.857714936,566669.8815657042,0.5095925075028392,22.978720231823388
59.0,18345465.983487625,665293.7600035991,0.5095469811980532,22.969672209101635
60.0,21101603.662924964,777476.8586139308,0.50950658567365,22.96164720021127
61.0,24326557.555574346,903782.7867662993,0.5094713254485844,22.954644915807297
62.0,28074182.50337366,1044708.6730992759,0.5094412034491125,22.948664900884424
63.0,32399074.38481826,1200688.8276623297,0.5094162210168741,22.943706536785548
64.0,37356248.81113907,1372098.2668338746,0.5093963779148439,22.939769042807335
65.0,43000874.72711437,1559256.0830300732,0.5093816723354678,22.936851477922133
66.0,49388021.211110644,1762428.735500232,0.509372100909563,22.934952742418286
67.0,56572413.336283505,1981833.228261774,0.509367658715366,22.934071579394413
68.0,64608229.70848424,2217639.984587384,0.5093683392835596,22.934206575735985
69.0,73548928.60381639,2469975.9213177026,0.5093741346145156,22.935356164188377
70.0,83447037.10919707,2738927.0359772304,0.5093850351767336,22.937518623338732
71.0,94354020.21247572,3024721.9395330893,0.5094010299305758,22.940692080085118
72.0,106322814.19260861,3329661.694129735,0.5094221063262971,22.94487450931623
73.0,119420776.89472193,3659680.6169930184,0.5094482503253505,22.95006373590845
74.0,133746385.46232401,4024134.6052625836,0.5094794464068887,22.956257434987204
75.0,149443931.98313415,4435427.864969298,0.5095156775797839,22.96345313263678
76.0,166716141.39998665,4908664.965302274,0.5095569253954484,22.97164820660126
77.0,185834807.51735774,5461327.133660495,0.5096031699604378,22.98083988682264
78.0,207149634.99266195,6112970.78328256,0.5096543899494221,22.991025255893813
79.0,231095443.98966667,6884947.150539952,0.5097105626185087,23.002201249427138
80.0,258197883.13693014,7800142.06491031,0.5097716638189069,23.014364656340287
81.0,289077787.603452,8882734.682548977,0.509837668010929,23.027512119061072
82.0,324454309.07838553,10157974.304172644,0.5099085482783172,23.041640133653008
83.0,365146936.5978268,11651974.22910388,0.5099842763428898,23.056745049863487
84.0,412076518.25897294,13391521.714083983,0.5100648225794975,23.072823071096447
85.0,466265386.09390795,15403903.1372221,0.5101501560312826,23.089870254311524
86.0,528836679.0469797,17716743.521380898,0.5102402444252322,23.107882509851684
87.0,601012949.8196522,20357859.522243474,0.5103350541880105,23.12685560120073
88.0,684114136.7000083,23355125.144683823,0.5104345504620569,23.146785144671927
89.0,779554993.4807596,26736349.324666794,0.5105386971220008,23.167666609037763
90.0,888842011.9338084,30529164.691266406,0.5106474567913005,23.18949531509201
91.0,1013569972.2454958,34760926.75017585,0.510760790859313,23.21226643517513
92.0,1155417988.5018911,39458623.07833919,0.5108786594979166,23.23597499255175
93.0,1316145315.396032,44648791.612735845,0.5110010216792222,23.26061586083947
94.0,1497587184.419064,50357454.51659633,0.5111278351937192,23.286183763421562
95.0,1701649964.1287532,56611195.6016419,0.5112590566674807,23.312673272644446
96.0,1930318039.6533053,63442636.45189334,0.5113946415788834,23.340078808879984
97.0,2185691133.3114243,70897898.08608632,0.5115345442800504,23.36839464015784
98.0,2470051702.3962193,79043302.2304239,0.5116787180122236,23.39761488087511
99.0,2785966683.3778095,87971095.52456513,0.5118271149253347,23.42773349105854
100.0,3136403677.161841,97804188.15055458,0.5119796860984582,23.458744275660905
101.0,3524874260.357721,108700305.95584981,0.5121363815547284,23.490640883008172
102.0,3955580292.142215,120855074.02813548,0.5122971502853334,23.523416804527546
103.0,4433581872.855111,134504756.14570242,0.5124619402651225,23.557065373178517
104.0,4964962296.897702,149928198.26490456,0.5126306984731879,23.591579762566596
105.0,5557000305.093458,167448264.61746237,0.5128033709125062,23.626952985889343
106.0,6218342351.599641,187432790.61505008,0.5129799026294821,23.66317789482498
107.0,6959172981.765162,210295120.53566706,0.5131602377331307,23.700247178313518
108.0,7791384154.8512,236494215.37671453,0.5133443194150139,23.738153361430978
109.0,8728736283.282433,266534390.77043197,0.5135320899695494,23.776888804306576
110.0,9787012765.992105,300964765.25867844,0.5137234908139394,23.81644570095196
111.0,10984166027.901178,340378440.27260107,0.5139184625080474,23.856816078056426
112.0,12340455695.74131,385411452.55815464,0.514116944774026,23.897991793703802
113.0,13878578209.76226,436741452.4997739,0.514318876516998,23.939964536288677
114.0,15623781087.437168,495086228.8955005,0.514524195845345,23.982725823354595
115.0,17603967474.151104,561202079.4818456,0.514732840090902,24.026267000410257
116.0,19849786806.049667,635882067.2294658,0.5149447458288605,24.070579239672057
117.0,22394720136.63346,719954128.410443,0.5151598488980178,24.115653538880405
118.0,25275146844.654083,814279069.8459367,0.5153780844214655,24.161480720238796
119.0,28530398377.885704,919748892.8748302,0.5155993868268575,24.208051429274274
120.0,32202804693.673416,1037289933.910337,0.5158236898666021,24.25535613369567
121.0,36337766995.02705,1167878010.5548441,0.5160509266377492,24.3033851221795
122.0,40983925095.10241,1312566415.9706976,0.5162810296026498,24.352128503398443
123.0,46193443526.62447,1472524800.1097474,0.5165139306090911,24.401576204943552
124.0,52022473554.610535,1649086548.386245,0.5167495609108766,24.451717972433126
125.0,58531864850.84386,1843803983.040292,0.5169878511866494,24.502543368087014
126.0,65788080412.19925,2058507479.553845,0.5172287315617412,24.55404177034299
127.0,73864330625.4689,2295369675.8747797,0.5174721316272597,24.60620237263352
128.0,82842041620.95747,2556972464.08948,0.5177179804595123,24.65901418228601
129.0,92812508321.39066,2846373563.4445677,0.5179662066413505,24.712466020228703
130.0,103878784740.39677,3167175990.706049,0.5182167382809336,24.766546519795504
131.0,116157922211.58069,3523596440.2136784,0.5184695030313277,24.821244125904627
132.0,129783312125.80136,3920530362.026591,0.5187244281112876,24.876547094857997
133.0,144907261618.76663,4363619005.848913,0.5189814403237474,24.932443493215697
134.0,161703892272.5583,4859311820.131298,0.5192404660754554,24.988921197285258
135.0,180372020596.8794,5414924448.324544,0.5195014313971573,25.04596789301478
136.0,201138267176.20554,6038698222.869743,0.5197642619618532,25.103571074983783
137.0,224260432352.01776,6739851896.172253,0.5200288831043304,25.161718046225825
138.0,250030707613.5043,7528629288.376118,0.520295219840743,25.220395918218596
139.0,278779129601.12115,8416347981.696765,0.5205631968866663,25.279591610043134
140.0,310877211742.7338,9415437732.580349,0.520832738676397,25.33929184855214
141.0,346741260261.3399,10539476186.724012,0.5211037693819532,25.399483168463945
142.0,386835980505.1483,11803224852.14022,0.5213762129309434,25.46015191174712
143.0,431678130798.03796,13222653128.257826,0.5216499930255214,25.521284228135812
144.0,481839722679.9155,14814961654.790836,0.5219250331608538,25.58286607533903
145.0,537951607133.68835,16598605385.902666,0.5222012566428047,25.644883218711854
146.0,600706929006.715,18593312833.395023,0.5224785866064604,25.707321232108324
147.0,670864089220.0266,20820133099.79479,0.5227569460341285,25.77016549822236
148.0,749250454602.4634,23301526330.517445,0.523036257772818,25.83340120861021
149.0,836766067961.6123,26061503619.548916,0.523316444552287,25.897013364859927
150.0,934387448594.3262,29125843728.87682,0.5235974290026449,25.96098677909071
151.0,1043173130302.8596,32522390283.55889,0.5238791336715944,26.02530607438337
152.0,1164269824068.6978,36281422318.2015,0.5241614810419615,26.089955686275964
153.0,1298919316889.686,40436130363.24845,0.5244443935490551,26.154919863347633
154.0,1448469132767.1965,45023175934.9342,0.5247277935975011,26.22018266821707
155.0,1614382679709.8254,50083330337.83087,0.5250116035785594,26.285727979384067
156.0,1798254608209.1265,55662238741.84246,0.525295745886827,26.351539491560743
157.0,2001826187298.8108,61811213165.83302,0.5255801429370331,26.417600718288025
158.0,2227005575707.9175,68588189490.80669,0.5258647171810011,26.483894992213607
159.0,2475890321553.0303,76058662827.38673,0.526149391123716,26.550405468007895
160.0,2750792759463.626,84296808988.94295,0.5264340873405295,26.61711512302564
161.0,3054270804285.4473,93386557163.88907,0.5267187284927345,26.684006760129282
162.0,3389158738377.881,103422830139.64783,0.5270032373446887,26.751063009075562
163.0,3758606977092.2734,114512753225.86116,0.5272875367793128,26.818266329010743
164.0,4166118494465.3345,126776959827.86514,0.52757154981472,26.885599010741345
165.0,4615597580034.353,140350934011.97165,0.5278551996200647,26.953043178850653
166.0,5111392467443.224,155386329971.0136,0.5281384095313213,27.02058079483239
167.0,5658352004731.194,172052436927.5685,0.5284211030677901,27.088193658949983
168.0,6261875935346.899,190537473923.0726,0.5287032039468572,27.15586341404884
169.0,6927976907723.308,211050147088.47018,0.5289846361011913,27.223571547430954
170.0,7663340543375.811,233820909142.83917,0.5292653236926913,27.29129939502969
171.0,8475389920996.267,259103546712.59918,0.5295451911299504,27.359028143666396
172.0,9372356793864.69,287176426912.76044,0.5298241630820083,27.426738835250504
173.0,10363346525916.963,318344036957.3093,0.5301021644954057,27.494412369712727
174.0,11458420524749.15,352938270911.8666,0.5303791206084332,27.56202950903163
175.0,12668660971212.49,391319921750.5151,0.530654956967155,27.629570880974995
176.0,14006263364907.738,433880196053.3613,0.5309295994406839,27.697016982918733
177.0,15484603428020.395,481042355243.72565,0.5312029742357827,27.764348186372622
178.0,17118337874163.18,533263801975.2806,0.5314750079133961,27.831544740699222
179.0,18923481171773.316,591038222244.7787,0.5317456274017902,27.898586778273504
180.0,20917512180808.58,654898661570.081,0.5320147600141452,27.965454318319274
181.0,23119473378533.824,725420623206.1638,0.5322823334607011,28.032127272462887
182.0,25550084227469.785,803226537850.6992,0.5325482758666192,28.098585448966286
183.0,28231878556159.32,888990319949.2775,0.5328125157839356,28.164808558451586
184.0,31189326256964.59,983443717422.0867,0.533074982209586,28.230776218593007
185.0,34449013539902.41,1087382616654.4965,0.5333356045963094,28.296467960209096
186.0,38039821047343.81,1201675764626.5732,0.533594312871559,28.36186323218195
187.0,41993118292335.59,1327273287701.1619,0.5338510374476603,28.426941407955997
188.0,46343032342809.12,1465217914865.7512,0.5341057092402546,28.491681790907617
189.0,51126672167240.1,1616656384571.0896,0.5343582596795929,28.556063620949338
190.0,56384492434402.54,1782853014046.7517,0.5346086207264743,28.620066080613753
191.0,62160583679111.11,1965204706320.0562,0.5348567248863071,28.683668301641852
192.0,68503121216695.06,2165256672834.83,0.5351025052214649,28.746849371779774
193.0,75464768755304.27,2384721513892.1255,0.5353458953684201,28.809588341481096
194.0,83103194981792.34,2625497149959.7153,0.535586829546928,28.871864231227363
195.0,91481642408035.17,2889689874500.9077,0.5358252425789309,28.933656038579386
196.0,100669497236807.88,3179635168701.155,0.5360610698966091,28.994942745812796
197.0,110743059091103.98,3497923787778.2905,0.5362942475603293,29.05570332748412
198.0,121786183013062.6,3847426678103.7993,0.5365247122683542,29.11591675831681
199.0,133891235610524.44,4231322873368.218,0.536752401371344,29.175562021252478
200.0,147159876624333.7,4653129541707.448,0.5369772528854819,29.234618115715325
201.0,161704152430697.62,5116730836424.363,0.5371992055025031,29.29306406597447
202.0,177647503644598.4,5626413346509.765,0.5374181986062926,29.350878929977004
203.0,195125933541393.78,6186896074148.262,0.5376341722792825,29.408041807876
204.0,214289330352831.72,6803370186126.454,0.5378470673206359,29.46453185149297
205.0,235302668406153.22,7481531994705.671,0.5380568252517011,29.520328273077165
206.0,258347678222905.9,8227624850880.481,0.5382633883324799,29.575410355192968
207.0,283624129352095.1,9048478359431.754,0.5384666995693563,29.629757460015384
208.0,311351778985115.3,9951551216812.027,0.538666702727183,29.68334903928202
209.0,341771886925723.44,10944979941255.006,0.5388633423410344,29.736164644468765
210.0,375149324652300.44,12037623859039.27,0.539056563723114,29.788183936514283
211.0,411774517842965.94,13239126037071.914,0.5392463129782376,29.839386697029024
212.0,451965598950185.56,14559965098407.473,0.539432537006965,29.889752837804906
213.0,496070987304536.44,16011529503219.648,0.5396151835223202,29.93926241279562
214.0,544471566932566.1,17606184799424.73,0.5397942010524764,29.987895627874916
215.0,597583979791566.5,19357361744702.54,0.5399695389550117,30.03563285291743
216.0,655863058797789.0,21279649166122.29,0.5401411474226315,30.082454632506327
217.0,719805737378654.2,23388898281850.67,0.5403089774923241,30.128341697435307
218.0,789954166346286.9,25702350868230.816,0.5404729810557456,30.173274976854096
219.0,866900086164801.5,28238765422543.992,0.5406331108628587,30.21723560887142
220.0,951289151820858.6,31018587984017.496,0.540789320536271,30.260204954120393
221.0,1043825642290743.2,34064111266767.61,0.5409415645713987,30.302164605775204
222.0,1145278519087217.5,37399690352739.734,0.5410897983516958,30.343096403789247
223.0,1256486609846175.5,41051952513865.64,0.5412339781492451,30.382982445295866
224.0,1378366564365178.8,45050056489564.22,0.5413740611369601,30.42180509833152
225.0,1511919192061185.8,49425973084594.03,0.5415100053931869,30.45954701368561
226.0,1658239134227423.8,54214788187704.88,0.541641769908447,30.496191137175387
227.0,1818523371826143.2,59455071237115.766,0.5417693145954449,30.531720723464954
228.0,1994082317425915.8,65189228882644.3,0.541892600290411,30.566119346672842
229.0,2186351662088791.8,71463969286290.97,0.5420115887673471,30.599370915811313
230.0,2396904672077905.0,78330727173628.16,0.542126242736653,30.631459684492423
231.0,2627468392632286.5,85846216294366.92,0.5422365258600247,30.662370266618343
232.0,2879937600382022.0,94072960855739.3,0.5423424027507422,30.692087646726392
233.0,3156395443534634.0,103079921491083.72,0.5424438389851993,30.72059719424817
234.0,3459130656215265.0,112943168860681.45,0.5425408011083929,30.747884675826267
235.0,3790661989611761.0,123746574352328.0,0.5426332566399403,30.773936267083307
236.0,4153760870197016.5,135582651012475.12,0.542721174085838,30.798738567313272
237.0,4551478751293905.0,148553319551710.25,0.5428045229395285,30.822278608806037
238.0,4987177595058951.0,162770917949123.88,0.5428832736982239,30.84454387307382
239.0,5464559620841389.0,178359090226500.25,0.5429573978623339,30.86552229908164
240.0,5987707264488565.0,195453934640821.75,0.5430268679522174,30.885202298959758
241.0,6561116585991091.0,214205096763643.4,0.5430916575107348,30.90357276722964
242.0,7189746155596007.0,234777026107170.3,0.5431517411163105,30.92062309394399
243.0,7879057883054038.0,257350357449914.3,0.5432070943919975,30.936343176352196
244.0,8635072954421264.0,282123279238350.9,0.5432576940129856,30.950723428467963
245.0,9464424981768984.0,309313269585112.25,0.5433035177228018,30.963754795297493
246.0,1.037442096097606e+16,339158645510141.0,0.5433445443363464,30.975428759317325
247.0,1.1373112033265274e+16,371920676543711.06,0.5433807537608121,30.98573735581707
248.0,1.2469359022000688e+16,407885479279986.6,0.5434121269982228,30.99467317828652
249.0,1.3672923861992132e+16,447366486738085.2,0.5434386461662429,31.002229392218155
