Time,J,A,S,tau
0.0,100.0,100.0,0.25577574140021475,25.0
1.0,593.1214644026991,196.9412469904953,0.2568292171214286,25.181283889205545
2.0,1454.7724791040746,292.74190022311063,0.257876284103751,25.359584102780463
3.0,2668.5792055801317,387.42483406879,0.2589163634894698,25.534845261817157
4.0,4218.668569017014,481.0132643552594,0.25994887968220526,25.707016258182872
5.0,6089.640029959918,573.5296320149316,0.2609732413755917,25.87604672600496
6.0,8266.543428094692,664.9956089526255,0.2619888417666976,26.041887043612565
7.0,10734.856810611118,755.4321037452147,0.26299505879470647,26.204488335944404
8.0,13480.466215637534,844.8592667220521,0.26399125541600554,26.36380247699899
9.0,16489.643482529544,933.2964969119487,0.26497677993788776,26.519782091252903
10.0,19749.036496597615,1020.7624428631643,0.2659509663558423,26.672380556839627
11.0,23245.635737151457,1107.2750147490233,0.26691313476949396,26.821552006967522
12.0,26966.776745901185,1192.8513800659734,0.26786259178178656,26.96725133426824
13.0,30900.115934948048,1277.507973632866,0.26879863101455326,27.109434191244368
14.0,35033.60629423876,1361.260505849166,0.26972053362260107,27.248056993201637
15.0,39355.504129298446,1444.1239569011193,0.2706275687971571,27.383076924399052
16.0,43854.3380232161,1526.112589852735,0.27151899440166666,27.514451939523514
17.0,48518.9133152694,1607.239949072005,0.27239405760413277,27.64214076713981
18.0,53338.282628045345,1687.5188704678158,0.2732519955461468,27.76610291524852
19.0,58301.75687119862,1766.9614790966582,0.2740920360647086,27.886298674438308
20.0,63398.86969335484,1845.579203616363,0.2749133984695765,28.002689122128572
21.0,68619.40848871067,1923.3827624301362,0.2757152942615704,28.11523613364877
22.0,73953.3606283021,2000.3821893549875,0.2764969280657434,28.22390238162743
23.0,79390.93853462383,2076.5868196654924,0.2772574984226974,28.32865135249085
24.0,84922.55369672031,2152.005313783823,0.2779961988278365,28.429447336669487
25.0,90538.81177316426,2226.645659441894,0.27871221862229595,28.526255438593864
26.0,96230.56123517691,2300.515141622531,0.27940474383627606,28.619041611002224
27.0,101988.79764527261,2373.620391530334,0.2800729584688583,28.707772642826313
28.0,107804.69403099587,2445.967392377849,0.28071604549163837,28.792416150961703
29.0,113668.11965472788,2519.6750430960965,0.2811536331880761,28.84470697700511
30.0,119650.95576142294,2685.1783233773936,0.2804440759688548,28.71745861999137
31.0,126259.17234227096,2986.5037537229437,0.27972229271127697,28.589767601587106
32.0,134065.21584299303,3419.718164259208,0.27898853467628737,28.461693879539766
33.0,143600.6168771469,3980.941526423954,0.27824306672100474,28.33329623929261
34.0,155356.87157558976,4666.343860456304,0.27748616687340333,28.204632276509695
35.0,169786.4261157881,5472.14212166421,0.2767181258576232,28.075758385477858
36.0,187303.6336532269,6394.597241883438,0.2759392466045328,27.94672975024834
37.0,208285.7204489529,7430.011288226513,0.2751498437334003,27.817600339759114
38.0,233073.63498010157,8574.724972584665,0.274350243014543,27.688422906037715
39.0,261973.03847209315,9825.115064412817,0.27354078081655425,27.559248984935497
40.0,295255.36837314913,11177.591854228116,0.27272180351854886,27.430128901878177
41.0,333158.47878766916,12628.59754380784,0.2718936669449431,27.301111776096665
42.0,375888.0363760343,14174.60344285019,0.271056735740832,27.172245532771477
43.0,423618.1267674978,15812.108694319808,0.27021138281050244,27.043576907857524
44.0,476492.33212846366,17537.638616110686,0.2693579886688235,26.915151466382117
45.0,534624.813658263,19347.742945198897,0.2684969408441386,26.787013614153093
46.0,598100.9593079571,21238.995233481248,0.26762863330067926,26.6592066067905
47.0,666979.0052546343,23207.99067793825,0.26675346575791015,26.531772578044368
48.0,741290.8577174176,25251.34517717081,0.2658718431375795,26.404752545476835
49.0,821042.9045046256,27365.695911512354,0.26498417492551946,26.278186442171727
50.0,906217.2141149777,29547.699821680042,0.26409087463079434,26.152113119652427
51.0,996772.3367478302,31794.033848021725,0.26319235921406287,26.026570358125344
52.0,1092645.3451212598,34101.39267787344,0.2622890484009262,25.90159491484605
53.0,1193752.5239111336,36466.48977015293,0.2613813641767567,25.777222542154153
54.0,1299988.5827979932,38886.06424693146,0.26046973041717475,25.653487952190158
55.0,1411229.20750275,41364.28401781541,0.25955457202369964,25.530424915449775
56.0,1527474.1934202006,44026.85088997568,0.25863631462970876,25.40806622250744
57.0,1649494.4426877182,47090.34284475824,0.25771538405812966,25.286443722916385
58.0,1779006.1148171718,50761.070687710366,0.25679220582714757,25.165588341720255
59.0,1918557.5479835551,55232.29651756837,0.25586720468432184,25.04553009736315
60.0,2071416.776577043,60684.43203138682,0.25494080415770554,24.926298120049704
61.0,2241464.0489684977,67285.23050374015,0.25401342612505823,24.807920668898415
62.0,2433089.1074721874,75189.99660643359,0.2530854904024336,24.690425149550794
63.0,2651093.480183218,84541.80083110553,0.25215741435210975,24.573838131207435
64.0,2900599.4186596745,95471.69484711603,0.25122961250676373,24.45818536291735
65.0,3186961.695489983,108098.94656697703,0.2503024962168013,24.343491790112154
66.0,3515687.395739339,122531.27482578659,0.24937647331285095,24.229781570326523
67.0,3892360.3868626426,138865.09819223388,0.24845194778889346,24.11707808885194
68.0,4322567.278645125,157185.78800206803,0.2475293195026669,24.005403973363855
69.0,4811838.111003239,177567.93625496954,0.2466089838938031,23.894781109310898
70.0,5365582.775952986,200075.64496895278,0.245691331728366,23.785230654983383
71.0,5989035.485289265,224762.79393224293,0.24477674884448541,23.676773054276445
72.0,6687213.108741499,251673.35033718363,0.24386561593182912,23.569428052311338
73.0,7464858.93797439,280841.6620857145,0.24295830831115,23.463214706928753
74.0,8326420.036732481,312292.8091123897,0.24205519576537185,23.35815140627779
75.0,9276002.801919678,346042.8773020192,0.24115664232657053,23.254255877267763
76.0,10317348.648047047,382099.31763213786,0.2402630061295649,23.151545200929597
77.0,11453807.64344005,420461.3015164156,0.23937463927323835,23.050035825951202
78.0,12688313.31103963,461120.5849463486,0.23849188766186857,22.949743578710358
79.0,14023429.235203028,504155.2678622261,0.23761509092767494,22.85068368019883
80.0,15462070.617510185,549938.0641146641,0.2367445822973339,22.75287075645717
81.0,17008921.727656096,599169.5029967953,0.235880688476085,22.656318848122353
82.0,18671719.43146294,652836.3781337175,0.23502372961161663,22.561041426631768
83.0,20462274.300303593,712175.4254324673,0.2341740191925177,22.467051403529997
84.0,22397230.077215254,778636.4582107291,0.23333186401065886,22.374361144357408
85.0,24498572.44257524,853848.7217173789,0.23249756410955,22.28298247992494
86.0,26793978.58864022,939588.6257978135,0.23167141273316721,22.192926717302395
87.0,29316947.806493815,1037748.8813523063,0.2308536963197446,22.104204653173596
88.0,32106751.384686254,1150310.2754864623,0.23004469447380319,22.01682658459654
89.0,35208318.73671721,1279314.740551939,0.2292446799479155,21.93080232025686
90.0,38671938.81506612,1426840.3803851719,0.22845391866179082,21.846141193390647
91.0,42552845.374851085,1594978.63685044,0.22767266969431002,21.762852072152043
92.0,46910824.49475397,1785812.8292312168,0.22690118529481806,21.680943371120197
93.0,51809655.20340913,2001398.91148489,0.2261397109214879,21.60042306372581
94.0,57316499.90197064,2243747.8487775563,0.22538848525040298,21.52129869232216
95.0,63501382.46085468,2514809.556319502,0.22464774021255582,21.443577379869975
96.0,70436518.54466268,2816458.9947757553,0.2239177010473106,21.367265841892866
97.0,78195619.22539541,3150483.450737642,0.22319858632055908,21.29237039595004
98.0,86853395.12649654,3518571.696962907,0.2224906079973065,21.218896974243382
99.0,96484780.19451168,3922304.4997625262,0.22179397148083133,21.146851133502768
100.0,107164483.07302064,4363170.1574401455,0.22110887567687465,21.07623806638754
101.0,118966554.10954514,4842800.757929503,0.22043551304095926,21.007062611287793
102.0,131965553.63512404,5363412.045813924,0.2197740696718268,20.93932926455513
103.0,146239638.55925998,5928210.568080142,0.21912472534424968,20.873042189219913
104.0,161874709.185774,6541712.623862454,0.21848765359142772,20.8082052258496
105.0,178969725.92427447,7209978.187741985,0.2178630217964087,20.74482190380774
106.0,197642596.69960698,7940786.911731839,0.21725099124320324,20.68289545015828
107.0,218036023.52141,8743747.965635382,0.2166517171945953,20.62242879964085
108.0,240323361.2209499,9630347.594177926,0.2160653489907092,20.563424605449775
109.0,264713747.83936015,10613967.477519007,0.21549203009916226,20.505885247336714
110.0,291457571.57217795,11709839.148704626,0.21493189822525607,20.449812842594646
111.0,320850104.0947318,12934987.094715826,0.21438508536651124,20.395209253926364
112.0,353235900.37985045,14308121.066258075,0.21385171791959734,20.34207609980333
113.0,389010610.4595993,15849524.943626042,0.2133319167409701,20.290414762233798
114.0,428624179.0374122,17580908.33126925,0.21282579724968892,20.24022639649169
115.0,472580689.00936466,19525260.70751317,0.2123334694933453,20.19151193874229
116.0,521440411.9876098,21706679.797246467,0.21185503824606494,20.14427211514167
117.0,575817752.5692706,24150207.495819435,0.21139060307892818,20.09850744927801
118.0,636382308.7182701,26881649.18487931,0.21094025845258108,20.054218270646253
119.0,703855143.4943445,29927404.858684592,0.21050409379137272,20.011404721864775
120.0,779009062.1943771,33314295.002891935,0.2100821935701097,19.97006676653306
121.0,862663618.2057943,37069530.86213308,0.20967463739116854,19.930204196186217
122.0,955685867.7349924,41221098.85571133,0.2092815000650214,19.891816637545503
123.0,1058988155.0474699,45798635.71890811,0.20890285168962425,19.854903559177217
124.0,1173535778.6839147,50834658.584366165,0.20853875772442124,19.81946427814691
125.0,1300353915.2956033,56366021.3944379,0.2081892790720966,19.785497966379882
126.0,1440546627.8385406,62435518.7804298,0.20785447214592861,19.753003656747495
127.0,1595313119.2404165,69093517.46579468,0.207534388943053,19.72198024871401
128.0,1765979610.871189,76399541.4933531,0.20722907712988303,19.69242651468897
129.0,1954025609.59253,84423870.39221357,0.2069385800825875,19.664341104349866
130.0,2161120982.193358,93248849.97545579,0.2066629369937365,19.637722551073917
131.0,2389165082.65092,102970266.39729814,0.20640218290107265,19.612569275827003
132.0,2640321937.1332264,113698353.20741768,0.20615634877575756,19.588879592407093
133.0,2917069723.4732833,125558716.85458373,0.2059254615821856,19.566651712084724
134.0,3222234235.5590205,138693116.36773008,0.2057095443192975,19.545883747082502
135.0,3559037434.7773542,153259863.43834594,0.2055086161132064,19.52657371568126
136.0,3931137351.9715934,169434324.68037888,0.20532269223511115,19.50871954494766
137.0,4342662346.121601,187408953.41064078,0.20515178418550922,19.492319074953407
138.0,4798261859.223048,207393350.68921447,0.20499589973528815,19.477370062056753
139.0,5303125587.556964,229614144.96992025,0.20485504296546292,19.4638701814504
140.0,5863032538.096906,254314592.43572348,0.204729214343282,19.451817030983523
141.0,6484372345.286299,281754483.48676527,0.20461841073101203,19.44120813278604
142.0,7174172284.752915,312210153.8993475,0.2045226254631846,19.43204093646894
143.0,7940142421.634467,345975585.4061584,0.2044418483695239,19.4243128211161
144.0,8790684614.2469,383364549.9916837,0.2043760658130411,19.41802109694251
145.0,9734964936.287748,424713877.6870848,0.20432526074790305,19.413163007882662
146.0,10782948926.100063,470388411.5556704,0.20428941272129078,19.40973573219039
147.0,11945485953.363873,520786672.60746217,0.20426849794147253,19.40773638466853
148.0,13234422706.287949,576348290.512608,0.20426248928375518,19.40716201743216
149.0,14662695630.609497,637562058.2808006,0.20427135632732102,19.408009620771477
150.0,16244529411.832144,704974891.941642,0.20429506539391726,19.41027612455258
151.0,17995579743.216854,779202055.9496481,0.20433357954529943,19.413958397900753
152.0,19933173305.035763,860936830.7428267,0.2043868586405636,19.419053250528933
153.0,22076563958.26462,950961990.218711,0.20445485932699142,19.425557432335836
154.0,24447170830.390934,1050160172.5394516,0.20453753507619446,19.4334676336056
155.0,27068958530.621376,1159525008.3969011,0.2046348362034806,19.44278048525742
156.0,29968701111.34719,1280172537.1825933,0.20474670986367297,19.453492557757457
157.0,33176410481.828278,1413350953.652183,0.20487310009634235,19.465600361606008
158.0,36725716891.45874,1560452408.0518851,0.20501394780466356,19.479100345869618
159.0,40654245657.02922,1723021931.9348125,0.205169190790849,19.493988897849192
160.0,45004164559.06558,1902767720.1301777,0.20533876375717713,19.510262342220273
161.0,49822509815.76369,2101570729.228902,0.20552259830307912,19.527916939354334
162.0,55161799828.77205,2321492898.402025,0.2057206229566958,19.546948884983493
163.0,61080462687.37506,2564788967.974183,0.2059327631468217,19.567354307852856
164.0,67643345135.81641,2833916260.841287,0.20615894123605633,19.5891292689286
165.0,74922407351.36519,3131549976.1991196,0.20639907650609693,19.612269759508038
166.0,82997107360.67188,3460600447.6278377,0.20665308515854416,19.6367716991448
167.0,91955306387.38834,3824233622.5713024,0.20692088033194317,19.662630934497393
168.0,101893811746.70549,4225899991.9267316,0.20720237207192296,19.689843236320144
169.0,112919263351.49417,4669363829.194168,0.20749746736057673,19.718404298265813
170.0,125149209437.61572,5158744036.176041,0.20780607008945381,19.748309734067494
171.0,138712884147.10468,5698557571.726077,0.20812808106592645,19.77955507526285
172.0,153752844937.72946,6293769971.4497385,0.2084633980158264,19.812135769230682
173.0,170426011572.57877,6949856877.738415,0.20881191555654155,19.846047175761807
174.0,188905503962.09616,7672864024.936399,0.20917352522130378,19.88128456548841
175.0,209382548254.03372,8469484765.969415,0.20954811542414362,19.917843116275264
176.0,232068199672.60333,9347134508.297194,0.20993557147274852,19.95571791091646
177.0,257196299607.02155,10314036522.811565,0.21033577555793373,19.99490393437613
178.0,285025422369.65656,11379316841.10978,0.21074860673387832,20.035396070193887
179.0,315842330026.41693,12553093635.6731,0.21117394093601716,20.077189098536486
180.0,349965044670.76465,13846590200.699274,0.21161165094338297,20.120277692001572
181.0,387746052289.2668,15272233604.019667,0.21206160639740562,20.164656413395694
182.0,429577056182.6261,16843772752.753862,0.21252367378091452,20.210319712234103
183.0,475892043423.68585,18576398721.60402,0.2129977164087907,20.257261921229155
184.0,527172969942.2694,20486859695.137802,0.21348359443837453,20.3054772539191
185.0,583954057008.6947,22593607563.024612,0.21398116483550816,20.354959800168004
186.0,646826982104.9374,24916921945.06457,0.21449028139731874,20.40570352403737
187.0,716447748395.682,27479073325.115047,0.2150107947249298,20.45770225965981
188.0,793541067677.5967,30304485784.446194,0.21554255222653887,20.510949708021073
189.0,878909113913.702,33419909648.837303,0.21608539812039737,20.565439434121117
190.0,973437187378.8635,36854644090.65586,0.2166391734100579,20.621164862459196
191.0,1078102099718.9662,40640737622.735985,0.21720371590935358,20.678119274968154
192.0,1193981914476.2883,44813264887.69742,0.21777886021373985,20.736295806413395
193.0,1322262845021.8828,49410599848.67666,0.2183644377165564,20.79568744162103
194.0,1464252997946.3901,54474730682.9077,0.2189602766059955,20.856287012141024
195.0,1621390566635.601,60051643811.07961,0.21956620185399126,20.918087191985837
196.0,1795258305080.0503,66191687218.69945,0.22018203524201774,20.981080495553968
197.0,1987597880246.1821,72950061823.65031,0.22080759533663666,21.04525927274079
198.0,2200322286710.974,80387287347.81845,0.22144269751846396,21.110615706681394
199.0,2435537900663.6826,88569760672.64482,0.22208715397603507,21.177141809911056
200.0,2695557583843.481,97570387851.91673,0.22274077371158738,21.24482942057977
201.0,2982925991532.037,107469193577.31174,0.22340336256690926,21.313670200240864
202.0,3300440930828.839,118354121832.18846,0.2240747232092592,21.3836556289035
203.0,3651175989058.306,130321757339.29063,0.22475465517141743,21.454777003236572
204.0,4038515068900.0713,143478217195.32336,0.2254429548469284,21.52702543226045
205.0,4466173449188.087,157940087128.4801,0.22613941551472952,21.600391834181554
206.0,4938239913629.095,173835346834.4715,0.22684382736551206,21.674866933882477
207.0,5459207427215.964,191304548067.99335,0.22755597750384746,21.750441258152343
208.0,6034011756093.348,210501837586.5458,0.22827564999760072,21.827105134180016
209.0,6668082503938.274,231596274894.09567,0.2290026258801744,21.904848684837678
210.0,7367375445280.427,254773126004.96405,0.22973668319472157,21.983661826170998
211.0,8138438392574.8955,280235210838.68567,0.23047759702324305,22.06353426441725
212.0,8988452633130.33,308204572907.5189,0.23122513950957993,22.144455491576565
213.0,9925295495503.297,338923925040.3677,0.23197907991738448,22.22641478395256
214.0,10957611167842.857,372658594791.35065,0.23273918464562549,22.309401197076856
215.0,12094859851686.312,409698340951.1986,0.2335052172921669,22.393403563766533
216.0,13347416224520.848,450359400418.2704,0.2342769386896315,22.478410490486997
217.0,14726623974684.648,494986914074.5747,0.23505410695267226,22.564410353327943
218.0,16244895805673.094,543957107710.71185,0.23583647754487155,22.65139129627878
219.0,17915807445745.465,597680275100.2394,0.23662380331413235,22.73934122581818
220.0,19754176231318.516,656603466259.0222,0.23741583457471735,22.828247809313364
221.0,21776204783078.496,721213732085.5319,0.238212319155574,22.918098470531795
222.0,23999555387441.875,792041764958.97,0.23901300247397822,23.00888038597165
223.0,26443509681456.7,869665328080.1919,0.23981762761321182,23.100580482483906
224.0,29129091585437.99,954713881790.3202,0.2406259353841179,23.193185431525823
225.0,32079198610925.707,1047872643354.611,0.2414376644245982,23.28668164752726
226.0,35318808138708.73,1149887744636.3528,0.24225255126724013,23.38105528234496
227.0,38875085770193.99,1261571644320.4324,0.2430703304400159,23.476292221776482
228.0,42777636148049.45,1383808490187.7402,0.2438907345584107,23.57237808208799
229.0,47058664906267.81,1517561102335.3152,0.2447134944177854,23.669298203867967
230.0,51753197141348.08,1663876988831.3447,0.2455383391102009,23.76703764988386
231.0,56899367016699.53,1823896255694.6467,0.24636499611831436,23.865581198248037
232.0,62538582918544.07,1998859347926.4343,0.24719319144242358,23.964913338839093
233.0,68715909243508.28,2190115176686.4768,0.248022649712201,24.065018268269828
234.0,75480278303874.19,2399131177555.56,0.24885309431228572,24.165879883199036
235.0,82884844735255.67,2627501949165.2495,0.24968424751718168,24.267481777155645
236.0,90987375261728.2,2876960900526.391,0.25051583061757343,24.369807232166444
237.0,99850506788235.38,3149390914196.5547,0.251347564071558,24.472839214755908
238.0,109542320011164.45,3446836215585.564,0.2521791676411749,24.576560368941685
239.0,120136576011231.06,3771516634321.233,0.25301036055232534,24.680953008572573
240.0,131713254412121.28,4125840000910.333,0.2538408616498872,24.785999112478915
241.0,144359148075960.53,4512417356182.168,0.25467038955616705,24.891680316109987
242.0,158168251772688.6,4934080092925.545,0.2554986628458741,24.997977902999242
243.0,173242320407428.22,5393895656600.885,0.25632540021845884,25.104872798873014
244.0,189691625036276.56,5895185676481.166,0.2571503206727797,25.21234556286298
245.0,207635484913240.1,6441547439412.509,0.25797314369920926,25.32037637718069
246.0,227202888898182.78,7036873483580.1,0.25879358946699266,25.42894504029477
247.0,248533404761301.5,7685373492377.147,0.25961137901396614,25.538030957653408
