Time,J,A,S,tau
0.0,100.0,100.0,0.599796102537992,25.425999187952147
1.0,120.25308892932605,119.3936589897432,0.5971980160840646,26.25392057016698
2.0,147.89119108414863,136.7102784895972,0.5944701331850936,27.098214822898242
3.0,181.67948407999498,152.14845628701292,0.5916303439804708,27.957316132174103
4.0,220.54624632855834,165.8929543394643,0.5886950252286656,28.829829075617912
5.0,263.56488946658106,178.1164681132719,0.5856793531773479,29.714442417601674
6.0,309.93830545942603,188.97865834467737,0.5825972063627564,30.60993752225486
7.0,358.98414048834377,198.62577691746955,0.5794611294930371,31.515192264927904
8.0,410.12104508913467,207.19076439874306,0.5762823456538748,32.42918132396438
9.0,462.8561184359387,214.79368320096552,0.573070802788347,33.35097384395945
10.0,516.7734708419077,221.54239711022663,0.5698352451461073,34.27972912861821
11.0,571.5239791537889,227.53339749605013,0.5665832994738215,35.21469110561402
12.0,626.8161598394468,232.85271761376927,0.5633215698166425,36.15518200462545
13.0,682.4083444298107,237.57682352742006,0.5600557299048305,37.100596102982635
14.0,738.1014710139237,241.77357081378398,0.5567906215333484,38.050392871520046
15.0,793.7330241672755,245.50307785535864,0.5535303443358128,39.004090659143394
16.0,849.1716618252107,248.8185734959099,0.5502783424473378,39.96126049102594
17.0,904.3127467865506,251.76714127595355,0.5470374806698124,40.92152058707741
18.0,959.0742668722775,254.39045333621243,0.5438101188853182,41.8845308999187
19.0,1013.3934873946795,256.72540129519933,0.5405981759715801,42.84998838569428
20.0,1067.2242177780206,258.8046212038198,0.5374031833937234,43.81762306054419
21.0,1120.5340783327947,260.65707294738746,0.534226342741967,44.78719357854133
22.0,1173.302529563958,262.30845537816424,0.531068567768807,45.75848406297645
23.0,1225.5188096576928,263.781687855738,0.5279305310805226,46.73130038582515
24.0,1277.1808502869121,265.09713704778693,0.524812688387048,47.705468415397185
25.0,1328.2938333281634,266.27296829816186,0.5217153130666744,48.68083126127797
26.0,1378.8685684346826,267.325593453199,0.5186385365058191,49.65724575635629
27.0,1428.9215200790197,268.2696128725907,0.5155823481411795,50.63458288046284
28.0,1478.4731912476664,269.1182986790892,0.512546637159377,51.61272391533218
29.0,1527.547746909684,269.8837029533434,0.5095312036061271,52.59155957531881
30.0,1576.172888264172,270.5766827574245,0.506535765556142,53.57098966855797
31.0,1624.3784997931743,271.2073566757925,0.5035599926529023,54.55091956706824
32.0,1672.1973360420984,271.78488656685136,0.5006034972563626,55.53126164993807
33.0,1719.6636844448126,272.31793939893385,0.4976658644855331,56.51193181631089
34.0,1766.8141739286723,272.8144698972453,0.4947466467241407,57.492850747054085
35.0,1813.6864927668473,273.2821401786068,0.49184538504558467,58.47394095261495
36.0,1860.320334421016,273.7281304560819,0.4889616099315269,59.45512751586942
37.0,1906.7562500848082,274.1594505042641,0.4860948505291003,60.43633626471466
38.0,1953.0366767469109,274.5828560200394,0.4832446476405831,61.41749323079111
39.0,1999.2047571826474,275.0050334844125,0.4804105486247428,62.39852427109033
40.0,2045.305464905113,275.4326410031271,0.47759213055999605,63.37935318045141
41.0,2091.384677948597,275.87236346485884,0.4747889906566164,64.3599022105674
42.0,2137.489960495023,276.331033540751,0.47200076505475463,65.34009002045536
43.0,2183.670254409932,276.81569575052816,0.4692271340758519,66.31983106917447
44.0,2229.9760082166645,277.33362297195407,0.46646781701058276,67.2990357507394
45.0,2276.459790659848,277.89259863622993,0.4637226114889485,68.27760613061524
46.0,2323.175480555846,278.50065348792015,0.460991350572822,69.25544031203607
47.0,2370.1800331434374,279.16668932037646,0.45827398293172916,70.23242317317037
48.0,2417.5316746321955,279.8999325413819,0.4555704990778887,71.20843470391931
49.0,2465.2926510660386,280.71077506197065,0.4528810318012499,72.18333771652198
50.0,2513.5270032744434,281.61024587760886,0.45020578996573407,73.15698577409704
51.0,2562.3032677404267,282.61063383016824,0.4475451282331691,74.12921408787338
52.0,2611.693033971586,283.7253196585541,0.4448995258802895,75.09984215614071
53.0,2661.7733470084086,284.9693118101252,0.44226964354690423,76.068665949226
54.0,2712.6250960481298,286.3589707604953,0.4396562912674254,77.03546202004259
55.0,2764.3364758913053,287.9128639008797,0.43706051885291686,77.99997503474664
56.0,2817.0006412415914,289.65128616213957,0.4344835625471627,78.96192480062109
57.0,2870.7198346353907,291.59723276276736,0.4319269469009859,79.92099198622165
58.0,2925.604108354512,293.7760903857917,0.42939245008984633,80.87682257414416
59.0,2981.7738517982184,296.21648314395225,0.42688219168545927,81.82901549507197
60.0,3039.361573058373,298.9504077445916,0.424398644417574,82.77712033236395
61.0,3098.5119841020846,302.0134059243371,0.4219446510725699,83.72063474388331
62.0,3159.3862738950975,305.4454092765696,0.41952351045341335,84.65899169969994
63.0,3222.1635027906395,309.29089211792336,0.4171389914021118,85.59155690614487
64.0,3287.043142017513,313.59923351925704,0.4147953686340113,86.51762309911359
65.0,3354.248522595862,318.4252568808269,0.4124974767346297,87.43640159732553
66.0,3424.031779373806,323.8297236482304,0.41025075872169514,88.34701429401379
67.0,3496.6766811552784,329.8792683750495,0.4080612573291317,89.2484940470097
68.0,3572.5047933193355,336.6468657666829,0.4059356605880937,90.13977689665484
69.0,3651.8807864644423,344.2117720305648,0.40388129313129245,91.01970208409185
70.0,3735.219097351342,352.65937448760627,0.40190609768603963,91.88701331819475
71.0,3822.991525229475,362.0807635462645,0.4000185876390625,92.74036410575724
72.0,3915.735340893415,372.57192882151804,0.3982277607097516,93.57832873501873
73.0,4014.062026464251,384.23258785401,0.3965429746562434,94.39941877830265
74.0,4118.666675719067,397.1645902433743,0.39497377912386494,95.20210604526909
75.0,4230.337772254098,411.46987562934424,0.39352970155990935,95.98485237249983
76.0,4349.96707368704,427.24800027981087,0.39221998886187776,96.74614608272881
77.0,4478.559433239646,444.5932511252461,0.39105330682839734,97.48454481829327
78.0,4617.24220700719,463.5914807135166,0.39003741131305614,98.19872289007682
79.0,4767.272643405119,484.3169279039166,0.38917881898879625,98.88751913122928
80.0,4930.043766004665,506.82917874361186,0.38848249348625086,99.54998274758492
81.0,5107.088330142006,531.1705024489044,0.3879515712457666,100.18541361194644
82.0,5300.079425323176,557.363929358723,0.38758716528498044,100.79339142172562
83.0,5510.831100443989,585.411893409253,0.3873882275903502,101.3737963836687
84.0,5741.292971930051,615.2961490196177,0.3873515450106674,101.92681040311324
85.0,5993.544290771717,646.9785750915231,0.3874718269322662,102.45290494413302
86.0,6269.785697289947,680.402941760182,0.38774189297261247,102.95281425817305
87.0,6572.329622287587,715.4974554654718,0.3881529412549421,103.4274968723594
88.0,6903.589982169475,752.1778485055283,0.38869487284701254,103.8780889440127
89.0,7266.071798228247,790.3507471395397,0.38935664466502296,104.305853564456
90.0,7662.361282008079,829.9170575279801,0.3901266237360358,104.71212999090368
91.0,8095.116790659283,870.7751450300685,0.39099291951802023,105.09828620331123
92.0,8567.060894797984,912.8236385777946,0.3919436768458829,105.46567729965297
93.0,9080.973641678338,955.9637556872663,0.39296731872359814,105.81561125201483
94.0,9639.686957715738,1000.1011044784327,0.3940527345092914,106.14932261259906
95.0,10246.080027886004,1045.1469695501967,0.3951894142853751,106.46795399412312
96.0,10903.075418905391,1091.0191251682356,0.39636753400513147,106.77254460426695
97.0,11613.635676085181,1137.6422416365901,0.39757799832826946,107.06402479010102
98.0,12380.760114471925,1184.9479607657854,0.3988124490922082,107.34321541439947
99.0,13207.481536010167,1232.8747169137027,0.40006324741499494,107.61083089451705
100.0,14096.862627197761,1281.367374016518,0.4013234367873263,107.867484840871
101.0,15051.991699410613,1330.3767338816083,0.4025866930210628,108.11369745657531
102.0,16075.978238504016,1379.858997605798,0.4038472691145487,108.3499035617638
103.0,17171.946856899343,1429.7751605069213,0.40509993398162303,108.57646139401469
104.0,18343.030626903885,1480.090411007833,0.40633991144107334,108.79366131803042
105.0,19592.3636605864,1530.7735854348055,0.4075628251847802,109.00173359986188
106.0,20923.071929958838,1581.7965855442842,0.4087646402882528,109.20085669087699
107.0,22338.263477019613,1633.13388871247,0.4099416144274764,109.39116408442972
108.0,23841.017044818404,1684.7620887345709,0.4110902527590179,109.57275065438701
109.0,25434.371076735948,1736.6594889468763,0.4122072673606313,109.74567837038151
110.0,27120.230416986044,1789.9457258487485,0.41419279257699265,109.48981158667928
111.0,28854.11815337192,1930.7365940252134,0.4294912401801777,103.73687620603994
112.0,30584.056114583775,2483.7979481821335,0.4826308016375187,85.19159945082251
113.0,33038.38101201943,3620.677416923255,0.5883382895407442,53.00266937685139
114.0,37232.14078160189,4188.118405906832,0.6222061941899437,44.14418811831404
115.0,42308.01334496957,4593.7523703489205,0.6367822111127903,40.19092977713035
116.0,48045.770834619885,4952.644114597345,0.6444673916788713,37.80517761654593
117.0,54390.20662599208,5300.68705621481,0.6486913128874654,36.15423896635262
118.0,61339.00977052396,5654.798634195683,0.650859654364466,34.91716659625469
119.0,68915.94786326059,6025.235213181627,0.6516825090584699,33.93907199017775
120.0,77161.73268839678,6419.374308632454,0.6515679113690998,33.134259091795954
121.0,86130.2664141735,6843.187256214841,0.6507716250644018,32.45078849619529
122.0,95887.04660885259,7301.900336994326,0.6494641889973244,31.85509909966329
123.0,106508.36538865662,7800.327456041906,0.6477647960151224,31.324438080298112
124.0,118081.17764498752,8343.03972749177,0.6457595062571013,30.842873551811802
125.0,130702.88956741935,8934.463555306495,0.643512258372283,30.39893430681726
126.0,144481.55160583573,9578.928640800741,0.6410714665299496,29.98421699857854
127.0,159535.74752765792,10280.695880868367,0.6384743885700301,29.592479961347667
128.0,175994.72521462713,11043.965921414552,0.6357500890377261,29.219037638675623
129.0,193998.32255812458,11872.88016996523,0.6329214365220392,28.86035793224349
130.0,213696.8019054784,12771.51487998587,0.6300066203787101,28.51376204281092
131.0,235250.75974092697,13743.869835573407,0.6270201954658056,28.177220067005777
132.0,258830.62710539717,14793.855677940692,0.6239739103389823,27.849192289826117
133.0,284616.4063315974,15925.276829049977,0.6208773192552883,27.528513566444577
134.0,312796.94366410346,17141.81365383335,0.6177382504378257,27.2143064298929
135.0,343569.21560723014,18447.00347806379,0.6145631865056012,26.905912013617524
136.0,377137.6122525265,19844.218392484905,0.6113575449902546,26.602839795267077
137.0,413707.1868355887,21345.286827687116,0.6081259068917892,26.30472763227841
138.0,453466.94348640455,23155.76540982837,0.6048722002328295,26.011310272313175
139.0,497240.97281730396,26181.37203740636,0.6015998356344737,25.722396485055487
140.0,548239.1687107468,30215.557766208753,0.5983118197600106,25.437850417382652
141.0,608709.0479263269,34883.76263873882,0.5950108424655468,25.157577511658776
142.0,680163.9533855297,40127.59887773406,0.5916993454961142,24.881513658401197
143.0,763999.2193949491,45957.06460472909,0.5883795763439433,24.609616868902076
144.0,861635.684307799,52411.62421381304,0.5850536303075176,24.34186091740205
145.0,974585.2217806736,59549.65933490488,0.5817234831578244,24.078230511574667
146.0,1104493.43254259,67444.64242838223,0.5783910165185765,23.818717645595108
147.0,1253174.8266087659,76183.51454440116,0.5750580373355314,23.563318849743734
148.0,1422643.3374463178,85865.90763087355,0.5717262928594423,23.31203314727592
149.0,1615140.5238847614,96603.6825560862,0.5683974820017816,23.064860548596172
150.0,1833161.704876898,108520.5474327691,0.5650732638848249,22.82180095590391
151.0,2079479.770325851,121751.63907861325,0.5617552642083995,22.58285338139788
152.0,2357166.491797194,136443.0028758203,0.5584450799001814,22.348015402988352
153.0,2669610.8793125665,152750.92562196395,0.5551442824359354,22.117282801189333
154.0,3020532.8099171063,170841.12569482953,0.5518544201873377,21.89064933335843
155.0,3413992.5326659335,190887.75960837404,0.5485770199658829,21.6681066113927
156.0,3854395.184583903,213072.29177142566,0.5453135879394386,21.449644048846142
157.0,4346491.002855539,237582.1597829809,0.5420656100662007,21.23524886860216
158.0,4895366.792266424,264610.27261828404,0.5388345522770579,21.024906153567493
159.0,5506393.797091871,294513.8840832299,0.5356218605101155,20.818598923054537
160.0,6185993.487776571,329051.52046381583,0.5324289600550828,20.616308225400388
161.0,6946584.622799593,370652.58995915944,0.5292572553645299,20.418013251324975
162.0,7806619.588877434,420748.07147677435,0.5261081295264035,20.22369145462343
163.0,8787871.212526387,480555.9207961637,0.522982943637451,20.033318674606182
164.0,9914835.950394012,551309.144956351,0.5198830361806481,19.8468692618087
165.0,11214660.982655259,634331.7728213124,0.5168097224127213,19.664316204342548
166.0,12717264.20531993,731083.7935339441,0.5137642937222255,19.485631251607096
167.0,14455560.404176401,843195.1338863934,0.510748017010251,19.310785035377545
168.0,16465762.727751985,972493.9591858017,0.5077621340954509,19.139747187415843
169.0,18787741.169922832,1121030.8264428964,0.504807861142835,18.97248645275585
170.0,21465419.2269111,1291098.8886987686,0.5018863881323475,18.808970798594853
171.0,24547199.168884374,1485249.8547988997,0.49899887835118484,18.649167518070325
172.0,28086382.647928942,1706305.260652605,0.49614646796048295,18.49304332985431
173.0,32141602.96055282,1957362.550187355,0.4933302655510878,18.340564471605816
174.0,36777216.975387685,2241795.5994270896,0.4905513517794708,18.191696789317934
175.0,42063657.448407926,2563249.3331192657,0.48781077903809394,18.046405821556693
176.0,48077734.85103186,2925628.325582185,0.48510957115770637,17.904656878708693
177.0,54902779.05715019,3333219.656029568,0.48244872320564575,17.766415118471674
178.0,62629426.4343143,3792720.3862317195,0.47982920124972295,17.63164561565571
179.0,71364628.89171141,4315896.146688538,0.47725194221088857,17.500313427938945
180.0,81245123.35508633,4917670.200777384,0.4747178537493499,17.372383657595968
181.0,92443893.97949997,5615058.2249395875,0.4722278142040642,17.247821509635536
182.0,105173833.73221003,6427019.304962409,0.46978267255955486,17.12659234550935
183.0,119690778.8707397,7374526.321584685,0.46738324845343987,17.008661733235137
184.0,136296491.9176093,8480737.751338892,0.46503033222190343,16.893995494047857
185.0,155341866.10781828,9771231.387127275,0.46272468498087244,16.78255974570261
186.0,177230510.06269765,11274277.729640102,0.4604670387408725,16.674320942587073
187.0,202422809.4639816,13021135.891112186,0.45825809655172683,16.56924591283425
188.0,231440430.202525,15046356.26371938,0.45609853268286343,16.467301892607388
189.0,264871329.5081681,17388073.95545989,0.45398899283116284,16.368456557536074
190.0,303375179.0857396,20088279.181233246,0.4519300943543431,16.272678051624336
191.0,347689143.229376,23193050.45230316,0.4499224265298692,16.1799350136818
192.0,398633777.2878586,26752740.02515033,0.44796655083354825,16.090196601595235
193.0,457118966.88760066,30822139.306919903,0.4460630012428726,16.003432514315623
194.0,524149858.2796057,35462069.2826192,0.4442122845579952,15.91961301171279
195.0,600839119.2321237,40746568.6064866,0.44241488073966717,15.838708932598418
196.0,688441493.5447121,46770072.93847271,0.44067124326210794,15.760691710882561
197.0,788404121.2899066,53650576.97862792,0.4389817994788822,15.685533390004073
198.0,902421495.190321,61531605.17852401,0.4373469509998539,15.61320663573515
199.0,1032492119.9787757,70583977.1373182,0.43576707407731613,15.543684747454968
200.0,1180976358.3643992,81007655.08746593,0.4342425199994368,15.476941667982494
201.0,1350655727.2376688,93033804.8985567,0.4327736154891979,15.412951992053591
202.0,1544794257.7539055,106927133.63465789,0.43136066310706134,15.351690973523018
203.0,1767202686.2647533,122988523.86291237,0.4300039416556438,15.293134531367205
204.0,2022306272.910187,141557947.72279495,0.4287037065847462,15.237259254559474
205.0,2315216971.4086266,163017615.42968577,0.4274601903951465,15.184042405885119
206.0,2651810531.85218,187795293.02139437,0.4262736030396408,15.133461924759722
207.0,3038808937.0365796,216367709.8399813,0.42514413231987375,15.08549642911029
208.0,3483868363.4876585,249263971.4757581,0.42407194427757133,15.040125216374745
209.0,3995672516.465124,287069504.9558767,0.4230571835789366,14.997328263672305
210.0,4584033586.054626,330435882.54662645,0.42209997389095893,14.957086227193509
211.0,5260021860.077897,380102218.4431925,0.42120041824852705,14.919380440855527
212.0,6036154102.3839655,436922691.12174773,0.4203585994113146,14.884192914265233
213.0,6926651344.762821,501895608.7664765,0.4195745802094952,14.851506330029626
214.0,7947765947.304067,576193017.8275774,0.41884840387743894,14.82130404045034
215.0,9118175975.10822,661190798.867111,0.41818009437463366,14.793570063636336
216.0,10459445411.872492,758499501.3519353,0.4175696566931699,14.768289079066308
217.0,11996549946.177551,869996288.55414,0.41701707715122355,14.745446422629893
218.0,13758469519.705782,997858391.108598,0.4165223236720648,14.72502808117457
219.0,15778850269.590322,1144598434.7249403,0.41608534604822006,14.70702068658284
220.0,18096739769.54898,1313101934.5677724,0.41570607619050454,14.691411509402336
221.0,20757400487.328712,1506667155.2510953,0.4153844283617426,14.678188452049444
222.0,23813207093.708595,1729047432.5123336,0.41512029939508355,14.66734004160531
223.0,27324633667.76274,1984495955.4961054,0.4149135688969131,14.658855422221242
224.0,31361336832.557076,2277813544.518782,0.41476409943445536,14.652724347148947
225.0,36003343149.287094,2614405262.5743737,0.41467173670824387,14.64893717040948
226.0,41342370260.20285,3000358588.8968377,0.414636309709734,14.64748483811335
227.0,47483346112.73083,3442550556.907777,0.41465763086440816,14.64835887944281
228.0,54546204486.00321,3948784499.614723,0.414735496160814,14.651551397306136
229.0,62668032560.18005,4527955377.4343815,0.4148696852660488,14.657055058672478
230.0,72005640948.16803,5190242683.394778,0.4150599616282875,14.664863084594765
231.0,82738622283.3137,5947330371.686475,0.41530607256701946,14.674969239927066
232.0,95072962032.91728,6812653826.073111,0.4156077493517328,14.687367822741926
233.0,109245264809.37352,7801674446.715752,0.4159647072698505,14.702053653452213
234.0,125527660877.87244,8932182919.847137,0.41637664568478605,14.719022063641248
235.0,144233460445.70316,10224632607.701162,0.41684324808504286,14.738268884604247
236.0,165723627222.03598,11702504744.468674,0.41736418212534,14.75979043560335
237.0,190414147206.6614,13392707249.595943,0.4179390996607925,14.783583511837957
238.0,218784373266.30872,15326008986.235895,0.4185676367752229,14.809645372131518
239.0,251386430327.76093,17537511559.78366,0.4192494138047199,14.837973726335388
240.0,288855771027.30634,20067164502.315376,0.41998403535759593,14.868566722449946
241.0,331922990783.8528,22960340222.456066,0.42077109033192633,14.901422933462797
242.0,381427061799.63605,26268493432.944645,0.42161015193187756,14.936541343903547
243.0,438330213909.74475,30049930588.868713,0.422500777684053,14.97392133611436
244.0,503734755977.36865,34370712860.57183,0.42344250945509815,15.01356267623527
245.0,578902188782.3699,39305714064.8465,0.42443487347181774,15.055465499903132
246.0,665275009595.8545,44939853355.7994,0.4254773803450599,15.099630297662857
247.0,764501651502.946,51369521459.25035,0.4265695250986214,15.146057900089668
248.0,878465038769.233,58704218792.64199,0.42771078720441913,15.19474946262092
249.0,1009315274604.3976,67068423850.677795,0.42890063062516126,15.245706450096243
