Time,J,A,S,tau
0.0,100.0,100.0,0.6680680041000276,17.543859649122805
1.0,1003.0866555140203,420.07835838919567,0.6675639699430014,17.452208257501468
2.0,3373.0152267159365,733.8009680543158,0.6670469408062495,17.358252674933766
3.0,7144.553135556216,1041.271682882952,0.6665170630459436,17.26201872998639
4.0,12254.100089477726,1342.5956394335258,0.6659744824495034,17.163531828708603
5.0,18639.674622009945,1637.8761864182466,0.6654193511786425,17.062818209155765
6.0,26240.901720312268,1927.214919707628,0.6648518277149209,16.959904935382017
7.0,34999.00131697075,2210.711715140643,0.6642720768044311,16.85481989164648
8.0,44856.77211012741,2488.464765585664,0.6636802693901658,16.747591775319837
9.0,55758.58359470809,2760.570606539716,0.663076582541582,16.638250089767478
10.0,67650.3580178363,3027.1241535122595,0.6624611993890369,16.526825138158394
11.0,80479.54358626305,3288.2187474479165,0.6618343090127938,16.413348011571486
12.0,94195.12548557167,3543.9461544070505,0.66119610639867,16.29785058632657
13.0,108747.60066765592,3794.396604843102,0.6605467923077708,16.18036551014531
14.0,124088.92561198451,4039.6588710984906,0.6598865731821891,16.06092619323092
15.0,140172.5571838176,4279.820221762177,0.6592156610638162,15.939566801746412
16.0,156943.58560805177,4528.081423320387,0.658615695054235,15.831344093901503
17.0,174985.64436822082,5452.276466122962,0.658438262220314,15.801111382487058
18.0,198326.39079672444,7394.618009442456,0.6582637908023729,15.771450041213315
19.0,231565.88453259374,10311.212025198512,0.6580923340666689,15.74236555678352
20.0,278977.41733499645,14159.327717778382,0.6579239442348757,15.713863236412795
21.0,344520.06844592793,18897.381825285134,0.6577586724677528,15.685948210102515
22.0,431851.12137142825,24484.922708377122,0.6575965688493867,15.658625432949753
23.0,544338.1839587215,30882.614670541312,0.6574376823717051,15.631899687438453
24.0,685071.2717540555,38052.22174671253,0.6572820609196927,15.605775585776538
25.0,856874.6372941714,45956.59143234946,0.6571297512572073,15.580257572252503
26.0,1062318.2819576708,54559.63890506212,0.6569807990124543,15.555349925475348
27.0,1303729.3521799468,63826.33040369787,0.6568352486650935,15.531056760777892
28.0,1583203.4130958726,73722.66665219021,0.6566931435328964,15.5073820324818
29.0,1902615.4688788743,84215.66555355662,0.6565545257603961,15.484329536350728
30.0,2263629.852526953,95273.3483864557,0.6564194363045635,15.461902911570242
31.0,2667711.6204709024,106864.72000323847,0.6562879149250695,15.440105643267756
32.0,3116105.7380966535,119183.37907352734,0.656160000172162,15.418941064599574
33.0,3613175.4950412163,134510.0408898967,0.6560357293795375,15.398412359446288
34.0,4176360.5221149367,156115.12010258585,0.6559151386503418,15.378522564079848
35.0,4837782.202796807,187050.8908078338,0.6557982628491639,15.359274569539947
36.0,5642776.864199588,230147.8907517978,0.6556851355929578,15.340671123770223
37.0,6648493.460132047,288024.10467892163,0.6555757892424751,15.322714833722141
38.0,7922569.350719555,363093.9925046215,0.6554702548944396,15.305408167448434
39.0,9541890.257479286,457577.24488750275,0.6553685623738216,15.288753456114822
40.0,11591414.464609936,573507.4208596435,0.6552707402269433,15.272752896004002
41.0,14163082.886871904,712740.3312734911,0.6551768157150712,15.25740855047753
42.0,17354787.446834933,876962.2182051293,0.655086814808172,15.24272235185428
43.0,21269415.958249014,1067697.7444011713,0.6550007621795835,15.228696103287643
44.0,26013958.378123645,1286317.7488982268,0.654918681200859,15.215331480559497
45.0,31698679.099794567,1534046.816621096,0.6548405939374858,15.20263003386183
46.0,38436337.2976195,1811970.6072328154,0.6547665211444079,15.190593189456179
47.0,46341466.77490892,2121080.8984915297,0.6546964822632975,15.179222251405582
48.0,55531079.36142674,2464767.7473547054,0.6546304954183476,15.168518403060451
49.0,66145481.51780445,2855334.6758910296,0.6545685774146739,15.15848270868774
50.0,78393447.0216185,3315118.097014187,0.6545107437363765,15.149116114974921
51.0,92596297.30397025,3875480.1529185865,0.6544570085444178,15.140419452399659
52.0,109225999.93535249,4575833.252746737,0.6544073846757296,15.132393436617074
53.0,128937709.37766808,5462724.790159758,0.6543618836426568,15.125038669774558
54.0,152597163.36489442,6588978.71021159,0.6543205156328544,15.11835564176317
55.0,181303354.1112405,8012891.713252562,0.6542832895096606,15.112344731408264
56.0,216406871.089653,9797481.856345657,0.6542502128129584,15.107006207600362
57.0,259524279.64046735,12009787.503853109,0.6542212917605047,15.102340230364158
58.0,312548890.1748283,14720214.51903655,0.6541965312497319,15.098346851865983
59.0,377658248.89253056,18001929.534335878,0.6541759348600156,15.09502601735953
60.0,457318661.2358533,21930297.284814365,0.6541595048554089,15.092377566069745
61.0,554287068.07811,26582359.821476992,0.6541472421878732,15.090401232018216
62.0,671610464.832862,32036358.629065104,0.6541391465008053,15.089096644772448
63.0,812623467.3362324,38373183.41331127,0.6541352161334308,15.08846333016732
64.0,980967159.295194,45692505.66314049,0.6541354481248591,15.088500710900728
65.0,1180709940.2676802,54142733.40119809,0.6541398382195603,15.089208107150116
66.0,1416606711.198287,63949447.56168954,0.6541483808725751,15.09058473706263
67.0,1694481286.7277722,75439836.98619735,0.6541610692554213,15.092629717219197
68.0,2021705729.958857,89063392.45638023,0.6541778952625252,15.09534206302847
69.0,2407763516.255574,105409268.73321235,0.6541988495176438,15.09872068904396
70.0,2864869635.8389134,125220424.79399471,0.654223921381503,15.102764409269206
71.0,3408643738.815738,149405086.46411806,0.6542530989587108,15.10747193732763
72.0,4058806867.5242763,179045414.95324183,0.6542863691065437,15.112841886679668
73.0,4839907659.124627,215404093.695999,0.6543237174423793,15.118872770650793
74.0,5782045430.588429,259928491.9314156,0.6543651283535477,15.125563002560035
75.0,6921603810.8761635,314253264.31123626,0.6544105850053298,15.13291089561397
76.0,8301962084.830393,380200863.96239096,0.6544600693517657,15.140914662944184
77.0,9974200025.265833,459780921.4189555,0.6545135621442977,15.149572417378513
78.0,11997769432.847473,555188545.2411194,0.6545710429433903,15.158882171382027
79.0,14441155144.253195,668819413.112739,0.6546324901279197,15.168841836720201
80.0,17382658862.83872,803349466.5961983,0.6546978809074546,15.179449224296825
81.0,20911657161.386974,961900584.6155337,0.6547671913324792,15.190702043723947
82.0,25130723054.733936,1148279200.223485,0.6548403963072055,15.202597903051917
83.0,30158892744.317196,1367276044.630113,0.6549174696006891,15.215134308259666
84.0,36136349839.00642,1625012149.5437472,0.6549983838600709,15.228308662874118
85.0,43230640516.03544,1929322837.0501833,0.6550831106226169,15.242118267393101
86.0,51644616864.11731,2290166899.9503903,0.6551716203293109,15.25656031879338
87.0,61626059837.64865,2720054924.006991,0.6552638823378228,15.271631909897113
88.0,73479167285.3837,3234486947.579641,0.6553598649363996,15.287330028769956
89.0,87577677270.36613,3852393665.995798,0.6554595353577414,15.303651558040473
90.0,104379876379.01305,4596575803.461787,0.655562859793157,15.32059327419188
91.0,124445045810.23344,5494133941.472325,0.6556698034073069,15.338151846842345
92.0,148451734150.31656,6576889366.779909,0.6557803303526102,15.356323837936188
93.0,177217160997.86676,7881784364.713119,0.6558944037847902,15.375105700991268
94.0,211718327174.8646,9451275427.015547,0.6560119858775397,15.394493780197909
95.0,253113971263.1834,11333769972.841396,0.6561330378387848,15.414484309637677
96.0,302768680522.9188,13584311585.557701,0.6562575199256323,15.435073412300895
97.0,362279597794.172,16265709664.214624,0.6563853914612517,15.45625709927895
98.0,433508998956.5358,19450322848.896767,0.6565166108501428,15.478031268714291
99.0,518624873258.1636,23222595275.57913,0.6566511355955141,15.50039170496527
100.0,620153868911.4475,27682494329.665394,0.6567889223149321,15.523334077506851
101.0,741049783182.1464,32949854340.241837,0.6569299267580615,15.546853940063796
102.0,884782086284.0587,39169742754.51164,0.657074103822751,15.570946729482197
103.0,1055448311659.0669,46518768993.61344,0.6572214075730162,15.595607764827228
104.0,1257914075709.8992,55212439426.987595,0.6573717912555971,15.620832246244634
105.0,1497985177927.1934,65513410791.20758,0.6575252073180872,15.646615254021238
106.0,1782613866882.8398,77740736167.8535,0.6576816074259736,15.67295174745387
107.0,2120144792534.4739,92279915696.94803,0.6578409424808377,15.699836563873001
108.0,2520599824221.137,109593822854.93288,0.6580031626378661,15.727264417534842
109.0,2996009329989.3857,130234318811.88734,0.6581682173240715,15.75522989861071
110.0,3560784624679.77,154854581953.65588,0.658336055256242,15.783727472116082
111.0,4232142866195.144,184222150532.4988,0.6585066244591482,15.812751476870828
112.0,5030574058429.325,219233130099.41623,0.6586798722838823,15.842296124476793
113.0,5980370853592.004,260928602023.84915,0.658855745426033,15.872355498256654
114.0,7110211626513.632,310514493947.216,0.6590341899443508,15.902923552289296
115.0,8453836526619.346,369386892237.9416,0.6592151512788877,15.933994110337796
116.0,10050813723419.84,439164336010.16345,0.6593985742699131,15.965560864949348
117.0,11947459148515.13,521729708842.49506,0.6595844031760231,15.997617376385824
118.0,14197916659602.88,619283033768.1191,0.6597725816932265,16.030157071792285
119.0,16865484403235.46,734408302770.832,0.659963052973037,16.06317324414668
120.0,20024206224582.65,870154937654.8203,0.6601557596416389,16.096659051497852
121.0,23760829782665.004,1030137557121.4197,0.6603506438179847,16.130607515954658
122.0,28177165414371.047,1218653523163.9844,0.6605476471329469,16.165011522990834
123.0,33392952078370.516,1440822559928.5498,0.6607467107474437,16.199863820497054
124.0,39549284557657.57,1702746530222.0752,0.6609477753714913,16.235157018148474
125.0,46812697217645.39,2011694270912.2964,0.6611507812823666,16.270883586542883
126.0,55379988181516.43,2376308158161.9697,0.6613556683434931,16.307035856628673
127.0,65483845065590.02,2806837769452.876,0.6615623760226338,16.343606018950037
128.0,77399404656980.31,3315396795176.503,0.6617708434105626,16.380586123135537
129.0,91451745338343.72,3916250376735.359,0.6619810092392621,16.417968077268803
130.0,108024537535923.62,4626132790961.456,0.6621928119003518,16.455743647440578
131.0,127569777644931.94,5464607459165.695,0.6624061894632545,16.493904457260623
132.0,150619010677334.03,6454477410124.146,0.6626210796933617,16.532441987478922
133.0,177795902551643.06,7622263738051.121,0.6628374200701258,16.571347575651735
134.0,209830856976817.2,8998771160784.273,0.6630551478049546,16.610612415840368
135.0,247577487848779.12,10619762263364.812,0.6632741998591786,16.65022755844139
136.0,292032037554408.06,12526772414080.309,0.663494512961675,16.690183909974365
137.0,344355517887832.44,14768087378172.102,0.6637160236266572,16.73047223308317
138.0,405900135982793.5,17399930662624.545,0.6639386681710324,16.771083146426975
139.0,478239773798419.3,20487877207935.14,0.6641623827319608,16.81200712485654
140.0,563206572985463.1,24108558716994.36,0.6643871032839539,16.853234499425557
141.0,662933449722850.6,28351664092215.16,0.6646127656561528,16.894755457742843
142.0,779904994624232.8,33322322692460.324,0.6648393055491746,16.93656004412393
143.0,917016784285466.0,39143852190719.945,0.6650666585520658,16.97863816011669
144.0,1077645743943470.8,45960984925000.81,0.6652947601588978,17.02097956481622
145.0,1265732023609952.5,53943526776084.664,0.6655235457853648,17.063573875558937
146.0,1485874876458529.0,63290592671740.9,0.6657529507851195,17.106410568424
147.0,1743443791053492.5,74235351871672.81,0.6659829104659981,17.1494789790921
148.0,2044707022976665.8,87050467175652.19,0.6662133601060684,17.19276830355582
149.0,2396978902166870.0,102054174410806.95,0.666444234969512,17.236267599145293
150.0,2808790303618824.0,119617244373378.5,0.6666754703223313,17.279965785434335
151.0,3290081135492913.0,140170808121381.23,0.6669070014478974,17.32385164546051
152.0,3852423225339572.5,164215329203203.75,0.6671387636622607,17.367913826916627
153.0,4509272523962809.0,192330959352536.2,0.6673706923294158,17.412140843412796
154.0,5276256496912080.0,225189368773945.0,0.6676027228762471,17.456521076014457
155.0,6171506971809090.0,263567597093483.72,0.6678347908073482,17.501042774714698
156.0,7216036519954539.0,308364219766746.44,0.6680668317197491,17.545694060067834
157.0,8434172564013260.0,360618106587050.6,0.6682987813172747,17.590462925038377
158.0,9854062122808004.0,421530627058071.94,0.6685305754248897,17.63533723678643
159.0,1.1508245693949974e+16,492491585058957.3,0.668762150002837,17.680304738689074
160.0,1.3434327386837752e+16,575109460270409.8,0.6689934411604381,17.72535305250323
161.0,1.5675754524746626e+16,671247116313178.5,0.6692243851699695,17.770469680497122
162.0,1.828270927819551e+16,783063107115348.2,0.6694549184801778,17.815642007864476
163.0,2.131315627162928e+16,913059638434225.1,0.6696849777295703,17.860857305209294
164.0,2.4834053668107524e+16,1064138537897914.5,0.6699144997598083,17.906102731056514
165.0,2.892274335117801e+16,1239665089745715.8,0.6701434216285962,17.951365334654113
166.0,3.36685801567091e+16,1443541585086197.5,0.6703716806225222,17.996632058793477
167.0,3.917479585217376e+16,1680291914166244.0,0.6705992142699279,18.04188974272809
168.0,4.5560639000636696e+16,1955157008181073.0,0.6708259603532163,18.087125125352603
169.0,5.296386431091589e+16,2274204299934016.0,0.6710518569212895,18.132324848379692
170.0,6.154354991050487e+16,2644452304888872.5,0.6712768423018565,18.177475459682036
171.0,7.148333053518127e+16,3074010973473574.0,0.6715008551132324,18.2225634168416
172.0,8.299512804164149e+16,3572242940156930.0,0.6717238342764035,18.267575090704742
173.0,9.632334842418506e+16,4149946420979691.5,0.6719457190267368,18.312496769152983
174.0,1.1174969758360344e+17,4819563292532456.0,0.6721664489254299,18.357314661008285
175.0,1.2959869084809438e+17,5595418378991223.0,0.6723859638710707,18.402014900015928
176.0,1.502439115397256e+17,6493993347250893.0,0.6726042041109448,18.446583548995093
177.0,1.741151469268644e+17,7534240873887323.0,0.6728211102521366,18.491006604131304
178.0,2.017065449285517e+17,8737946569886191.0,0.673036623272551,18.535269999389154
179.0,2.335859381314934e+17,1.0130146279255942e+16,0.6732506845318156,18.57935961105647
180.0,2.7040554166785344e+17,1.1739608173223766e+16,0.6734632357821139,18.62326126241509
181.0,3.129141457471886e+17,1.3599389859541888e+16,0.6736742191789091,18.666960728550446
182.0,3.619711163521799e+17,1.5747479873815192e+16,0.673883577291428,18.71044374130291
183.0,4.185624626019418e+17,1.822753839330802e+16,0.6740912531131125,18.75369599434014
184.0,4.838192839022276e+17,2.1089750796905556e+16,0.6742971900719807,18.79670314835868
185.0,5.590390074437694e+17,2.4391810823821852e+16,0.6745013320409561,18.83945083641236
186.0,6.457096504112769e+17,2.820005057877895e+16,0.6747036233480984,18.881924669374577
187.0,7.455377169732723e+17,3.259073285657748e+16,0.6749040087866232,18.924110241530386
188.0,8.60480205947915e+17,3.765153128396907e+16,0.6751024336249252,18.965993136288407
189.0,9.927813113250276e+17,4.348322117222777e+16,0.6752988436165416,19.007558932016163
190.0,1.145014566493594e+18,5.020161045838358e+16,0.6754931850101241,19.04879320799931
191.0,1.320130828430964e+18,5.7939740902809096e+16,0.6756854045593239,19.089681550524684
192.0,1.5215132395111665e+18,6.685038774225299e+16,0.675875449532497,19.13020955907735
193.0,1.753040012900313e+18,7.710890646358866e+16,0.676063267722451,19.170362852652577
194.0,2.019156118504889e+18,8.891647272173229e+16,0.6762488074561614,19.21012707618141
195.0,2.324955263563937e+18,1.0250377371228858e+17,0.6764320176045403,19.24948790707359
196.0,2.6762728864246794e+18,1.1813521372496429e+17,0.6766128475921248,19.288431061868437
197.0,3.0797923772595333e+18,1.361136957755762e+17,0.6767912474066211,19.326942302979834
198.0,3.543166150022739e+18,1.5678608210505523e+17,0.6769671676085254,19.36500744554722
199.0,4.07515371117344e+18,1.80549430175217e+17,0.6771405593407448,19.402612364385504
200.0,4.685779475905526e+18,2.078581313098861e+17,0.6773113743383083,19.439743001041958
201.0,5.386511847461717e+18,2.392320812406753e+17,0.6774795649380057,19.47638537093887
202.0,6.190468040463169e+18,2.7526601623131885e+17,0.6776450840879139,19.512525570586096
203.0,7.112648250582446e+18,3.166402135466332e+17,0.6778078853570041,19.54814978488099
204.0,8.170202708201738e+18,3.6413279027790957e+17,0.6779679229449098,19.583244294509857
205.0,9.382736789252786e+18,4.186337912971191e+17,0.6781251516916174,19.61779548341023
206.0,1.0772661053746072e+19,4.81161317033273e+17,0.6782795270871136,19.651789846289542
207.0,1.2365590653129275e+19,5.5288003586363206e+17,0.6784310052811564,19.6852139962222
208.0,1.419080256957638e+19,6.351223878774655e+17,0.6785795430930555,19.718054672301975
209.0,1.628175914405505e+19,7.294128589777902e+17,0.6787250980214853,19.750298747345905
210.0,1.8676707347990643e+19,8.374957563189551e+17,0.6788676282543445,19.781933235646388
211.0,2.1419364768547647e+19,9.613669663302826e+17,0.6790070926786607,19.812945300764863
212.0,2.455970478594014e+19,1.1033102414764124e+18,0.6791434508905418,19.84332226336095
213.0,2.8154855134470124e+19,1.265938635284771e+18,0.6792766632051801,19.873051609050673
214.0,3.2270125997936296e+19,1.4522417928363773e+18,0.6794066906669064,19.902120996287266
215.0,3.698018603837574e+19,1.6656399028478126e+18,0.6795334950592985,19.930518264257802
216.0,4.2370407326807925e+19,1.9100452350664228e+18,0.6796570389153449,19.958231440788705
217.0,4.853840310818545e+19,2.1899323251914716e+18,0.6797772855276648,19.985248750252993
218.0,5.559578575410153e+19,2.510418030037022e+18,0.679894198958783,20.011558621471963
219.0,6.36701762141375e+19,2.877352864461248e+18,0.6800077440514614,20.03714969560373
220.0,7.290750086091962e+19,3.2974252475517353e+18,0.6801178864390879,20.062010834010923
221.0,8.347461693132687e+19,3.7782805425407263e+18,0.6802245925561178,20.086131126099694
222.0,9.55623139379378e+19,4.3286570655332536e+18,0.6803278296485695,20.10949989712193
223.0,1.0938874556357816e+20,4.95854157167604e+18,0.6804275657845731,20.132106715932444
224.0,1.2520335524583693e+20,5.679347109810809e+18,0.6805237698649662,20.153941402692595
225.0,1.4329136734335182e+20,6.50411665340532e+18,0.6806164116339429,20.174994036513784
226.0,1.639789260585994e+20,7.447756272410806e+18,0.6807054616897404,20.195254963029083
227.0,1.8763898101804587e+20,8.527302286664392e+18,0.680790891495361,20.21471480188371
228.0,2.1469802856376998e+20,9.762227507484543e+18,0.6808726733893338,20.233364454138673
229.0,2.456438369763038e+20,1.1174792372905114e+19,0.6809507805965078,20.251195109576983
230.0,2.8103430288335707e+20,1.279044763951107e+19,0.6810251872388691,20.268198253903517
231.0,3.2150760841241094e+20,1.4638296251422984e+19,0.6810958683463777,20.28436567582917
232.0,3.6779387423979215e+20,1.6751623099438916e+19,0.6811627998678188,20.299689474030135
233.0,4.207285330432447e+20,1.9168502631093277e+19,0.681225958681659,20.314162063972883
234.0,4.812676815342523e+20,2.1932495699612815e+19,0.6812853226069027,20.327776184595642
235.0,5.5050570787893615e+20,2.509344867979023e+19,0.6813408704139394,20.340524904836794
236.0,6.296955356750207e+20,2.8708409767914115e+19,0.6813925818353748,20.35240163000098
237.0,7.202718766438445e+20,3.284267956304278e+19,0.6814404375768353,20.363400107953385
238.0,8.238779428760154e+20,3.757101555177421e+19,0.6814844193277385,20.37351443513296
239.0,9.4239613709107e+20,4.297901304883563e+19,0.6815245097720187,20.38273906237524
240.0,1.0779833174147096e+21,4.916468855035124e+19,0.6815606925987976,20.391068800535432
241.0,1.2331113234742122e+21,5.624029541093716e+19,0.6815929525129892,20.39849882590277
