Time,J,A,S,tau
0,100,100,0.778883281,10.1010101
1,39.79341243,199.8965197,0.775621257,10.62147613
2,8.915374176,289.4493568,0.772235711,11.15863753
3,0,369.4346781,0.768727224,11.71232888
4,4.049176682,440.5710412,0.765096609,12.28239404
5,18.61001271,503.5237012,0.76134509,12.86866101
6,39.00638086,558.9098345,0.757474344,13.47093977
7,62.36064257,607.3032167,0.753486522,14.08902036
8,86.55500958,649.2383906,0.749384265,14.72267125
9,110.0749918,685.2143622,0.745170718,15.3716381
10,131.8802828,715.6978515,0.740849525,16.0356429
11,151.2990072,741.1261228,0.736424822,16.71438363
12,167.9412682,761.9094979,0.731901215,17.40753431
13,181.629625,778.4334102,0.727283751,18.11474557
14,192.3429281,791.0602451,0.722577881,18.83564567
15,200.1721052,800.1306063,0.717789411,19.56984195
16,205.2840499,805.9651127,0.712924452,20.31692281
17,207.8947405,808.8654236,0.707989362,21.07645985
18,208.2485263,809.1148153,0.702990683,21.84801032
19,206.6019927,806.9792746,0.697935082,22.63111996
20,203.2123385,802.7080978,0.692829283,23.42532572
21,198.3290969,796.5344698,0.687680011,24.23015878
22,172.0032206,445.5839343,0.68249393,25.04514735
23,135.0557803,185.9978573,0.677277587,25.86981958
24,100.6531035,89.18133873,0.672037366,26.70370619
25,68.63748061,52.31830979,0.666779442,27.54634299
26,38.85752507,37.58362519,0.661509741,28.3972732
27,11.16839372,31.06009695,0.656233912,29.25604947
28,0,27.62543309,0.6509573,30.12223567
29,0,25.39250931,0.645684924,30.99540838
30,0,23.66428249,0.640421468,31.87515813
31,0,22.18122098,0.635171274,32.76109041
32,0,20.84522151,0.629938333,33.65282632
33,0,19.61718935,0.624726292,34.55000313
34,0,18.48017877,0.619538459,35.4522745
35,0,17.42433863,0.614377809,36.35931062
36,0,16.44352964,0.609246996,37.27079803
37,0,15.53272415,0.604148367,38.18643953
38,0,14.68722612,0.59908398,39.10595369
39,0,13.90313257,0.594055611,40.02907452
40,0,13.17612056,0.589064781,40.95555083
41,0,12.50280669,0.584112768,41.88514574
42,0,11.87926989,0.579200623,42.81763598
43,0,11.30247984,0.574329192,43.75281122
44,0,10.76901662,0.569499127,44.69047339
45,0,10.27611049,0.564710909,45.63043596
46,0,9.820898911,0.559964856,46.57252329
47,0,9.400810009,0.555261146,47.5165698
48,0,9.013525554,0.550599825,48.46241945
49,0,8.656695936,0.545980826,49.40992491
50,0,8.32843748,0.541403975,50.35894699
51,0,8.026677321,0.53686901,51.30935397
52,0,7.749853662,0.532375589,52.26102099
53,0,7.496204227,0.527923298,53.21382945
54,0,7.264401952,0.523511665,54.16766642
55,0,7.05300734,0.519140167,55.12242411
56,0,6.860861223,0.514808238,56.07799935
57,0,6.686841571,0.510515278,57.03429303
58,0,5.638691423,0.506298165,57.98197695
59,0,3.123297402,0.502261749,58.89457347
60,0,2.260019446,0.498258753,59.80781485
61,0,2.002112214,0.494288903,60.72152597
62,0,1.965238466,0.49035191,61.6355332
63,0,2.008679533,0.486447479,62.54966364
64,0,2.081282918,0.482575314,63.46374419
65,0,2.16480033,0.478735121,64.3776007
66,0,2.253059692,0.474926622,65.29105712
67,0,2.344304801,0.471149551,66.2039345
68,0,2.438378388,0.467403667,67.11605013
69,0,2.535714709,0.463688758,68.02721647
70,0,2.636925539,0.460004642,68.93724018
71,0,2.742725793,0.456351179,69.84592099
72,0,2.853903309,0.452728271,70.75305056
73,0,2.97117264,0.449135872,71.65841134
74,0,3.095320528,0.445573991,72.56177511
75,0,3.227192142,0.442042697,73.46290179
76,0,3.36759281,0.438542129,74.36153784
77,0,3.517468417,0.435072497,75.25741467
78,0,3.677689254,0.431634094,76.15024704
79,0,3.849293247,0.4282273,77.03973104
80,0,4.033287707,0.424852586,77.92554229
81,0,4.23077022,0.421510529,78.80733357
82,0,4.442951214,0.418201815,79.68473266
83,0,4.670978386,0.414927247,80.55733964
84,0,4.916259053,0.41168776,81.42472419
85,0,5.180045041,0.408484421,82.28642258
86,0,5.463932082,0.405318451,83.1419342
87,0,5.769258133,0.402191226,83.99071823
88,0,6.097657197,0.399104296,84.8321894
89,0,6.450704426,0.396059393,85.66571378
90,0,6.830006274,0.393058451,86.49060406
91,0,7.237288149,0.390103616,87.3061141
92,0,7.674109069,0.387197265,88.11143325
93,0,8.14205584,0.384342023,88.90567994
94,0,8.642678351,0.381540788,89.68789425
95,0,9.177228446,0.378796747,90.45703006
96,0,9.746911346,0.376113409,91.211946
97,0,10.35256071,0.373494627,91.95139484
98,0,10.99461928,0.37094464,92.67401224
99,0,11.67326008,0.368468104,93.37830267
100,0,12.38769241,0.366070144,94.06262431
101,0,13.13689326,0.363756409,94.72516991
102,0,13.91851146,0.361533134,95.36394625
103,0,14.72944853,0.359407227,95.97674661
104,0,15.5654494,0.357386368,96.56112021
105,0,16.42085016,0.355479124,97.11433513
106,0,17.28891702,0.353695142,97.63332256
107,0,18.18506768,0.352045286,98.11463371
108,0,35.80377172,0.35054195,98.55435041
109,0,53.5267125,0.349199367,98.94799471
110,0,71.01061196,0.34803404,99.29040635
111,0,88.19992638,0.347065333,99.57557677
112,0,105.0233817,0.346316217,99.79643958
113,0,121.3931525,0.345814327,99.94457848
114,0,137.2043828,0.345593403,100.0098297
115,0,152.3350951,0.345695253,99.97974443
116,0,166.6463088,0.346172701,99.83878659
117,0,179.9828538,0.347093632,99.56723893
118,0,192.1743586,0.34854738,99.13948421
119,0,203.0368896,0.350654217,98.52147328
120,0,201.7156804,0.353580624,97.6666862
121,0,189.5747774,0.357564201,96.50961623
122,0,178.0884522,0.362956729,94.95466932
123,0,167.2253615,0.37030054,92.85691744
124,0,156.9554993,0.380467046,89.98846751
125,0,147.2501665,0.394905292,85.98247359
126,0,138.0819125,0.415998753,80.27121558
127,0,129.4244793,0.446959926,72.20938714
128,0,121.2527585,0.488720906,62.01625258
129,0,113.54273,0.534299587,51.88080207
130,0,106.2714247,0.574387575,43.83563216
131,0,99.41688185,0.60629433,37.97517885
132,9.658655969,92.95810502,0.631323213,33.67688444
133,55.93503915,86.87502081,0.651251498,30.41686647
134,102.5245762,81.14844361,0.667442967,27.85741661
135,147.1387676,78.43226787,0.680847609,25.78755325
136,189.463876,82.15192903,0.692124526,24.07222568
137,233.9531644,92.70979798,0.701739973,22.6218684
138,286.5854455,110.6643557,0.710032393,21.37490423
139,355.4453261,136.3843925,0.717253681,20.28761607
140,452.2538366,168.311367,0.723595638,19.32808539
141,590.994589,199.7231631,0.729207279,18.47243915
142,776.6312716,229.98621,0.734206411,17.70245019
143,1013.521797,259.1631805,0.7386876,17.00395176
144,1306.177502,287.2917449,0.742727744,16.36576417
145,1659.20177,314.3876547,0.746390088,15.77894688
146,2077.218109,340.4473253,0.749727141,15.23626897
147,2564.786298,365.4502093,0.752782866,14.73182262
148,3126.309588,389.3588382,0.755594327,14.26073896
149,3765.483543,412.7993853,0.758192963,13.81897441
150,4486.220886,442.3840204,0.760605579,13.40314672
151,5308.340456,489.6024408,0.762855127,13.01040977
152,6282.420551,569.4825985,0.764961331,12.63835498
153,7506.652469,697.7104961,0.766941197,12.28493328
154,9133.222243,880.3355476,0.768809422,11.94839292
155,11348.58056,1120.548723,0.770578737,11.62722928
156,14370.76864,1421.461249,0.772260189,11.32014423
157,18450.59969,1785.94542,0.77386338,11.02601282
158,23871.80621,2216.463956,0.775396664,10.74385597
159,30949.92202,2714.890121,0.776867318,10.47281776
160,40029.17456,3285.807104,0.778281686,10.2121467
161,51505.24653,3960.351597,0.779645298,9.961180038
162,65963.05906,4826.152799,0.780962985,9.719330584
163,84459.2184,6048.316991,0.782238961,9.486075733
164,108897.9751,7848.056621,0.783476907,9.260948171
165,142326.2177,10480.91221,0.784680039,9.043528049
166,189181.3418,14234.48891,0.785851163,8.833436359
167,255530.8177,19425.13529,0.786992735,8.63032933
168,349285.8983,26392.30243,0.788106896,8.433893678
169,480377.4906,35517.09045,0.789195519,8.243842566
170,661187.6804,47407.10106,0.79026024,8.05991217
171,908371.7135,63338.42832,0.791302485,7.881858763
172,1247460.936,85796.05641,0.792323504,7.709456219
173,1720389.116,118835.0129,0.793324384,7.542493895
174,2395038.974,168339.7105,0.794306076,7.380774815
175,3376267.116,242222.6489,0.79526941,7.22411412
176,4817781.019,350549.633,0.796215109,7.07233774
177,6934562.99,506075.7426,0.797143807,6.925281261
178,10021000.79,727148.0682,0.798056053,6.782788943
179,14493286.43,1045032.155,0.798952327,6.644712884
180,20982092.92,1514967.758,0.79983305,6.510912299
181,30492230.16,2229085.781,0.800698586,6.381252891
182,44634093.2,3329927.368,0.801549253,6.255606315
183,65921419.73,5023697.545,0.80238533,6.133849708
184,98130646.72,7599709.744,0.803207056,6.015865282
185,146790654.1,11483287.82,0.804014644,5.901539968
186,220063065.2,17359712.23,0.804808276,5.790765106
187,330440721.5,26387209.35,0.805588112,5.683436172
188,497699568.5,40493742.39,0.806354292,5.579452531
189,753399707.1,62738517.01,0.807106937,5.478717231
190,1147076140,97765137.56,0.807846153,5.381136805
191,1754664561,152594329.2,0.808572033,5.286621104
192,2691546222,238286421.6,0.809284657,5.195083142
193,4135345452,373040049.2,0.809984097,5.106438958
194,6365475505,587059477,0.810670413,5.020607489
195,9826243628,929275729,0.811343661,4.937510454
196,15219508352,1476705962,0.812003889,4.857072252
197,23638843043,2350030679,0.812651139,4.779219855
198,36778258320,3742488825,0.813285447,4.70388273
199,57279826480,5970480106,0.813906849,4.630992742
200,89309029891,9552590251,0.814515373,4.560484083
201,1.39455E+11,15325046157,0.815111047,4.492293196
202,2.18079E+11,24619216938,0.815693894,4.426358701
203,3.4136E+11,39562671761,0.816263938,4.362621336
204,5.34545E+11,63597971451,0.816821197,4.301023885
205,8.37206E+11,1.02323E+11,0.817365692,4.241511126
206,1.31154E+12,1.64774E+11,0.817897439,4.184029769
207,2.05508E+12,2.6541E+11,0.818416456,4.128528404
208,3.22E+12,4.27342E+11,0.818922758,4.074957447
209,5.04336E+12,6.87688E+11,0.819416359,4.023269089
210,7.89464E+12,1.10615E+12,0.819897274,3.973417251
211,1.23501E+13,1.77835E+12,0.820365518,3.925357535
212,1.93064E+13,2.85656E+12,0.820821104,3.87904718
213,3.01547E+13,4.58293E+12,0.821264045,3.834445018
214,4.70487E+13,7.34284E+12,0.821694355,3.791511436
215,7.33209E+13,1.17488E+13,0.822112046,3.750208331
216,1.14122E+14,1.87704E+13,0.822517132,3.710499076
217,1.77393E+14,2.99375E+13,0.822909626,3.672348481
218,2.75354E+14,4.76596E+13,0.823289541,3.635722757
219,4.2677E+14,7.57262E+13,0.823656891,3.600589481
220,6.6042E+14,1.20081E+14,0.824011687,3.566917566
221,1.02037E+15,1.90019E+14,0.824353945,3.534677225
222,1.57395E+15,3.00032E+14,0.824683676,3.50383994
223,2.42385E+15,4.72675E+14,0.825000895,3.474378439
224,3.72646E+15,7.42964E+14,0.825305615,3.446266658
225,5.71959E+15,1.16512E+15,0.82559785,3.41947972
226,8.76429E+15,1.82286E+15,0.825877614,3.393993907
227,1.34E+16,2.8452E+15,0.826144922,3.369786634
228,2.05E+16,4.43048E+15,0.826399786,3.346836424
229,3.12E+16,6.88294E+15,0.826642222,3.325122888
230,4.76E+16,1.07E+16,0.826872245,3.304626698
231,7.23E+16,1.65E+16,0.827089868,3.28532957
232,1.10E+17,2.55E+16,0.827295107,3.26721424
233,1.66E+17,3.92E+16,0.827487976,3.250264447
234,2.52E+17,6.02E+16,0.827668492,3.234464915
235,3.82E+17,9.23E+16,0.827836668,3.21980133
236,5.77E+17,1.41E+17,0.827992521,3.20626033
237,8.71E+17,2.16E+17,0.828136067,3.193829486
238,1.31E+18,3.29E+17,0.82826732,3.182497286
239,1.98E+18,5.00E+17,0.828386298,3.172253121
240,2.98E+18,7.60E+17,0.828493015,3.163087274
241,4.50E+18,1.15E+18,0.828587489,3.154990903
242,6.77E+18,1.75E+18,0.828669737,3.147956032
243,1.02E+19,2.65E+18,0.828739774,3.14197554
244,1.53E+19,4.00E+18,0.828797618,3.137043149
245,2.31E+19,6.04E+18,0.828843287,3.133153413
246,3.48E+19,9.12E+18,0.828876797,3.130301712
247,5.24E+19,1.37E+19,0.828898167,3.128484242
248,7.90E+19,2.07E+19,0.828907415,3.127698007
249,1.19E+20,3.12E+19,0.828904559,3.127940813
250,1.80E+20,4.70E+19,0.828889618,3.129211258
251,2.72E+20,7.08E+19,0.828862611,3.13150873
252,4.11E+20,1.07E+20,0.828823557,3.134833402
253,6.23E+20,1.60E+20,0.828772477,3.139186221
254,9.44E+20,2.42E+20,0.82870939,3.144568912
255,1.43E+21,3.64E+20,0.828634318,3.150983969
256,2.18E+21,5.49E+20,0.828547281,3.158434652
257,3.32E+21,8.27E+20,0.828448302,3.166924985
258,5.06E+21,1.25E+21,0.828337403,3.176459757
259,7.74E+21,1.89E+21,0.828214607,3.187044512
260,1.18E+22,2.85E+21,0.828079938,3.198685557
261,1.82E+22,4.32E+21,0.827933418,3.211389953
262,2.79E+22,6.54E+21,0.827775075,3.22516552
263,4.30E+22,9.92E+21,0.827604932,3.240020832
264,6.64E+22,1.51E+22,0.827423017,3.255965221
265,1.03E+23,2.29E+22,0.827229357,3.273008774
266,1.59E+23,3.49E+22,0.82702398,3.291162335
267,2.48E+23,5.32E+22,0.826806915,3.310437504
268,3.86E+23,8.12E+22,0.826578191,3.330846642
269,6.02E+23,1.24E+23,0.826337841,3.352402867
270,9.42E+23,1.90E+23,0.826085894,3.375120059
271,1.48E+24,2.92E+23,0.825822386,3.399012857
272,2.32E+24,4.48E+23,0.825547349,3.424096666
273,3.65E+24,6.90E+23,0.82526082,3.450387655
274,5.76E+24,1.06E+24,0.824962833,3.477902758
275,9.10E+24,1.64E+24,0.824653428,3.506659676
276,1.44E+25,2.53E+24,0.824332643,3.53667688
277,2.28E+25,3.92E+24,0.824000519,3.567973611
278,3.63E+25,6.07E+24,0.823657096,3.600569879
279,5.77E+25,9.41E+24,0.823302419,3.634486469
280,9.20E+25,1.46E+25,0.822936531,3.669744937
281,1.47E+26,2.27E+25,0.822559479,3.706367614
282,2.34E+26,3.53E+25,0.82217131,3.744377602
283,3.75E+26,5.49E+25,0.821772072,3.783798779
284,5.99E+26,8.55E+25,0.821361816,3.824655797
285,9.59E+26,1.33E+26,0.820940594,3.866974077
286,1.54E+27,2.07E+26,0.82050846,3.910779816
287,2.46E+27,3.23E+26,0.820065468,3.956099977
288,3.94E+27,5.04E+26,0.819611675,4.002962294
289,6.30E+27,7.85E+26,0.819147138,4.051395265
290,1.01E+28,1.22E+27,0.818671918,4.10142815
291,1.61E+28,1.90E+27,0.818186075,4.15309097
292,2.58E+28,2.96E+27,0.817689672,4.2064145
293,4.11E+28,4.60E+27,0.817182771,4.261430265
294,6.54E+28,7.14E+27,0.816665438,4.318170536
295,1.04E+29,1.11E+28,0.816137738,4.376668326
296,1.65E+29,1.71E+28,0.81559974,4.43695738
297,2.62E+29,2.64E+28,0.815051509,4.499072173
298,4.13E+29,4.07E+28,0.814493116,4.563047899
299,6.51E+29,6.27E+28,0.813924629,4.628920469
300,1.02E+30,9.62E+28,0.813346117,4.696726499
301,1.60E+30,1.47E+29,0.81275765,4.766503306
302,2.50E+30,2.25E+29,0.812159298,4.838288899
303,3.88E+30,3.42E+29,0.811551129,4.912121972
304,6.00E+30,5.18E+29,0.810933211,4.988041899
305,9.25E+30,7.83E+29,0.81030561,5.066088726
306,1.42E+31,1.18E+30,0.809668393,5.146303164
307,2.17E+31,1.77E+30,0.809021621,5.228726588
308,3.29E+31,2.64E+30,0.808365355,5.313401032
309,4.97E+31,3.92E+30,0.807699651,5.400369188
310,7.47E+31,5.80E+30,0.807024562,5.489674408
311,1.12E+32,8.55E+30,0.806340135,5.581360704
312,1.66E+32,1.25E+31,0.805646412,5.675472757
313,2.45E+32,1.83E+31,0.80494343,5.772055929
314,3.59E+32,2.65E+31,0.804231214,5.871156273
315,5.24E+32,3.83E+31,0.803509784,5.972820557
316,7.58E+32,5.50E+31,0.802779149,6.077096286
317,1.09E+33,7.85E+31,0.802039305,6.184031737
318,1.56E+33,1.11E+32,0.801290236,6.293675998
319,2.21E+33,1.57E+32,0.800531912,6.406079015
320,3.11E+33,2.21E+32,0.799764285,6.521291653
321,4.34E+33,3.08E+32,0.798987289,6.639365768
322,6.02E+33,4.26E+32,0.798200838,6.760354285
323,8.29E+33,5.87E+32,0.79740482,6.884311298
324,1.13E+34,8.03E+32,0.796599101,7.011292183
325,1.53E+34,1.09E+33,0.795783515,7.14135373
326,2.06E+34,1.47E+33,0.794957866,7.274554288
327,2.75E+34,1.98E+33,0.794121922,7.410953944
328,3.64E+34,2.64E+33,0.793275413,7.550614713
329,4.78E+34,3.49E+33,0.792418026,7.693600762
330,6.23E+34,4.59E+33,0.791549401,7.839978659
331,8.04E+34,6.00E+33,0.790669126,7.989817654
332,1.03E+35,7.78E+33,0.789776735,8.143189992
333,1.31E+35,1.00E+34,0.788871698,8.300171262
334,1.65E+35,1.28E+34,0.78795342,8.460840787
335,2.07E+35,1.63E+34,0.787021233,8.625282048
336,2.57E+35,2.06E+34,0.786074389,8.793583155
337,3.16E+35,2.59E+34,0.785112056,8.965837366
338,3.86E+35,3.23E+34,0.784133311,9.142143644
339,4.67E+35,4.00E+34,0.783137129,9.322607271
340,5.62E+35,4.92E+34,0.782122382,9.507340498
341,6.71E+35,6.01E+34,0.781087826,9.69646326
342,7.94E+35,7.30E+34,0.780032097,9.89010392
343,9.34E+35,8.81E+34,0.778953701,10.08840008
344,1.09E+36,1.06E+35,0.77785101,10.29149939
345,1.26E+36,1.26E+35,0.776722249,10.49956048
346,1.45E+36,1.49E+35,0.775565495,10.71275381
347,1.66E+36,1.75E+35,0.774378667,10.93126261
348,1.88E+36,2.05E+35,0.773159519,11.15528386
349,2.11E+36,2.38E+35,0.77190564,11.38502913
350,2.36E+36,2.75E+35,0.770614445,11.62072561
351,2.62E+36,3.16E+35,0.769283177,11.86261684
352,2.90E+36,3.61E+35,0.767908901,12.11096361
353,3.18E+36,4.09E+35,0.766488514,12.36604456
354,3.46E+36,4.62E+35,0.765018738,12.62815686
355,3.75E+36,5.19E+35,0.763496139,12.89761648
356,4.04E+36,5.79E+35,0.761917128,13.1747585
357,4.33E+36,6.43E+35,0.760277977,13.45993701
358,4.62E+36,7.10E+35,0.758574841,13.75352473
359,4.89E+36,7.80E+35,0.756803772,14.05591247
360,5.16E+36,8.53E+35,0.754960756,14.36750799
361,5.41E+36,9.27E+35,0.753041733,14.68873451
362,5.66E+36,1.00E+36,0.75104264,15.02002889
363,5.88E+36,1.08E+36,0.748959452,15.36183923
364,6.09E+36,1.16E+36,0.746788222,15.71462192
365,6.27E+36,1.24E+36,0.744525134,16.07883833
366,6.44E+36,1.31E+36,0.742166552,16.45495092
367,6.59E+36,1.39E+36,0.73970908,16.84341891
368,6.71E+36,1.46E+36,0.737149614,17.24469354
369,6.82E+36,1.53E+36,0.734485398,17.65921306
370,6.91E+36,1.60E+36,0.731714082,18.08739733
371,6.97E+36,1.66E+36,0.728833772,18.5296424
372,7.02E+36,1.73E+36,0.725843084,18.98631497
373,7.05E+36,1.78E+36,0.722741177,19.45774714
374,7.06E+36,1.83E+36,0.719527797,19.94423128
375,7.06E+36,1.88E+36,0.716203298,20.44601528
376,7.04E+36,1.92E+36,0.712768664,20.96329844
377,7.01E+36,1.95E+36,0.709225507,21.49622808
378,6.97E+36,1.98E+36,0.705576067,22.04489694
379,6.92E+36,2.01E+36,0.701823196,22.60934136
380,6.86E+36,2.03E+36,0.697970326,23.18954048
381,6.79E+36,2.04E+36,0.694021434,23.78541632
382,6.71E+36,2.05E+36,0.689980996,24.39683479
383,6.63E+36,2.05E+36,0.685853932,25.02360754
384,6.55E+36,2.05E+36,0.681645542,25.66549489
385,6.46E+36,2.05E+36,0.677361445,26.32220891
386,6.37E+36,2.04E+36,0.67300751,26.99341798
387,6.23E+36,1.14E+36,0.66858978,27.67875159
388,6.05E+36,4.82E+35,0.664114417,28.37780407
389,5.89E+36,2.35E+35,0.659587626,29.09014049
390,5.74E+36,1.41E+35,0.6550156,29.81530161
391,5.59E+36,1.04E+35,0.650404458,30.55280891
392,5.45E+36,8.74E+34,0.645760197,31.30216951
393,5.31E+36,7.86E+34,0.641088643,32.06288085
394,5.18E+36,7.29E+34,0.63639542,32.83443499
395,5.06E+36,6.83E+34,0.631685907,33.61632264
396,4.94E+36,6.44E+34,0.626965223,34.40803671
397,4.83E+36,6.08E+34,0.6222382,35.20907545
398,4.72E+36,5.74E+34,0.617509372,36.01894521
399,4.62E+36,5.43E+34,0.612782967,36.83716271
400,4.52E+36,5.14E+34,0.608062901,37.66325696
401,4.43E+36,4.86E+34,0.603352783,38.49677071
402,4.33E+36,4.61E+34,0.598655914,39.33726168
403,4.25E+36,4.37E+34,0.593975297,40.18430335
404,4.16E+36,4.14E+34,0.589313643,41.03748554
405,4.08E+36,3.94E+34,0.584673389,41.89641462
406,4.01E+36,3.74E+34,0.580056705,42.76071368
407,3.93E+36,3.56E+34,0.575465508,43.63002233
408,3.86E+36,3.39E+34,0.570901483,44.50399639
409,3.79E+36,3.24E+34,0.566366091,45.38230754
410,3.72E+36,3.09E+34,0.561860588,46.26464272
411,3.66E+36,2.96E+34,0.55738604,47.15070353
412,3.59E+36,2.84E+34,0.552943336,48.04020554
413,3.53E+36,2.72E+34,0.548533208,48.9328775
414,3.47E+36,2.62E+34,0.544156239,49.82846062
415,3.41E+36,2.52E+34,0.539812881,50.7267077
416,3.36E+36,2.43E+34,0.535503464,51.6273823
417,3.30E+36,2.35E+34,0.531228216,52.53025795
418,3.25E+36,2.28E+34,0.526987266,53.43511721
419,3.20E+36,2.21E+34,0.52278066,54.34175091
420,3.14E+36,2.14E+34,0.518608372,55.24995723
421,3.09E+36,2.09E+34,0.514470314,56.15954089
422,3.05E+36,2.03E+34,0.510366341,57.07031233
423,3.00E+36,1.99E+34,0.506296265,57.98208682
