Time,J,A,S,tau
0.0,100.0,100.0,0.5845592693977626,58.21844868070997
1.0,99.77950625157709,89.54138162910138,0.5832560682135411,59.21737906774076
2.0,99.55932929176875,80.18011888627561,0.581973663842763,60.2165165875825
3.0,99.34264364774548,71.80268104570551,0.5807112375117861,61.215730695288634
4.0,99.12929488743929,64.30494652465792,0.5794679371321018,62.21501249531583
5.0,98.91913328743054,57.5939521793596,0.5782429316421562,63.21435421517216
6.0,98.71201360850083,51.586604339066874,0.5770354116458292,64.2137488547823
7.0,98.50779487691437,46.208648796707585,0.5758447140092814,65.2131664947748
8.0,98.306340188509,41.393762522153175,0.5746701604252002,66.212584310288
9.0,98.10751650932477,37.0826427362525,0.5735109744064482,67.21200212580119
10.0,97.91119447828423,33.22227081722136,0.572366399985455,68.21141994131439
11.0,97.71724822998743,29.765272383883794,0.5712357016134424,69.21083775682759
12.0,97.52555521675632,26.669274451392006,0.5701181631206708,70.21025557234078
13.0,97.33599603011909,23.896377805735753,0.5690130866734135,71.20967338785398
14.0,97.14845423969318,21.41270489342216,0.5679197918325503,72.20909120336718
15.0,96.96281623344723,19.18794652726902,0.5668376146202085,73.20850901888036
16.0,96.77897105567389,17.19498262734826,0.5657659065730339,74.20792683439356
17.0,96.59681025970117,15.409561927184061,0.5647040338815383,75.20734464990676
18.0,96.41622776351954,13.80998261587424,0.5636513765464733,76.20676246541996
19.0,96.23711970216324,12.37681901318207,0.5626073275162452,77.20618028093315
20.0,96.0593842922907,11.092694062010995,0.5615712918955743,78.20559809644635
21.0,95.88292170064322,9.94205454415529,0.5605426861767976,79.20501591195955
22.0,95.70763390895688,8.910973624067402,0.5595209374504596,80.20443372747273
23.0,95.53342458870773,7.986988838271154,0.5585054826733269,81.20385154298593
24.0,95.36019898016579,7.158944040065891,0.5574957679615541,82.20326935849913
25.0,95.18786376813291,6.416846417601691,0.5564912478644936,83.20268717401233
26.0,95.01632696537489,5.75175093342146,0.5554913846834288,84.20210498952552
27.0,94.84549780030237,5.155649133591955,0.5544956478151077,85.20152280503872
28.0,94.67528660199693,4.6213655497404265,0.5535035130797824,86.20094062055192
29.0,94.50560469103256,4.142475147161249,0.5525144620830849,87.2003584360651
30.0,94.33636427409904,3.713224896141634,0.5515279816000828,88.1997762515783
31.0,94.16747833690346,3.3284588611922885,0.5505435629492977,89.1991940670915
32.0,93.99886054125137,2.9835590511261287,0.5495607013911208,90.1986118826047
33.0,93.83042512521682,2.674389972721738,0.5485788955442361,91.19802969811789
34.0,93.66208680260341,2.397244569638461,0.5475976467979289,92.19744751363109
35.0,93.49376066533165,2.148801717973198,0.5466164587414687,93.1968653291443
36.0,93.32536208801766,1.926086939740804,0.5456348366062544,94.1962831446575
37.0,93.15680663279461,1.7264334626705367,0.5446522867094015,95.1957009601707
38.0,92.98800995622024,1.5474515935391022,0.5436683159095025,96.19511877568391
39.0,92.81888771736769,1.3870008205917248,0.5426824310692546,97.1945365911971
40.0,92.64935548694554,1.2431618171979983,0.5416941385241208,98.1939544067103
41.0,92.4793286581056,1.1142143170753818,0.5407029435608466,99.19337222222352
42.0,92.30872235738191,0.9986172616279911,0.5397083498966894,100.19279003773671
43.0,92.13745135721022,0.8949887088759775,0.5387098591679003,101.19220785324991
44.0,91.96542999018507,0.8020898121683382,0.5377069704283617,102.19162566876311
45.0,91.79257206241691,0.7188106630745725,0.5366991796429073,103.19104348427632
46.0,91.6187907687422,0.6441558998975411,0.5356859791914808,104.19046129978952
47.0,91.44399861015876,0.5772330803758658,0.5346668573863119,105.18987911530272
48.0,91.26810730941264,0.5172425657581172,0.533641297978228,106.18929693081591
49.0,91.0910277284146,0.4634672310460733,0.5326087796736605,107.18871474632913
50.0,90.91266978877906,0.4152640093786687,0.5315687756699232,108.18813256184232
51.0,90.73294238971013,0.37205664965868884,0.5305207531749235,109.18755037735552
52.0,90.55175332740528,0.33332837324634557,0.5294641729357369,110.18696819286873
53.0,90.36900921884263,0.2986157134238203,0.5283984887928354,111.18638600838193
54.0,90.18461542231718,0.26750332062160415,0.5273231472152524,112.18580382389513
55.0,89.99847595892446,0.23961873183512086,0.5262375857196792,113.18522187078901
56.0,89.81049343999129,0.21462787468802536,0.5251413058685417,114.18462545221993
57.0,89.6205689909243,0.19223133470310647,0.524033904115767,115.18397831260765
58.0,89.42860217523385,0.17216063686830257,0.5229148288678623,116.18327268694213
59.0,89.23449092629089,0.15417495959510555,0.5217835176786827,117.18250100757582
60.0,89.03813147549847,0.138058448008267,0.5206394029992676,118.18165461870534
61.0,88.83941827974355,0.12361757580875032,0.5194819125303047,119.18072359919633
62.0,88.63824395850143,0.11067873992822981,0.518310469733377,120.17969656137988
63.0,88.43449922770733,0.09908632579024688,0.5171244944847604,121.17856041231228
64.0,88.2280728320649,0.08870083516424533,0.5159234039196404,122.17730006841508
65.0,88.01885148886105,0.07939712724610525,0.5147066135117525,123.17589813020432
66.0,87.80671982936467,0.07106302398989267,0.513473538395381,124.17433449672652
67.0,87.59156033799903,0.06359797907340205,0.5122235950035716,125.17258590231278
68.0,87.37325330465085,0.056911795604822485,0.5109562030624727,126.1706253862531
69.0,87.1516767759401,0.05092361849570599,0.509670787987363,127.16842166540992
70.0,86.92670650384778,0.04556098666646333,0.5083667838042012,128.16593837773374
71.0,86.69821590885056,0.040758900956607426,0.5070436366220461,129.16313321241603
72.0,86.46607604394731,0.03645909458495971,0.5057008087569891,130.15995688398777
73.0,86.23015555596686,0.03260935722323443,0.5043377837223991,131.15635189313872
74.0,85.9903206624889,0.0291628593810805,0.5029540720852799,132.15225109634724
75.0,85.74643513209561,0.026077623164788875,0.5015492183565825,133.14757602645722
76.0,85.49836026225157,0.023316039522095492,0.5001228092865139,134.14223486504414
77.0,85.24595487367601,0.020844379879673157,0.498674483525975,135.13612009622068
78.0,84.98907531090032,0.018632411511226476,0.4972039428828697,136.12910577010953
79.0,84.72757544129696,0.016653052254262057,0.4957109657950489,137.12104421026757
80.0,84.46130667133097,0.014882018457622425,0.49419542292103363,138.111762204643
81.0,84.01183682608583,0.19810475386312898,0.49265729514969864,139.10105658802232
82.0,83.19458510321068,0.8350880847881902,0.4910966947534989,140.08868902559888
83.0,82.42001163031698,1.5618824776080296,0.489513889662696,141.07437999926088
84.0,81.70518672256368,2.393284873510946,0.4879093314820535,142.05780181992876
85.0,81.07172768365812,3.3465452761171988,0.48628368733307303,143.038570635579
86.0,80.54693942824132,4.441746423969184,0.48463787594051455,144.01623730289958
87.0,80.16523158667296,5.702227875150509,0.48297310807245164,144.99027706881975
88.0,79.96987030882306,7.155052725041945,0.48129093122283184,145.96007805714615
89.0,80.01514841205565,8.83151545444905,0.47959327847994254,146.92492853338763
90.0,80.36904988095468,10.767678942706576,0.4778825205653351,147.88400315983662
91.0,81.1165075378699,13.004928721359132,0.47616152003445744,148.8363484436346
92.0,82.36338397099382,15.590521255360924,0.47443368569246763,149.78086781422599
93.0,84.24126776048514,18.57809811220152,0.47270302467364206,150.71630692061487
94.0,86.91322683047342,22.02811498235391,0.47097418777542444,151.64124022121217
95.0,90.58067844968457,26.008145850332763,0.46925250450864303,152.55405971070633
96.0,95.4914058033457,30.59297619422319,0.4675440000973531,153.45296776588603
97.0,101.94888017004871,35.864425676972196,0.46585538911689556,154.33597545710796
98.0,110.32289725311298,41.91080572247218,0.46419403720472435,155.2009085869573
99.0,121.06148257928525,48.82593843073055,0.46256788397887844,156.04542331843643
100.0,134.70389959783333,56.70766536518076,0.46098532044274276,156.8670333084252
101.0,151.89450389346686,65.65581141688342,0.4594550173115086,157.66314950644096
102.0,173.39700635258325,75.76961179793086,0.4579857043153706,158.43113290245364
103.0,200.10857162864238,87.14467407009839,0.4565859063080608,159.16835910187092
104.0,233.07313089445972,99.86960266527,0.45526364657818863,159.87229227347083
105.0,273.49277425720055,114.02251916585611,0.4540261374161701,160.54056375369106
106.0,322.7369620797024,129.66770146399185,0.4528794774843273,161.17105023766825
107.0,382.34812383010023,146.85268328383307,0.45182838558955457,161.76194414041268
108.0,454.04379491802666,165.60602140848863,0.4508759897684489,162.31181093773867
109.0,539.7142086426472,185.93601884208772,0.4500236972120309,162.81962677985092
110.0,641.4160972032578,207.83044947377496,0.44927115031901876,163.28479449890153
111.0,761.362253930037,231.2573599127641,0.44861627618125627,163.70713580560806
112.0,901.9080538030065,256.1667909134113,0.44805541720889086,164.08686239452186
113.0,1065.5352967880438,282.4932430038807,0.44758352820334757,164.42452945480156
114.0,1254.8342428938092,310.1586411043751,0.4471944194786327,164.72097665686871
115.0,1472.4848633095728,339.0755054486717,0.44688102094509785,164.9772629784568
116.0,1721.237748834468,369.1501009201862,0.4466356474580922,165.1946004715388
117.0,2003.8953597694635,400.28535670483984,0.4464502472742093,165.37429172850986
118.0,2323.2939601179087,432.38342003860015,0.4463166217303611,165.51767423867224
119.0,2682.2863333318205,465.34776073665194,0.4462266082304073,165.62607379789455
120.0,3083.725462449417,499.0848214215126,0.4461722257591832,165.70076730331104
121.0,3530.449124138791,533.5051901235861,0.4461457811167067,165.74295551829712
122.0,4025.2648821382954,568.5244053520074,0.44613994350157515,165.75374389969053
123.0,4570.9361626190785,604.0633709280969,0.4461477873035022,165.73413162491698
124.0,5170.1679247125385,640.0485529579604,0.44616281521805146,165.68500570256955
125.0,5825.593384893338,676.4118974124422,0.44617895856591644,165.6071410435362
126.0,6539.760480680136,713.090624864883,0.4461905667638748,165.50120339886084
127.0,7315.117873747169,750.0269408638045,0.44619238892235086,165.36775442113708
128.0,8154.001406137125,787.1676387162721,0.44617954682239247,165.20725906092338
129.0,9058.620693178418,824.4636796566361,0.4461475052535841,165.02009374204772
130.0,10031.044588633198,861.8697779576675,0.4460920429530638,164.80655449537224
131.0,11073.187651621742,899.3439729602741,0.4460092218711825,164.56686562783923
132.0,12186.796443437355,936.8472208708074,0.44589535824385307,164.30118802392644
133.0,13373.436341792136,974.3430237624137,0.44574699615962243,164.00962689356945
134.0,14634.474932183522,1011.7971087190476,0.44556088600981586,163.6922384574688
135.0,15971.06751307012,1049.1770813590733,0.44533396106531403,163.34903721959455
136.0,17384.156124287416,1086.4520761891604,0.4450633111344962,162.98000356348865
137.0,18874.442446395442,1123.592678455203,0.44474618088388534,162.58508610647291
138.0,20442.368930863435,1160.5705315524954,0.4443799472151638,162.16420917097633
139.0,22088.15636948528,1197.3582265549912,0.4439621002922326,161.7172773611554
140.0,23811.702552643448,1233.9291034627022,0.44349025507736994,161.2441778532299
141.0,25612.679115506155,1270.2572076905535,0.44296212452992906,160.7447852305748
142.0,27490.460794338214,1306.3168861948063,0.44237550952153276,160.21896611252933
143.0,29444.074860723355,1342.0831323637967,0.4417283384557659,159.666578161786
144.0,31472.374173251035,1377.531041596565,0.44101858600000454,159.08747716854074
145.0,33573.7818785844,1412.6360423213068,0.4402443565777376,158.48151633467546
146.0,35746.51314461871,1447.3737050476839,0.43940381618214386,157.84854918193014
147.0,37988.4097321338,1481.7197871861306,0.43849524654460786,157.1884323253575
148.0,40297.07717562871,1515.6501268233599,0.4375169970485269,156.50102526011403
149.0,42669.77019076393,1549.1406851465908,0.4364675348169329,155.7861945722519
150.0,45103.49559587607,1582.167492050146,0.4353454018803095,155.04381212484108
151.0,47594.94549103741,1614.7066740546843,0.4341492607757465,154.27375991043718
152.0,50140.55573843875,1646.7344511049168,0.4328778599097369,153.47592752826552
153.0,52713.077657271475,1710.860221763604,0.5285083762732963,62.65857280611675
154.0,55416.307878921085,1783.7424126369378,0.5515199111199808,50.46680109023771
155.0,58269.75064100249,1928.2076707859533,0.5560872746249332,46.626687565592775
156.0,61428.862863113434,2136.4031841021233,0.5569740829922045,44.21403209101531
157.0,65038.489297896114,2410.104035141407,0.5562551070786955,42.4076204602589
158.0,69249.37301500762,2752.3948600395547,0.5546712309774687,40.93419073153333
159.0,74220.12730928436,3166.3836118331174,0.5525743850485607,39.670289555182045
160.0,80116.59064743207,3654.745119566951,0.5501585727115319,38.55046713944545
161.0,87110.18849578811,4219.51122558186,0.547540923651092,37.536378254619706
162.0,95375.62918221831,4861.972339291733,0.5447965317061527,36.60395462259746
163.0,105088.39253929208,5582.636184333934,0.5419756206997985,35.73728172373335
164.0,116422.01554333587,6381.225199979774,0.5391128348474573,34.92538666358167
165.0,129545.51252696707,7256.697979281423,0.536232652114869,34.1604239144383
166.0,144620.68991858425,8207.291108353873,0.5333526979873602,33.43660021995481
167.0,161799.72869102002,9230.568289207842,0.5304858564790964,32.749510282553445
168.0,181223.06994068748,10323.48198660389,0.527641685220695,32.095705835324495
169.0,203017.09416047853,11482.43782725821,0.5248273481025508,31.472420837257697
170.0,227292.64880884462,12703.362512516447,0.5220482825334762,30.877379500167677
171.0,254143.4788495272,13981.76941569772,0.5193086502518285,30.308670573622432
172.0,283644.8707054372,15312.829629614582,0.5166116698986858,29.764657277279305
173.0,315853.07098497235,16691.43497754478,0.5139598528158877,29.243913539881852
174.0,350804.54372407374,18112.262692767436,0.5113551743961704,28.745179350794942
175.0,388515.69178242836,19569.83708326104,0.508799202027566,28.26732752107428
176.0,428982.9078106354,21058.585615042084,0.5062931876454418,27.80933945214658
177.0,472182.83481374336,22572.893023693785,0.5038381382912454,27.370286762217848
178.0,518072.7739435394,24107.151761578847,0.5014348686735423,26.949317706023628
179.0,566591.4616606679,25655.80824297002,0.4990840420604837,26.54564633310767
180.0,617660.4580307159,27259.20453580674,0.4967861996109122,26.15854314755084
181.0,671326.3823078326,29020.910210508526,0.4945417844215698,25.787329920894756
182.0,727954.6073712999,31107.4724797025,0.4923511581806668,25.431372850546325
183.0,788348.4683008642,33682.687687542406,0.4902146170569665,25.09007879866168
184.0,853726.9680880326,36908.00839321921,0.48813240191525065,24.762891320207483
185.0,925706.1137796257,40941.54421115495,0.4861047068346917,24.449287479376697
186.0,1006273.9422364552,45934.67398309465,0.4841316859701407,24.148775093362
187.0,1097756.6605114222,52028.33212397504,0.4822134588821388,23.860890372792
188.0,1202773.8370065328,59349.66501150294,0.48035011488298224,23.585195827555125
189.0,1324185.812991893,68009.30192730487,0.47854171649049937,23.321278418481526
190.0,1465035.7736881396,78099.32900152745,0.4767883021917122,23.06874790998518
191.0,1628488.0286935363,89691.98898136616,0.47508988871353713,22.827235385869063
192.0,1817764.1588127087,102839.05121154244,0.47344647289304614,22.596391921687854
193.0,2036082.5246050134,117571.77594187582,0.47185803316042785,22.37588735080083
194.0,2286598.2316571143,133901.3926349896,0.47032453080465464,22.165409166026727
195.0,2572350.3796433676,151820.00672641862,0.4688459109854878,21.96466147872967
196.0,2896209.7249768684,171301.83935978613,0.4674221036309286,21.77336410583628
197.0,3260840.8087298675,192304.67688491748,0.4660530240621379,21.591251689593097
198.0,3668659.9577075583,214771.61692481543,0.4647385737098486,21.418072891233017
199.0,4121815.9605148383,238632.74881046315,0.463478640481121,21.25358963389662
200.0,4622158.171111982,263805.980031562,0.462273099266795,21.09757646545931
201.0,5171211.909990632,290224.799751914,0.46112181226071824,20.949819882771525
202.0,5770275.510152324,317968.43177278957,0.46002462928111937,20.810117692847616
203.0,6420902.413603592,347395.55233886157,0.4589813879624599,20.678278476415066
204.0,7125692.388632222,379171.04952413775,0.45799191398914074,20.55412109822706
205.0,7889076.99487552,414221.0590908442,0.45705602128027545,20.437474182844433
206.0,8717946.267634694,453694.6737437419,0.45617351212288076,20.328175661585792
207.0,9622147.371111,498921.4708285789,0.4553441772863375,20.22607233976511
208.0,10614843.817886971,551365.2895432219,0.4545677961149537,20.13101949082916
209.0,11712732.663552942,612576.254982506,0.4538441366002763,20.042880474731476
210.0,12936121.50168769,684143.3517895713,0.45317295543260827,19.961526379679086
211.0,14308879.500123926,767649.4919212227,0.45255399804486124,19.886835683067307
212.0,15858268.22458649,864630.8098851279,0.451986998639572,19.81869393117003
213.0,17614674.3862528,976541.138660198,0.4514716802026663,19.756993437685534
214.0,19611263.327735793,1104722.27481837,0.4510077545068848,19.701632998871485
215.0,21883572.609506756,1250380.2512580364,0.450594922105771,19.652517624077007
216.0,24469062.55405792,1414567.5396298245,0.4502328723163793,19.60955828087691
217.0,27406650.619806953,1598170.8076340016,0.44992128320215097,19.572671653416563
218.0,30736229.99652565,1801903.849354158,0.4496598215382803,19.54177991425802
219.0,34498200.3354327,2026305.2342568296,0.4494481427878505,19.516810502946793
220.0,38733023.70968362,2271739.0393384825,0.4492858910807099,19.497695916485473
221.0,43480741.00520921,2538439.596834057,0.44917269909268287,19.484373524364766
222.0,48780817.715164855,2826715.3093416463,0.44910818814596154,19.47678536347865
223.0,54672407.21571291,3137299.986176012,0.44909196797388,19.4748779743479
224.0,61195876.15598685,3471684.3194281287,0.4491236368998176,19.478602211170184
225.0,68394876.05184937,3832369.1194358356,0.4492027815575956,19.487913103568854
226.0,76319106.09822886,4223019.450891291,0.4493289769928385,19.502769669739298
227.0,85027438.01036346,4648557.655525625,0.4495017866087669,19.523134783959243
228.0,94591020.17267367,5115187.413127012,0.44972076208143474,19.54897502975359
229.0,105096399.3038603,5630353.294629127,0.4499854433729669,19.580260554739706
230.0,116648182.33046369,6202657.977332967,0.45029535861722475,19.61696493535831
231.0,129371766.00695503,6841733.113915339,0.4506500241613237,19.659065055018225
232.0,143415083.61198327,7558083.517618546,0.4510489445152504,19.706540963134973
233.0,158950354.57631233,8362913.837313759,0.45149161231140994,19.759375771215645
234.0,176174935.79844278,9267938.855850661,0.45197750836320527,19.817555515273828
235.0,195311696.85264304,10285199.694179753,0.45250610155920623,19.881069056389673
236.0,216609158.83881482,11426872.64532595,0.4530768489889323,19.949907956905687
237.0,240340454.53408122,12705098.925117627,0.45368919584544753,20.024066375487337
238.0,266802798.94270864,14131813.41330562,0.45434257554260443,20.103540961044292
239.0,296315381.1651242,15718602.855552984,0.45503640969628734,20.188330740304334
240.0,329218035.1493405,17476566.311856277,0.4557701081866979,20.2784370258867
241.0,365868681.63882,19416208.74285758,0.4565430692493199,20.373863301272678
242.0,406640951.1386753,21547397.783548698,0.4573546794785122,20.474615134326758
243.0,451922008.1019321,23879493.114255637,0.458204314013661,20.58070006754095
244.0,502109885.2110968,26421702.096632477,0.45909133651555706,20.692127530024088
245.0,557613241.8919783,29183590.531674284,0.46001509940457613,20.808908733147945
246.0,618851264.619813,32175705.909124922,0.4609749438716538,20.93105658560085
247.0,686255592.3647741,35410206.07224662,0.4619702001058108,21.058585587903345
248.0,760274374.4656804,38901484.43529685,0.46300018739385485,21.19151175188186
