Time,J,A,S,tau
0.0,100.0,100.0,0.689737645498063,24.429425419680367
1.0,90.27797114381531,124.98391294994846,0.6919829068062041,24.837925498924598
2.0,84.33817155869838,147.5087205124997,0.6942552383100689,25.256988500888074
3.0,81.11717748534846,167.76405707394903,0.6965521245800723,25.686285395866616
4.0,79.73781450187779,185.92812093850037,0.6988714806564654,26.125554400180913
5.0,90.20417099171654,191.26474269980892,0.6991955860433987,26.763873835524855
6.0,118.12451390403871,176.14390523677113,0.6957999979257813,27.763337528148647
7.0,141.83319596815468,162.15656557632667,0.6925236072842762,28.76309323389445
8.0,161.91588098016695,149.23668408183534,0.6893636593313277,29.76284893964025
9.0,178.89406901588865,137.30675891673496,0.6863145945745928,30.76260464538605
10.0,193.2180599766961,126.29457845238795,0.6833711361017184,31.762360351131854
11.0,205.27596164313502,116.1328932169372,0.6805282735529173,32.76211605687766
12.0,215.40170726426499,106.75910208391575,0.6777812480208759,33.761871762623464
13.0,223.88213405021614,98.11494893601895,0.6751255380151986,34.76162746836927
14.0,230.96330665735746,90.14622060476327,0.672556845820492,35.761383174115075
15.0,236.85588935820232,82.80254509501981,0.6700710854295394,36.76113887986087
16.0,241.74008837765024,76.03705223678406,0.6676643704897505,37.76089458560667
17.0,245.7697101443667,69.80624427542669,0.6653330038531926,38.760650291352476
18.0,249.07602207935864,64.06969554931288,0.6630734660559437,39.76040599709828
19.0,251.77079666213277,58.78985396773558,0.6608824067913133,40.76016170284409
20.0,253.94909474508705,53.93195330209688,0.6587566353138532,41.759917408589885
21.0,253.35963841171338,45.11809398300874,0.6566931109831629,42.75967311433569
22.0,252.57211275542528,37.43494737363729,0.6546889360906553,43.75942882008149
23.0,251.8065039221996,31.05434944241904,0.6527413477588181,44.75918452582729
24.0,251.06179164536914,25.756918558811034,0.6508477106766263,45.75894023157309
25.0,250.3370024449776,21.359958473193636,0.6490055102322194,46.75869593731889
26.0,249.63120711027327,17.711371257529652,0.6472123460199898,47.75845164306469
27.0,248.943518320528,14.684571524389435,0.6454659257041193,48.758207348810494
28.0,248.27308839554942,12.174239110500421,0.6437640592163217,49.75796305455629
29.0,247.6191071678231,10.092773176974076,0.6421046532670142,50.7577187603021
30.0,246.98079996876515,8.367332877514176,0.6404857061505428,51.757474466047896
31.0,246.35742572218842,6.9373686710609945,0.6389053028266893,52.757230171793694
32.0,245.74827513849755,5.75256298364414,0.637361610261751,53.7569858775395
33.0,245.15266900247403,4.77111251593667,0.6358528730107925,54.75674158328529
34.0,244.56995655020344,3.95829801752397,0.6343774090296118,55.75649728903108
35.0,243.99951392938152,3.2852920126312535,0.6329336057015668,56.75625299477687
36.0,243.4407427378988,2.728165686701361,0.6315199160661171,57.75600870052266
37.0,242.89306863599407,2.2670619464779,0.6301348552369432,58.755764406268455
38.0,242.35594002755153,1.8855070680779822,0.6287769969982373,59.75552011201424
39.0,241.82882680638883,1.5698378890165592,0.627444970568461,60.75527581776003
40.0,241.31121916378723,1.3087253973856845,0.6261374575219082,61.75503152350582
41.0,240.80262645330453,1.092778276331392,0.6248531888578641,62.75478722925161
42.0,240.30257610923863,0.9142134471074365,0.6235909422079983,63.7545429349974
43.0,239.81061261608116,0.7665823466015582,0.6223495391751317,64.7542986407432
44.0,239.32629652559524,0.6445434229552174,0.6211278427946986,65.75405434648899
45.0,238.84920351862567,0.5436731658326177,0.6199247551114471,66.75381005223478
46.0,238.37892350890615,0.46030919064517023,0.6187392148643237,67.75356575798057
47.0,237.91505978628064,0.3914199775266765,0.6175701952728808,68.75332146372635
48.0,237.45722819645061,0.3344966402429821,0.6164167019177563,69.75307716947218
49.0,237.00505635729198,0.28746369767244373,0.6152777707153353,70.75283287521799
50.0,236.55818290541612,0.2486041335414802,0.6141524659702801,71.75258858096382
51.0,236.11625677189144,0.21649785871488836,0.6130398785031409,72.75234428670964
52.0,235.67893649078252,0.18997078950314433,0.6119391238624498,73.75209999245547
53.0,235.2458895327098,0.1680522215853036,0.610849340601198,74.75185569820127
54.0,234.8167916576602,0.14993987726201707,0.6097696886028549,75.75161140394707
55.0,234.39132630216957,0.13497079405894058,0.608699347495806,76.75136710969288
56.0,233.9691839741699,0.12259712999618941,0.6076375150875015,77.75112281543869
57.0,233.55006168167068,0.1123663647595492,0.606583405885587,78.7508785211845
58.0,233.13366236905648,0.10390474091829643,0.6055362496386026,79.75063422693032
59.0,232.71969437509964,0.09690357461476003,0.6044952899324748,80.75038993267613
60.0,232.30787090765887,0.09110797752198098,0.6034597828298365,81.75014563842193
61.0,231.89790953093944,0.08630750872170162,0.6024289955415797,82.74990134416774
62.0,231.48953166652512,0.08232846890181812,0.6014022051337209,83.74965704991355
63.0,231.0824621065754,0.0790274672049443,0.6003786972654418,84.74941275565936
64.0,230.67642853976903,0.07628620979155736,0.5993577649596982,85.74916846140518
65.0,230.27116108291634,0.07400698236014282,0.5983387073883928,86.74892416715099
66.0,229.8663918245804,0.07210924266095872,0.5973208286883002,87.74867987289679
67.0,229.46185438059535,0.0705264880700767,0.5963034368068434,88.7484355786426
68.0,229.05728344616463,0.0692039148804459,0.5952858423399495,89.7481912843884
69.0,228.65241436523408,0.06809618173781558,0.5942673574130256,90.7479469901342
70.0,228.24698269790395,0.06716599683228051,0.5932472945570411,91.74770269588
71.0,227.84072379423588,0.06638257763122826,0.5922249656010893,92.74745840162579
72.0,227.43337237651775,0.06572046018828069,0.5911996805865456,93.7472141073716
73.0,227.02466211630878,0.0651586784242807,0.5901707466664463,94.7469698131174
74.0,226.61432521616774,0.06467996667562288,0.5891374670174485,95.7467255188632
75.0,226.20209200803475,0.06426997798062335,0.5880991397952079,96.746481224609
76.0,225.78769052275933,0.06391695749441013,0.5870550570127774,97.74623693035481
77.0,225.37084606987403,0.06361118208137295,0.5860045034459919,98.74599263610061
78.0,224.95128082301807,0.06334458265749401,0.5849467555535884,99.74574834184642
79.0,224.52871351678516,0.063110444936459,0.5838810806906314,100.74550404759222
80.0,224.10285886137092,0.06290340393241896,0.5828067355772266,101.74525975333803
81.0,223.67342701990302,0.06271884943030433,0.5817229649324314,102.74501545908383
82.0,223.24012391554598,0.06255291571345555,0.5806290022939958,103.74477116482964
83.0,222.8026494649679,0.062402681442186976,0.5795240653782613,104.74452687057544
84.0,222.3606988317789,0.06226528215793484,0.578407359384054,105.74428257632125
85.0,221.9139601694396,0.06213886002166295,0.5772780710708721,106.74403828206705
86.0,221.46211645633758,0.06202127775101583,0.5761353735799262,107.74379398781285
87.0,221.00484148990333,0.061911363488084306,0.5749784159280589,108.74354969355865
88.0,220.5418057356789,0.06180756665638977,0.5738063383623457,109.74330539930446
89.0,220.07266617140894,0.0617089121926445,0.5726182457052462,110.74306110505026
90.0,219.5970766485669,0.061614740277599334,0.5714132345709809,111.74281681079607
91.0,219.11468231460026,0.06152378886813344,0.5701903786924286,112.74257251654187
92.0,218.6251115369548,0.06143571052871525,0.5689487077761818,113.74232822228768
93.0,218.12799203515013,0.06135021897296601,0.567687249827455,114.74208392803348
94.0,217.62294695298445,0.06126613615584067,0.5664050207870819,115.74183963377928
95.0,217.1095691561568,0.06118316965482919,0.5651009571761063,116.74159533952508
96.0,216.5874463466733,0.06110135374781587,0.5637739819818037,117.74135104527087
97.0,216.05616653032547,0.061020698643281204,0.5624230189865966,118.74110675101667
98.0,215.51531897226565,0.06094009434005844,0.5610469951828252,119.74086245676249
99.0,214.96444779199408,0.06085902362510929,0.5596447191431111,120.74061816250828
100.0,214.4030821010715,0.060777627329880415,0.5582149601123987,121.74037386825408
101.0,213.83075101105877,0.06069604628581846,0.5567564873356322,122.7401295739999
102.0,213.2469836522331,0.06061441983213378,0.5552680701067019,123.73988527974569
103.0,212.65130832809697,0.06053187533372864,0.5537484754313305,124.73964098549149
104.0,212.0432018633037,0.06044766095544296,0.5521963352255758,125.7393966912373
105.0,211.42211881875625,0.06036188127300481,0.5506102230754871,126.7391523969831
106.0,210.78751375535765,0.060274640862142265,0.548988712567114,127.73890810272891
107.0,210.13884123401084,0.06018604429858338,0.5473303772865057,128.7386638084747
108.0,209.47554131773646,0.06009575360467275,0.5456337526878403,129.73841951422054
109.0,208.79922868853618,0.06396946073969179,0.543897283040126,130.73817521996637
110.0,208.10859317980143,0.06929037772838838,0.5421193865602607,131.73793092571213
111.0,207.40209893547797,0.07415435780590814,0.5402984371027715,132.73768663145796
112.0,206.6791497641688,0.07860095761709524,0.5384327641677485,133.73744233720376
113.0,205.93913548884154,0.08266615005473066,0.5365206520808,134.73719804294956
114.0,205.18143189543315,0.08638264938576437,0.5345603396870703,135.73695374869538
115.0,204.405400765093,0.08978019747619077,0.5325500202924899,136.73670945444118
116.0,203.6103898086039,0.09288584089570089,0.5304878414457103,137.73646516018698
117.0,202.79573278654513,0.09572417413756838,0.5283719052797596,138.7362208659328
118.0,201.96074950117045,0.09831754371955513,0.5262002684978542,139.7359765716786
119.0,201.1047460298415,0.10068626338387503,0.5239709432458317,140.7357322774244
120.0,200.22701477599128,0.10284879418531029,0.5216818975231683,141.73548798317023
121.0,199.32683483333943,0.1048218920416592,0.5193310564833831,142.73524368891603
122.0,198.40347218136472,0.10662080668762197,0.5169163037676415,143.73499939466183
123.0,197.4561797852346,0.10825921642135178,0.514435481206109,144.73475510040765
124.0,190.59008568459564,6.08914832965759,0.5129886923028575,145.59303632460225
125.0,168.88222351318183,28.500685136486396,0.5146912447796254,146.0374376380219
126.0,150.99957512958815,49.69089117796198,0.5163986499070188,146.47075453146326
127.0,137.33648929810843,69.73298986245346,0.5180996935943053,146.8939427877438
128.0,128.25673573649914,88.74200823921886,0.5197925151492516,147.30673800112518
129.0,124.14601416358201,106.8233239152834,0.5214751166401127,147.70887156225027
130.0,125.41148550811815,124.07350591675427,0.5231453565858024,148.10007067547716
131.0,132.48098747476055,140.58108451801587,0.5248009435874164,148.48005838103683
132.0,145.80193441111714,156.42724721736064,0.5264394299196217,148.8485535847301
133.0,165.83983741851728,171.68647377530024,0.5280582051277019,149.20527109584503
134.0,193.07643291584213,186.4271101994564,0.5296544896406513,149.54992167298505
135.0,228.00738249180247,200.71188841242028,0.5312253284467119,149.88221207837705
136.0,271.1394987776766,214.59839924602207,0.5327675849092393,150.20184514168756
137.0,322.9875411590998,228.1395103975634,0.5342779346225679,150.50851983067105
138.0,384.07043174546413,241.3837565258972,0.5357528595973408,150.80193133396506
139.0,454.90699222081133,254.37568337216265,0.5371886426201093,151.0817711519596
140.0,536.0111671172585,267.15616430839793,0.53858136231295,151.34772720382472
141.0,627.8867008130175,279.76266676915014,0.539926887511999,151.59948392748447
142.0,731.0212994189587,292.2295268933151,0.5412208740239602,151.83672242073686
143.0,845.8802549911834,304.5881473647166,0.5424587592299623,152.05912055237658
144.0,972.8998449226274,316.86722550788045,0.5436357608260131,152.266353135069
145.0,1112.4799962779014,329.0929126749387,0.5447468729831861,152.4580920627892
146.0,1264.9767729876248,341.28897596648625,0.5457868648512322,152.63400648311713
147.0,1430.6946179188028,353.4769413908503,0.5467502802751111,152.79376298360506
148.0,1609.8784123512935,365.67621023222046,0.5476314381979889,152.93702578566197
149.0,1802.7062803753245,377.9041653452554,0.5484244360925605,153.06345696504923
150.0,2009.2809617559947,390.1762931469387,0.549123150618272,153.17271664738595
151.0,2229.6155144264562,402.5061095569948,0.5497212297004254,153.26446317799898
152.0,2463.6424560271853,414.90571803351565,0.5502121339858117,153.33835358731392
153.0,2711.182920748707,427.3852090492609,0.5505890952750744,153.39404356178167
154.0,2981.8233662536277,427.2276295418314,0.549127398342815,153.0387284532332
155.0,3255.9758825188233,423.1653173523222,0.5461965548364828,152.33946284472512
156.0,3526.937801526281,423.39928559296254,0.5429654269464058,151.54856273708637
157.0,3787.258649771713,498.2243160378836,0.7373638011571129,31.680465728966976
158.0,4131.605977462158,477.5240078298097,0.7325732595697814,30.86785838878754
159.0,4450.8223227264825,469.7885242920601,0.7277237061394404,30.07846950760474
160.0,4754.1803265790895,475.2428393540719,0.7228181951203826,29.312102074921736
161.0,5051.468492547836,494.13722485015404,0.7178598138297199,28.568490260034153
162.0,5352.873221811873,526.72477286393,0.7128516788379297,27.84730979397049
163.0,5668.831218219977,573.2382017893163,0.7077969322620954,27.148187420057397
164.0,6009.8470295836405,633.8668097089965,0.7026987388064875,26.47070948983806
165.0,6386.290857025196,708.7334350359035,0.6975602821737755,25.814429621670474
166.0,6808.171822331378,797.8725999242646,0.6923847618334467,25.178875517025226
167.0,7284.884938458428,901.2111199237139,0.6871753910387995,24.563555127277294
168.0,7824.964824038006,1018.5497056535833,0.6819353930430267,23.967961851577314
169.0,8435.843377422814,1149.5486315183782,0.6766679975172708,23.391579161574633
170.0,9123.578106173698,1293.7172919382106,0.6713764403911698,22.8338848317769
171.0,9892.648816056868,1450.4076624319275,0.6660639601710915,22.29435433478888
172.0,10745.779742028064,1618.809960464216,0.6607337927181224,21.77246358067055
173.0,11683.760170447209,1797.9558675476035,0.6553891716724256,21.267691725234293
174.0,12705.355304534776,1986.7251527101955,0.6500333247075328,20.779523179854
175.0,13813.846552225375,2174.9735176457543,0.6446694721322154,20.307449462386096
176.0,14997.701328575455,2355.257940762462,0.6393008187862318,19.85097029399362
177.0,16206.599554554063,2586.7672683298474,0.6339305564946763,19.40959515174883
178.0,17512.649258493344,2785.159214055739,0.6285618601365917,18.982844131359055
179.0,18862.553376760763,2971.420839269808,0.6231978850234272,18.57024869335273
180.0,20221.273626585935,3165.2950156229585,0.6178417637203071,18.17135219938112
181.0,21569.582876909222,3384.9184909335872,0.6124966034668087,17.78571033448599
182.0,22901.378310774417,3646.4268306694858,0.6071654832485966,17.412891377584966
183.0,24220.827041999913,3963.5598804052534,0.6018514512402469,17.052476373484225
184.0,25539.465620440078,4347.297308898446,0.5965575219305158,16.704059206601805
185.0,26873.334148878097,4805.563192284047,0.591286673483488,16.36724659554364
186.0,28240.29026834072,5343.032380923087,0.5860418450019673,16.04165798962254
187.0,29657.540901513836,5961.032283001277,0.5808259343439832,15.72692553120196
188.0,31139.538265565912,6657.608249956731,0.5756417968574589,15.422693860300642
189.0,32696.40671698693,7427.705151364234,0.5704922421953966,15.128619876001004
190.0,34334.861895401715,8261.279115582125,0.5653800285888004,14.844372390591923
191.0,36058.70382548365,9138.90838185461,0.5603078638341287,14.56963199391517
192.0,37841.68226942664,10066.359160553115,0.5552784031438993,14.304090758558603
193.0,39688.72140689461,11011.779020767965,0.550294246470252,14.047451935971226
194.0,41578.336907558216,11956.369580007195,0.5453579367346283,13.799429653361592
195.0,43467.68924753835,12902.373845223392,0.5404719585285811,13.559748617040695
196.0,45308.50026596185,13865.53740121807,0.5356387362915236,13.328143805443675
197.0,47057.118570840015,14868.450432698279,0.530860631398001,13.104360093143091
198.0,48679.913736423405,15935.026830068598,0.5261399427257564,12.888152019486284
199.0,50155.38734659592,17086.14196635656,0.5214789035056955,12.6792834117981
200.0,51473.754027874056,18336.56555614937,0.5168796818007213,12.477527124944956
201.0,52635.220457638075,19693.110750229942,0.5123443778014062,12.282664697929953
202.0,53647.21932512215,21153.834338345947,0.5078750262327514,12.094486166299431
203.0,54524.006050324555,22705.82617980854,0.5034735924881857,11.912789644992342
204.0,55278.822484421406,24330.99868138673,0.4991419722243993,11.737381064568256
205.0,55925.62763087931,26004.635963580084,0.49488199304803493,11.568073993258462
206.0,56478.99008204147,27694.514144056848,0.49069541258759963,11.404689269145422
207.0,56943.23626826959,29373.40905099778,0.4865839187379449,11.247054800064781
208.0,57311.09445829718,31024.442964861013,0.48254913043807224,11.095005293434498
209.0,57567.411191631196,32641.124626358305,0.47859259685946476,10.948382022018626
210.0,57694.42648175403,34224.5601883847,0.474715799706648,10.80703262711372
211.0,57676.46051792896,35779.68457292191,0.4709201514301482,10.670810836517862
212.0,57503.211316476656,37311.727923861035,0.4672069958398678,10.539576258990465
213.0,57171.36682028541,38823.548906535856,0.4635776098827519,10.413194115087913
214.0,56685.61533390604,40313.16019716071,0.46003320760848365,10.29153545259737
215.0,56056.550636243905,41774.3232543999,0.4565749349692106,10.17447623191426
216.0,55300.12051840589,43196.020783087064,0.4532038727547369,10.061897675823126
217.0,54435.483961768354,44563.60854426399,0.44992103965339836,9.95368593328518
218.0,53481.718206507896,45861.79076763271,0.4467273924389071,9.849731919545322
219.0,52455.39879398938,47077.31226179754,0.44362382725422916,9.749931153307553
220.0,51369.71373546356,48200.420058426425,0.4406111809696192,9.654183600964586
221.0,50234.782630670175,49225.12682455642,0.4376902325906323,9.562393529665282
222.0,49058.55094396935,50148.672916981675,0.43486170458244644,9.47446935017703
223.0,47847.96670149431,50970.59874113758,0.43212626457428205,9.390323515488918
224.0,46609.80149797447,51691.749988677395,0.4294845267255653,9.30987234934966
225.0,45351.210724622586,52313.533146874666,0.4269370534494149,9.233035931905347
226.0,44079.971939848176,52837.37455389171,0.42448435698630327,9.159737979520456
227.0,42804.3877640972,53264.4960020132,0.42212690097091665,9.089905730392129
228.0,41532.894629991715,53596.05611557642,0.41986510187675885,9.023469844559811
229.0,40273.496303075895,53833.48118723585,0.41769933046121593,8.960364297838204
230.0,39033.37878607602,53978.75360781131,0.41562991357565077,8.900526270178513
231.0,37818.715518378995,54034.57467686515,0.41365713571993695,8.84389604990355
232.0,36634.62678495668,54004.39463581322,0.4117812405302545,8.79041694231075
233.0,35485.257983638,53892.3338973225,0.41000243223158,8.74003518225539
234.0,34373.87730650724,53703.04654825771,0.40832087726223293,8.692699844631829
235.0,33303.225439124755,53441.52800081319,0.40673670448014815,8.648362800753507
236.0,32275.33482011728,53112.99832678669,0.4052500079367262,8.606978607875908
237.0,31291.76289136772,52722.76315704224,0.40386084787615273,8.568504442992447
238.0,30353.88519901943,52276.10376979922,0.40256925170278823,8.532899964388031
239.0,29462.66757094709,51778.25741127664,0.40137521342185944,8.500127425796265
240.0,28618.61206685918,51234.40005308473,0.400278698020243,8.470151453483842
241.0,27822.04153989624,50649.593139186094,0.39927964105882335,8.442938969107894
242.0,27073.122006734407,50028.75814624861,0.39837794693512496,8.418459278465832
243.0,26371.615325767405,49376.691936849915,0.3975734935359874,8.3966839371564
244.0,25717.151621813202,48698.02499394964,0.39686613228183404,8.377586620630623
245.0,25109.366988653925,47997.18476635431,0.39625568555730406,8.36114318407009
246.0,24547.652254055603,47278.406801090554,0.3957419504671523,8.347331630616797
247.0,24031.33359794792,46545.71723415956,0.39532469971626505,8.336131945932372
