Time,J,A,S,tau
0.0,100.0,100.0,0.9997986650074703,14.789840981392151
1.0,118.83532366026735,174.94780087060832,0.9997546499668055,14.410757999548798
2.0,188.57075672688558,247.29429378526797,0.9997174391825976,14.061568721859697
3.0,305.98292950039325,317.11735041082363,0.9996862343318272,13.742420694859511
4.0,467.8945779673278,384.49117432057545,0.9996603174977605,13.453458083472755
5.0,671.17921184774,449.48347044153957,0.9996390461778722,13.194843376414509
6.0,912.7655371228867,512.1557903243535,0.9996218459341586,12.966757219210635
7.0,1189.6420794577691,572.5638763187284,0.9996082037156568,12.769397818405464
8.0,1498.8618235667093,630.7580215013385,0.9995976616919271,12.602979811688627
9.0,1837.5469515884581,686.7834374030748,0.999589811695589,12.46773257261481
10.0,2202.8935500622047,740.680642456003,0.9995842901528589,12.36389785492235
11.0,2592.1762474116676,792.4858733881932,0.9995807734946097,12.291726715570745
12.0,3002.752528887975,842.2315310975652,0.9995789739396065,12.251475665925952
13.0,3428.542855635807,893.700573495854,0.9996035926679651,12.45435736195889
14.0,3854.361797685078,967.6343968281976,0.999633858874103,12.740687918672009
15.0,4291.185386862209,1063.5037361478458,0.999661358200537,13.040064932570491
16.0,4749.994022593965,1178.609022261084,0.9996863342854355,13.353250393526244
17.0,5239.55531919516,1310.350639279819,0.9997090106298144,13.681022863907796
18.0,5766.608528865231,1456.2324953802254,0.9997295920709802,14.024170385156584
19.0,6336.050410103311,1613.8664991301184,0.9997482661842682,14.383482128104246
20.0,6951.119345928923,1780.977764385063,0.9997652046110211,14.759738886280632
21.0,7613.574683835238,1955.4106561463234,0.9997805642777354,15.153702447446761
22.0,8323.876882321125,2135.134994128447,0.9997944885634465,15.566104080258828
23.0,9081.35908981622,2318.2520846888942,0.9998071084111525,15.997632572229305
24.0,9884.389874265044,2503.00163077424,0.999818543271107,16.448921474328326
25.0,10730.535335691236,2687.7663019018532,0.9998289021236857,16.920537228258517
26.0,11616.707073336484,2871.077074271717,0.9998382842939935,17.41296709736324
27.0,12539.300196363645,3051.617049417469,0.9998467802560964,17.926608095024147
28.0,13494.32568292871,3228.222671527707,0.9998544724234523,18.461758114780526
29.0,14477.527161154396,3399.884852226241,0.9998614357990175,19.01860787311416
30.0,15484.489369530747,3565.7470094632336,0.9998677386317124,19.597235881801105
31.0,16510.733967757544,3725.101843869029,0.999873442988971,20.19760542723818
32.0,17551.80146898452,3877.3863562660717,0.9998786052901002,20.819563986100437
33.0,18603.325111927694,4022.1743350181364,0.9998832768077154,21.46284588865278
34.0,19661.091097437027,4159.167653615881,0.9998875041178719,22.12707717030135
35.0,20721.0808318182,4288.193202368742,0.9998913295012956,22.8117823150069
36.0,21779.587788849785,4409.109477212124,0.9998947913422462,23.516394075413746
37.0,22832.989975085984,4522.053975480205,0.9998979244410323,24.240263421459368
38.0,23877.851613279687,4627.408134124205,0.9999007603756466,24.982672503311406
39.0,24911.207365803595,4725.506168710183,0.9999033277626133,25.74284656213322
40.0,25930.501048399034,4816.64966702716,0.9999056525499966,26.519967086207995
41.0,26933.5500739778,4901.1238292026355,0.9999077581730551,27.313183708216734
42.0,27918.49720803096,4979.2091312115035,0.9999096658587455,28.121627539585422
43.0,28883.7629151818,5051.186244900316,0.9999113948696073,28.9444223166879
44.0,29285.848679144165,4784.071120307456,0.9999129625649861,29.78069310159893
45.0,29285.840815076062,4311.95296980175,0.9999143846484707,30.62957678051356
46.0,29285.833793637597,3886.818056382185,0.9999156753062027,31.490229372696298
47.0,29285.827517836304,3503.941166229748,0.9999168473453598,32.36183242917747
48.0,29285.82190225415,3159.0763890166463,0.9999179123275902,33.24359805520327
49.0,29285.81687167308,2848.412947328687,0.9999188806823017,34.1347729571286
50.0,29285.81235981216,2568.5247150409587,0.9999197618154321,35.03464119560002
51.0,29285.80830822906,2316.3337735859,0.9999205642087373,35.94252594787347
52.0,29285.80466539225,2089.0746475160654,0.999921295505259,36.85779062705308
53.0,29285.80138581438,1884.2595625729912,0.9999219625937462,37.77983892764741
54.0,29285.798429334947,1699.6534643552955,0.9999225716803908,38.70811454906704
55.0,29285.795760476725,1533.2454496085825,0.9999231283553183,39.64210033380286
56.0,29285.793347868705,1383.226671478213,0.9999236376550288,40.581316888825484
57.0,29285.79116376814,1247.9709485339035,0.9999241041149766,41.52532120267215
58.0,29285.789183613833,1126.0139613610252,0.9999245318209061,42.47370476543892
59.0,29285.78738564856,1016.0387876004877,0.999924924453469,43.426091708919294
60.0,29285.785750590414,916.8600246939326,0.9999252853279126,44.3821369149339
61.0,29285.7842613299,827.4101875612231,0.9999256174321864,45.34152389843873
62.0,29285.78290268075,746.728993642856,0.9999259234587583,46.30396293744058
63.0,29285.78166115004,673.9511755125851,0.9999262058349117,47.269189082514366
64.0,29285.780524737787,608.2977409675286,0.9999264667498897,48.23696025022498
65.0,29285.77948276756,549.0673125205622,0.99992670817817,49.207055508758025
66.0,29285.778525727274,495.6276768255243,0.9999269319020846,50.17927327938954
67.0,29285.777645137357,447.40973601340363,0.9999271395308328,51.15342977935794
68.0,29285.776833431883,403.9004983450106,0.9999273325179902,52.129357515383354
69.0,29285.776083851375,364.63767836034174,0.99992751217771,53.10690383103918
70.0,29285.775390353952,329.20493755410314,0.9999276796982908,54.0859296641925
71.0,29285.774747531563,297.22673816249437,0.9999278361553084,55.0663082929752
72.0,29285.774150538913,268.36478673705506,0.9999279825229205,56.047924235444256
73.0,29285.77359503137,242.31408625813145,0.999928119683886,57.03067225130631
74.0,29285.77307710713,218.7995567878768,0.9999282484391124,58.01445636474321
75.0,29285.772593259597,197.57337318107403,0.9999283695155871,58.99918904362109
76.0,29285.772140333,178.41190888172315,0.9999284835739137,59.98479040114115
77.0,29285.771715483414,161.11355548521865,0.9999285912150301,60.97118747432028
78.0,29285.771316145696,145.49654594935654,0.9999286929859601,61.958313599287756
79.0,29285.770940002014,131.39682530744236,0.9999287893854023,62.946107793327265
80.0,29285.77058495566,118.66653112968518,0.9999288808684158,63.93451423318734
81.0,29285.77024910721,107.17221614743352,0.9999289678507459,64.92348176719372
82.0,29285.769930732793,96.79348345779886,0.99992905071283,65.91296345872287
83.0,29285.76962826598,87.42177939190705,0.9999291298031572,66.90291620114252
84.0,29285.76934028045,78.9590817021192,0.9999292054415373,67.89330033865865
85.0,29285.769065475153,71.31699693758108,0.9999292779219214,68.88407933742602
86.0,29285.768802661234,64.41575024998839,0.9999293475149195,69.87521948998183
87.0,29285.768550749635,58.18332176479008,0.9999294144702134,70.86668962954658
88.0,29285.768308740804,52.554765841922055,0.9999294790185771,71.85846089000323
89.0,29285.768075714936,47.471424820621394,0.999929541373815,72.85050647377754
90.0,29285.76785082328,42.880370256609154,0.9999296017345063,73.84280144202138
91.0,29285.767633280622,38.73384191182998,0.9999296602855201,74.8353225313896
92.0,29285.767422358036,34.98869843967307,0.9999297171995042,75.82804797308216
93.0,29285.767217376677,31.60602606268484,0.9999297726381566,76.82095733749289
94.0,29285.767017702037,28.55067791577305,0.9999298267534219,77.81403138733882
95.0,29285.76682273857,25.790921296229666,0.9999298796886167,78.80725193888173
96.0,29285.766631925057,23.298124746671377,0.999929931579407,79.80060174062903
97.0,29285.76644473006,21.046416995993273,0.9999299825547745,80.79406435307891
98.0,29285.766260647866,19.012453005711425,0.9999300327378807,81.78762404030493
99.0,29285.766079194753,17.17515057679763,0.9999300822468735,82.78126566834095
100.0,29285.765899905327,15.515465517874201,0.9999301311956739,83.7749746056437
101.0,29285.765722329244,14.016214279485625,0.9999301796946851,84.76873663236938
102.0,29285.765546027986,12.661868286456132,0.9999302278514947,85.76253785046555
103.0,29285.765370571793,11.438408225168418,0.9999302757715397,86.75636459764763
104.0,29285.76519553669,10.333177088923016,0.9999303235587452,87.75020336406406
105.0,29285.76502050159,9.334736290042057,0.9999303713161595,88.74404070917848
106.0,29285.764845045407,8.432763253840863,0.9999304191465688,89.73786318020396
107.0,29285.764668744163,7.61793033396216,0.9999304671531165,90.7316572295315
108.0,29285.764491168105,6.881812319341305,0.9999305154399164,91.72540913237
109.0,29285.764311878713,6.21680417565737,0.9999305641126828,92.71910490091491
110.0,29285.76413042563,5.616031245745593,0.9999306132793637,93.71273019778783
111.0,29285.763946343497,5.073287790826184,0.9999306630507949,94.7062702455915
112.0,29285.763759148544,4.582967485988731,0.9999307135413918,95.69970973038684
113.0,29285.763568335096,4.140004196130572,0.9999307648698421,96.69303270429637
114.0,29285.76337337172,3.7398252086655277,0.9999308171598698,97.68622247690622
115.0,29285.76317369714,3.3782968638952893,0.9999308705410207,98.67926150275979
116.0,29285.762968715902,3.051686135345168,0.9999309251494902,99.67213126176847
117.0,29285.762757793418,2.7566217375766153,0.9999309811290527,100.66481212355835
118.0,29285.762540250875,2.490056072183243,0.9999310386319911,101.65728321049875
119.0,29285.762315359396,2.2492381580140353,0.9999310978201555,102.64952224059233
120.0,29285.76208233364,2.0316815197597187,0.9999311588660945,103.64150535760832
121.0,29285.761840325016,1.83513971722061,0.9999312219542293,104.63320695301799
122.0,29285.76158841363,1.6575845313563644,0.9999312872822288,105.6245994558215
123.0,29285.761325599877,1.497182132284285,0.9999313550623987,106.61565311719119
124.0,29285.761050794903,1.352276799884421,0.9999314255232431,107.60633576628473
125.0,29285.76076280959,1.2213724446228487,0.9999314989112124,108.5966125336377
126.0,29285.760460343103,1.1031168931157898,0.9999315754924719,109.58644556662225
127.0,29285.7601419691,0.996289465764603,0.9999316555549987,110.57579368953617
128.0,29285.75980612092,0.8997865087638071,0.9999317394107535,111.56461204456305
129.0,29285.759451075126,0.8126111960645604,0.9999318273980293,112.55285169754141
130.0,29285.759074931895,0.7338631707957403,0.9999319198841814,113.54045917406748
131.0,29285.758675594676,0.66272842154824,0.9999320172683367,114.52737598613926
132.0,29285.758250745883,0.5984720834527247,0.9999321199845557,115.51353807313743
133.0,29285.757797819784,0.5404298753525375,0.9999322285052118,116.49887518861618
134.0,29285.75731397318,0.4880015908363564,0.9999323433444728,117.48331024956023
135.0,29285.75679604988,0.44064528283396737,0.9999324650624093,118.4667585559559
136.0,29285.75624054313,0.3978709081329504,0.9999325942690451,119.4491269857423
137.0,29285.75564355196,0.35923599442463044,0.999932731628878,120.43031307332595
138.0,29285.755000730598,0.32434070471354776,0.9999328778658438,121.41020395949
139.0,29285.75430723471,0.2928236497940227,0.9999330337681425,122.38867530706693
140.0,29285.753557656168,0.2643585745460662,0.9999332001938618,123.36559000134218
141.0,29285.75274595207,0.2386504925599535,0.9999333780764758,124.34079677636836
142.0,29285.751865364873,0.21543296906033088,0.9999335684304957,125.31412870692152
143.0,29285.750908326867,0.19446535164902304,0.9999337723577234,126.28540143735334
144.0,29285.749866359223,0.1755300677926335,0.999933991052765,127.25441138142442
145.0,29285.748729951025,0.15843070407771154,0.9999342258090649,128.22093360574308
146.0,29285.747488423087,0.14298971537974314,0.9999344780244519,129.1847195240207
147.0,29285.74612977888,0.1290466885900744,0.999934749205753,130.14549447202106
148.0,29285.744640523542,0.11645678776863588,0.9999350409734575,131.10295482255168
149.0,29285.743005470056,0.10508905456798318,0.999935355064274,132.0567650508089
150.0,29285.74120751303,0.09482525226571802,0.999935693332591,133.00655441504028
151.0,29285.739227365073,0.08555854408177573,0.9999360577499282,133.9519132260984
152.0,29285.737043273708,0.07719237487672174,0.999936450400804,134.89238907559354
153.0,29285.73463067752,0.06963958539265479,0.9999368734759804,135.82748237334823
154.0,29285.731961828733,0.06282137725285279,0.9999373292603669,136.75664174217306
155.0,29285.729005366215,0.056666587920201246,0.9999378201156176,137.6792590728065
156.0,29285.725725803903,0.05111094894182092,0.9999383484560245,138.59466381090851
157.0,29285.722082985307,0.046096363313416544,0.9999389167156634,139.50211734027283
158.0,29285.718031429376,0.041570392397825985,0.9999395273062635,140.4008064779424
159.0,29285.71351959061,0.0374856420019473,0.9999401825627812,141.28983655700006
160.0,29285.70848904523,0.03379929878190702,0.999940884676656,142.16822435106846
161.0,29285.70287350262,0.030472714049550546,0.9999416356123764,143.0348897017167
162.0,29285.696597741495,0.027470948693058328,0.9999424370080803,143.88864719507566
163.0,29285.689576366523,0.02476246466943305,0.999943290057407,144.7281967505769
164.0,29285.681712355472,0.022318772169646856,0.9999441953680746,145.5521129061296
165.0,29225.811291963742,62.52875238857298,0.9999451528038602,146.35883387258204
166.0,29095.743165992524,221.80899546662437,0.9999461612991839,147.14664819328547
167.0,28985.179909538027,398.9292847014446,0.9999472186538509,147.91367994449075
168.0,28898.99735929136,596.205211763312,0.9999483213052718,148.65787128452985
169.0,28842.959121806798,816.292050776691,0.9999494640804947,149.3769615906944
170.0,28823.870929527264,1062.2415370325718,0.9999506399316391,150.06846208996538
171.0,28849.763644476658,1337.5697899555123,0.9999518396566375,150.7296241444889
172.0,28930.10873007774,1646.3382187563975,0.9999530516124167,151.35739923051744
173.0,29076.074721751418,1993.2514819128153,0.9999542614222677,151.9483870301374
174.0,29300.830636865358,2383.7756680028133,0.9999554516868316,152.49876774995354
175.0,29619.90526114995,2824.282707133927,0.9999566017030382,153.00421235681569
176.0,30051.61745311974,3322.2297517858983,0.9999576871919338,153.45976134203343
177.0,30617.58470908544,3886.3834288963853,0.9999586800445563,153.85965979818906
178.0,31343.33118163901,4527.1067712018785,0.9999595480815947,154.19712867059468
179.0,32259.011168817902,5256.733277706624,0.9999602548271658,154.46404263649376
180.0,33400.271359645354,6090.067445868594,0.9999607592896816,154.6504670510285
181.0,34809.277884662086,7045.074312995937,0.9999610157394743,154.74397622285096
182.0,36535.93673883977,8143.861790764607,0.9999609734679624,154.72862039856687
183.0,38639.33490926292,9414.134602238692,0.9999605765076907,154.58330456567685
184.0,41189.41456048087,10891.443191187827,0.9999597632861774,154.27913234392247
185.0,44268.84813086053,12622.848691526828,0.999958466173791,153.774813868447
186.0,47974.8466981542,14673.270868801092,0.9999566108954419,153.00817233210608
187.0,52420.221303489365,17137.40367689306,0.999954115683069,151.87898740070045
188.0,57730.764253527996,20164.480232673548,0.9999508900892848,150.2099108687534
189.0,64026.79900217573,24019.88905593044,0.9999468330444471,147.64060072449234
190.0,74189.46215495863,25999.19574224319,0.9999418291071546,143.24790234206296
191.0,87015.12891138878,25781.30271177409,0.9999357375269046,133.12816644139437
192.0,100069.45863012724,25558.793543683318,0.999928363415466,58.96054875705418
193.0,113343.10078491301,25331.631812472355,0.9999200647226527,35.368451654330634
194.0,105823.29924515882,46839.54706316393,0.9999108564168463,28.678841889823477
195.0,127380.05658652847,54402.65353202075,0.9999005722899027,24.93111332333977
196.0,156567.5834916399,55416.607814996765,0.9998890624317923,22.39583736938593
197.0,186331.6854383812,57363.870292286025,0.9998761690380505,20.51597490117202
198.0,217147.59518329092,60362.39990027761,0.9998617204192015,19.043387109292738
199.0,249543.92542002382,64599.82636770177,0.9998455278800016,17.84648198070024
200.0,284145.9338734251,70337.89456923916,0.9998273833262646,16.847296031069046
201.0,321713.2912784087,77934.07497070899,0.9998070570363369,15.995954972027432
202.0,363176.29490213416,87888.50911018452,0.9997842955014654,15.258696104902423
203.0,409664.056046228,100949.48656710991,0.9997588191865244,14.61166350045109
204.0,462809.6878377439,118039.45218263144,0.9997303202109817,14.037415915062798
205.0,527913.827087152,135927.58977706195,0.9996984599229468,13.522850697649014
206.0,606401.6582326738,153389.47588028075,0.9996628664619793,13.057904164456456
207.0,692450.5749054259,176884.91756442984,0.9996231320506827,12.634707294037716
208.0,787095.9574486807,216133.386888348,0.9995788104603863,12.24699590640837
209.0,909718.522009645,256435.88270955192,0.999529414059086,11.889729208280002
210.0,1060697.2285165964,299164.2154566838,0.9994744111358219,11.558800502448415
211.0,1241200.6053754266,345917.2366273871,0.999413223002092,11.250831192915015
212.0,1453276.351825442,398686.641565966,0.9993452211274831,10.963017517389124
213.0,1700031.671426789,460064.1925853782,0.9992697242914238,10.693014852575581
214.0,1985858.7514531233,533606.1224141112,0.9991859957840806,10.43884905604421
215.0,2317530.377380859,623568.5399302869,0.99909324069635,10.198847599665845
216.0,2707526.6546330824,730558.1054141795,0.9989906033443765,9.97158547063454
217.0,3167583.604812216,855932.1080950653,0.9988771648521759,9.755842220276342
218.0,3701548.528528855,1015771.9768069236,0.9987519410278285,9.550567374707477
219.0,4333974.936527495,1214004.4604930214,0.9986138804565349,9.354852694149347
220.0,5092683.831899022,1452822.9173699059,0.9984618630061242,9.16790942189575
221.0,6005748.648955976,1736590.8795978397,0.998294698736642,8.989049663518475
222.0,7102627.636824903,2072459.6284303663,0.998111127315712,8.817671024278226
223.0,8415475.390921712,2471431.274390965,0.9979098179863792,8.653243870915363
224.0,9981457.45172648,2949335.5350614795,0.9976893702223579,8.495300688696512
225.0,11848853.006508738,3523153.1423684903,0.9974483151028438,8.343427189126167
226.0,14074912.713250292,4213500.796214327,0.9971851174902161,8.197254841527894
227.0,16722456.195329856,5055952.657226446,0.99689817912827,8.056454555404073
228.0,19878713.498015106,6088721.05957006,0.9965858427279626,7.920731338803788
229.0,23656530.671550937,7351835.164775221,0.9962463970995836,7.78981977243568
230.0,28193007.172267262,8890259.338155549,0.9958780834195077,7.663480154967442
231.0,33649556.60375946,10758100.948487025,0.9954791027196819,7.541495206692283
232.0,40214411.5787551,13023763.853688505,0.9950476246286218,7.42366725769729
233.0,48111385.293750934,15771200.219029007,0.9945817974239325,7.309815840789178
234.0,57605269.64160806,19105221.849685844,0.994079759437531,7.199775617729392
235.0,69007329.57269992,23164276.811679095,0.9935396518311969,7.093394596556957
236.0,82697187.05285321,28120757.022710696,0.9929596327470139,6.990532598018081
237.0,99143322.01917079,34181113.50128343,0.9923378928238822,6.8910599301626485
238.0,118919613.35082394,41590283.23266212,0.9916726720219956,6.794856238305217
239.0,142720255.259759,50641521.91244293,0.9909622777137083,6.70180951114551
240.0,171378869.61414483,61688786.8408718,0.9902051039820824,6.611815219093313
241.0,205892172.67296776,75161782.83392079,0.9893996519549934,6.524775561874735
242.0,247444612.3461448,91592109.93850172,0.9885445510593488,6.440598813510325
243.0,297449069.0172152,111639136.20145771,0.9876385810712064,6.359198751961688
244.0,357603633.333317,136112368.8818274,0.9866806947550852,6.280494159982069
245.0,429957245.8212597,165995473.2512931,0.9856700407781975,6.204408386003358
246.0,516980890.847645,202477466.62263584,0.9846059867623222,6.130868959922462
247.0,621647569.4600741,246992433.8339584,0.9834881422388613,6.0598072557610125
248.0,747521665.9495186,301272569.8451692,0.9823163810645921,5.991158192800518
249.0,898860886.8617324,367420412.5606226,0.9810908630511179,5.924859971671755
