Time,J,A,S,tau
0.0,100.0,100.0,0.9148484567336919,16.84853086977865
1.0,117.29257290401401,212.01420665221434,0.915959323490451,17.343100977930018
2.0,222.3458082848533,311.8274045787525,0.9170391207383664,17.856273237363403
3.0,396.5800069626535,400.3048700669,0.9180846107250145,18.388044053145695
4.0,624.1509817508216,478.25692058845,0.9190929071974576,18.93841628797007
5.0,891.6274905195777,546.4417719766186,0.9200614367213396,19.507354936839498
6.0,1187.697748334733,605.5708978213909,0.9209879588160146,20.094782250938685
7.0,1502.9053323481414,656.3138222583553,0.9218705829578174,20.700573546026806
8.0,1829.4118724921298,699.3023205969452,0.9227077813698585,21.324553895682246
9.0,2160.7850263493133,735.1340341377596,0.9234983970054018,21.96649583269506
10.0,2491.8083605947486,764.375535991081,0.924241645736877,22.626118226046092
11.0,2818.311961956433,787.5648980486908,0.9249371126078988,23.303086367972284
12.0,3137.0239918778125,805.2135475023595,0.9255847425505432,23.997013210232343
13.0,3445.4332334302158,817.8081448137472,0.926184823121558,24.707462089178122
14.0,3741.6781949478773,825.8111934650487,0.9267379655715732,25.433949999724405
15.0,4024.4380650588364,829.6621593196321,0.9272450761899962,26.175952532427225
16.0,4292.842262094038,829.7782392581877,0.927707326769361,26.932909148132293
17.0,4546.393677054701,826.5544172953373,0.9281261223622219,27.704229021745743
18.0,4784.899994240709,820.3633968557732,0.9285030654527522,28.489297483832726
19.0,5008.412646846941,811.5560787994232,0.9288399199480358,29.287482527254504
20.0,5217.176564994585,800.4615382795512,0.9291385757036487,30.098141227036226
21.0,5411.586507479463,787.3872178869509,0.9294010141074908,30.92062594104495
22.0,5592.151141422326,772.6188642995006,0.9296292757134635,31.754290148078603
23.0,5759.461154446032,756.4210260606988,0.9298254301089012,32.598493785730355
24.0,5914.163729141288,739.037371565069,0.929991549051935,33.45260798626771
25.0,6056.941186977898,720.6912013566671,0.9301296828185637,34.31601919256541
26.0,6188.493812924721,701.5860194038693,0.9302418400893248,35.18813256632708
27.0,6309.525640362768,681.9063468428686,0.9303299711927732,36.068374765411285
28.0,6420.7334435095745,661.8184869130473,0.9303959544889867,36.9561961260228
29.0,6522.7982726140435,641.4714432349331,0.9304415861767997,37.85107215262918
30.0,6616.359155631839,620.9797723827614,0.9304685725589413,38.752504577836454
31.0,6617.2072278958385,526.4196221251195,0.9304785247700404,39.660021951584696
32.0,6614.132921282948,443.62231839954893,0.9304729568141531,40.57317951617589
33.0,6611.142185060974,373.8730238113024,0.9304532835985833,41.49155924079491
34.0,6608.230572422042,315.1108040066853,0.9304208218632816,42.414769202344594
35.0,6605.393845231792,265.60126034405044,0.9303767920057406,43.34244283681703
36.0,6602.627961834973,223.8844208136651,0.9303223208948089,44.274238014311166
37.0,6599.9290653437565,188.73110923868074,0.9302584455286035,45.209835960241975
38.0,6597.29347269712,159.10663966912477,0.9301861171712402,46.14894010416005
39.0,6594.717664225065,134.1397277045188,0.9301062059026292,47.091274861467866
40.0,6592.198273678124,113.09667259883656,0.9300195054364935,48.03658437579028
41.0,6589.732078897499,95.35969627714475,0.929926737980601,48.98463127217431
42.0,6587.3159928481855,80.40842013521026,0.9298285591639416,49.93519540799245
43.0,6584.94705510163,67.80455530555618,0.9297255628938987,50.888072651388036
44.0,6582.6224238222585,57.17895145705281,0.9296182860458478,51.84307370823128
45.0,6580.339368026901,48.22057807470078,0.9295072130396398,52.800022979930375
46.0,6578.095260264649,40.66742466533083,0.9293927801876989,53.75875747937055
47.0,6575.887569669372,34.29874033996453,0.9292753798089612,54.719125804661374
48.0,6573.71385523876,28.928493092953737,0.9291553641519266,55.680987157781345
49.0,6571.571759483415,24.399942703604243,0.9290330490475721,56.644210428065755
50.0,6569.4590023360915,20.580989447479197,0.928908717335135,57.60867332870239
51.0,6567.3733752670405,17.360292884842725,0.9287826220786202,58.57426158109349
52.0,6565.312735700532,14.644024994170643,0.928654989535709,59.54086815743428
53.0,6563.275001607871,12.353086663011345,0.9285260219351145,60.50839256667347
54.0,6561.258146289822,10.42080032237534,0.9283959000612638,61.47674018444031
55.0,6559.260193385515,8.790963617893624,0.9282647856407082,62.44582162906182
56.0,6557.279212000911,7.416186347497764,0.928132823579751,63.41555217069167
57.0,6555.313312003144,6.256515884723274,0.9280001440443947,64.3858511766271
58.0,6553.360639468849,5.278268119530349,0.9278668643980443,65.3566415893256
59.0,6551.419372216702,4.453035844221267,0.9277330910315157,66.32784942821803
60.0,6549.48771547058,3.756867811160161,0.9275989210791096,67.29940331782916
61.0,6547.563897613227,3.1695654772051256,0.9274644440455583,68.27123403604776
62.0,6545.646166001442,2.6740929463719443,0.9273297433632071,69.24327407785424
63.0,6543.732782864904,2.2560848906857047,0.9271948978826168,70.21545723439088
64.0,6541.822021247225,1.9034240811675123,0.927059983320341,71.18771818142484
65.0,6539.912160985576,1.6058898936239547,0.9269250736745822,72.15999207493994
66.0,6538.00148472199,1.3548627436148775,0.9267902426217347,73.13221415091407
67.0,6536.088273923258,1.1430707333776662,0.9266555649104399,74.1043193253276
68.0,6534.170804908053,0.9643798935529595,0.9265211177635906,75.07624179219334
69.0,6532.2473448555775,0.8136163342938053,0.9263869823075326,76.04791461486909
70.0,6530.316147798945,0.6864146191236921,0.926253245035947,77.01926930932244
71.0,6528.375450582622,0.5790923385064743,0.9261199993263433,77.99023541498921
72.0,6526.423468759507,0.48854289975753357,0.9259873470281941,78.96074004859877
73.0,6524.458392449707,0.41214501486345917,0.9258554001236976,79.93070744149227
74.0,6522.478382109996,0.34768746967036607,0.9257242824912191,80.90005845266575
75.0,6520.481564213725,0.2933045102434147,0.925594131781872,81.868710055414
76.0,6518.466026859515,0.24742184979215495,0.9254651014114895,82.83657479769073
77.0,6516.4298152335405,0.20871142193250228,0.925337362708805,83.80356022548527
78.0,6514.370926964107,0.17605251693645518,0.9252111072141899,84.76956827157986
79.0,6512.287307356166,0.14849952583038784,0.9250865491423444,85.73449460656698
80.0,6510.176844425109,0.12525468458188677,0.924963928053106,86.69822794059098
81.0,6508.037363810258,0.10564474731719438,0.9248435117027957,87.6606492839519
82.0,6505.86662350072,0.08910168392318764,0.9247255991103707,88.62163115750313
83.0,6503.662308317259,0.07514623568704026,0.9246105238698419,89.58103674468066
84.0,6501.422024255628,0.06337394933775463,0.9244986576592298,90.53871899864032
85.0,6499.143292558028,0.053443601684120115,0.9243904140049745,91.49451968840184
86.0,6496.823543517587,0.045067267940722994,0.9242862522937847,92.44826838585749
87.0,6494.460110102781,0.038001980914535854,0.9241866819711587,93.39978140890172
88.0,6492.050221221529,0.03204276703718922,0.9240922669954361,94.34886070117993
89.0,6489.590994712855,0.027016659469346244,0.9240036304713773,95.29529266691254
90.0,6487.079430086256,0.022777713354001587,0.9239214594049221,96.23884697364741
91.0,6484.512400818323,0.019202809471896364,0.9238465096240901,97.17927530817046
92.0,6481.886646381441,0.016188053359271794,0.9237796106965074,98.11631012606513
93.0,6479.198763915228,0.013645792235302245,0.9237216707961038,99.04966340238249
94.0,6476.445199391121,0.011502083008235206,0.9236736814863145,99.9790253860617
95.0,6473.6222385090505,0.009694532006619617,0.9236367221470433,100.90406342196252
96.0,6470.725997102004,0.008170507014661378,0.9236119640023369,101.82442084319179
97.0,6467.752411005844,0.0068856074880215236,0.9236006735733487,102.73971596918823
98.0,6464.6972256294985,0.005802372546349763,0.9236042152091684,103.64954128879559
99.0,6447.060323279493,15.084487670851992,0.923624052641283,104.55346282865258
100.0,6423.868905701757,38.46300693862209,0.9236617490881195,105.45101981702494
101.0,6404.024287340448,61.86351247069017,0.9237189658565595,106.34172463843674
102.0,6387.9239847551835,85.40431848646678,0.923797458955622,107.22506318928605
103.0,6376.03824509056,109.20174678178607,0.9238990733587747,108.10049571532403
104.0,6368.91962273649,133.36995943715291,0.9240257348533351,108.96745812330569
105.0,6367.21391503496,158.02063654858256,0.9241794390494543,109.82536385409139
106.0,6371.671365101232,183.26259556865475,0.9243622370320709,110.67360648383259
107.0,6383.160299486134,209.20119418920729,0.9245762182365506,111.51156279748638
108.0,6402.6809549505115,235.93772494226548,0.9248234895409254,112.33859666318097
109.0,6431.380168450284,263.5686135330964,0.9251061513208219,113.1540635512357
110.0,6470.567914265377,292.1846030298794,0.9254262702448223,113.95731559282724
111.0,6521.734593002667,321.86969316838804,0.9257858494595603,114.74770722708915
112.0,6586.568046583667,352.70040982858325,0.9261867958829005,115.52460131044063
113.0,6666.972384447932,384.7446357200002,0.9266308865004808,116.28737546653417
114.0,6765.086353267302,418.06073996319566,0.9271197333307389,117.03542858821339
115.0,6883.301874428992,452.6967218184338,0.9276547484755341,117.76818726272607
116.0,7024.282268558615,488.68947617304286,0.9282371101509643,118.4851119129132
117.0,7190.979831248315,526.064222695401,0.9288677307159549,119.18570243713543
118.0,7386.652409798331,564.8341360835849,0.9295472276870407,119.86950313814859
119.0,7614.878627074882,605.0002076109685,0.9302758986366032,120.53610675182951
120.0,7879.571444278024,646.5513601868008,0.9310537006393074,121.18515743185269
121.0,8184.988772581642,689.4649016956392,0.9318802351007563,121.81635253597678
122.0,8535.745287394824,733.7068901724513,0.9327547379516292,122.42944320279018
123.0,8936.815969683803,779.2333865959813,0.933676074281288,123.02423383897565
124.0,9392.509480914498,823.242361272485,0.9337473626071653,123.2126698036744
125.0,9865.956699639379,930.8868581372799,0.933758531457755,123.31337994623414
126.0,10411.824736774175,1101.317794315981,0.9337617784782491,123.3419221819295
127.0,11093.750699436789,1330.814453889604,0.933755839039207,123.28946904210119
128.0,11981.688649071526,1614.8673531875068,0.9337401021521684,123.14494363142143
129.0,13151.128744813603,1948.1866668493171,0.9337149415918193,122.89414431620914
130.0,14682.042378124383,2324.7220537345124,0.9336821911127663,122.51842349633007
131.0,16657.546360163244,2737.6833881102407,0.9336458512547675,121.99262386695499
132.0,19162.279783641272,3179.541973794779,0.9336131884493184,121.28171177166125
133.0,22280.463536861767,3641.97529875937,0.9335965353601855,120.33498828054553
134.0,26093.588668021308,4115.683781819563,0.9336163997666146,119.07556045103692
135.0,30677.6017247017,4589.92227119266,0.9337072774073617,117.37947340377708
136.0,36099.27914014042,5051.378051623079,0.9339294418421775,115.03034710208597
137.0,42411.07866776123,5481.411768586893,0.9343958299606212,111.60657946980487
138.0,49793.81547056375,5667.805195397862,0.935342083352247,106.15058996861424
139.0,57838.675297230984,5256.737478758395,0.9373264136208554,96.03264240968981
140.0,65597.86280784538,4874.879963777524,0.9413040828169471,75.56683960648047
141.0,73069.71321354601,4520.199036757522,0.9452776941778146,54.91736318577688
142.0,80252.86631283417,4190.799982588247,0.9471418146666714,44.502125161830406
143.0,89725.47747312477,9707.61862551676,0.9477997735004049,38.724720683810354
144.0,106559.01974520716,9252.436505360734,0.9478103202179932,34.955324109545145
145.0,123151.50736284198,8967.868741139693,0.9474152196171223,32.23447556610118
146.0,139773.0153474254,8837.151477040903,0.946733931167924,30.139240008966855
147.0,156693.02323456065,8853.91059626288,0.945833059283092,28.452294308529194
148.0,174197.50774998142,9016.510761596634,0.9447531649271815,27.049116248284943
149.0,192597.00599677922,9325.870397881665,0.9435206100203992,25.852458379118527
150.0,212212.84655469318,9805.247128888439,0.9421533804721878,24.811477404419563
151.0,233459.10639948558,10722.277698125128,0.9406642171723274,23.891138089925867
152.0,257487.89172807458,12378.28691041255,0.9390624163860308,23.066423561696798
153.0,286268.6952119781,15008.530515440363,0.9373549243040832,22.31894626842748
154.0,322490.00227470725,18786.695919539245,0.9355470337111469,21.63487167562054
155.0,369443.5942101803,23824.151972055563,0.9336428450171559,21.003589142924042
156.0,430880.6601879365,30163.198251650218,0.9316455816363614,20.416829015300696
157.0,510822.2546619135,37756.95584444057,0.929557812323087,19.868058951574508
158.0,613461.7862538695,46012.61257841512,0.9273816123077844,19.3520590127666
159.0,740341.2482167286,53086.857051009174,0.9251186822975013,18.864615784529814
160.0,888403.9491155812,58922.30674863914,0.9227704393854588,18.40229868214125
161.0,1053563.6184728013,71902.46994463299,0.9203380871851327,17.962291833198442
162.0,1264920.2148822427,88293.40232383102,0.9178226703210247,17.54226685694151
163.0,1525915.488625335,103266.38417147199,0.9152251198078558,17.140285451483212
164.0,1833221.0272963578,117603.35177622882,0.9125462891463256,16.75472322736721
165.0,2185527.0132019743,132039.1882404058,0.909786984564848,16.384210013675894
166.0,2583525.5002741697,147295.6527592133,0.9069479905209229,16.02758257896113
167.0,3029925.956741234,164657.23148968993,0.9040300914881149,15.683846928046258
168.0,3532251.7501253146,187242.98620352114,0.9010340905419739,15.352147991974402
169.0,4108960.903124499,219759.6629247095,0.8979608258476826,15.031745231761795
170.0,4794229.349324905,267845.55818408454,0.8948111849220529,14.721992829226583
171.0,5640504.067237919,337397.8594338724,0.8915861172128217,14.422323577890003
172.0,6718678.539150605,433662.25736219063,0.8882866452194648,14.132235738136714
173.0,8114104.530038926,555737.6279675651,0.8849138743299805,13.851282281487801
174.0,9900150.551118543,695838.1495232723,0.8814690015002078,13.579062068068522
175.0,12125784.479679897,875534.2489783814,0.877953322925901,13.315212597253423
176.0,14932915.231491668,1109198.0832350645,0.8743682406205946,13.05940403170409
177.0,18471328.71336763,1386741.945302341,0.8707152683580764,12.811334287185364
178.0,22854712.19820849,1703312.4639295086,0.8669960365744384,12.570724962233136
179.0,28176450.36422567,2058743.0843679118,0.863212296507459,12.337317974084428
180.0,34523842.065885246,2461079.6572821955,0.8593659238085807,12.110872789243093
181.0,42008785.45640692,2937560.868183162,0.8554589207589651,11.891164087105684
182.0,50831485.91348605,3542322.8993209605,0.851493418468289,11.677979858308726
183.0,61359123.37914415,4356796.014421148,0.8474716781343098,11.471119807307591
184.0,74195770.2713105,5480908.7679809965,0.8433960915791264,11.270394019202252
185.0,90207142.57682706,6993745.670864043,0.8392691811445472,11.075621846609911
186.0,110394167.10983063,8959474.269755127,0.83509359897679,10.88663097800357
187.0,135920855.40810862,11544574.473662918,0.8308721255526835,10.703256650920487
188.0,168343611.82800075,14877126.593804337,0.8266076678132812,10.525340995495908
189.0,209409986.27577946,19031552.994666874,0.8223032565194981,10.35273247298666
190.0,260888849.70808604,24063544.132767346,0.8179620430896322,10.185285401188965
191.0,324506598.5639835,30065094.766507592,0.8135872959105237,10.022859549154028
192.0,402056888.40973866,37268559.8262035,0.809182396142928,9.865319789870323
193.0,495789472.0034451,46159051.1956643,0.8047508328135914,9.712535796667332
194.0,609036557.1941947,57534090.38594531,0.8002961976615223,9.564381783396017
195.0,746880324.5012732,72396900.33106558,0.7958221794604328,9.420736276640003
196.0,916320358.1126608,91871840.40211569,0.791332557885106,9.281481913707914
197.0,1126385978.5256002,117445619.54967491,0.7868311969988754,9.146505263809903
198.0,1388705009.1078026,150736955.98056206,0.7823220383839923,9.015696668147788
199.0,1717290015.8007853,193258571.71019974,0.7778090939458608,8.88895009589089
200.0,2127797649.952013,246411707.21579367,0.7732964384498584,8.766163013161854
201.0,2636867040.2884536,311819323.13602096,0.768788201752417,8.647236262831651
202.0,3262311822.8031445,392026177.332726,0.7642885608963225,8.532073954689169
203.0,4024835152.840858,491292546.6943737,0.7598017319599439,8.420583362392815
204.0,4951153520.646364,615885712.0045136,0.7553319618260705,8.31267482811408
205.0,6076929167.276695,774087126.9456822,0.7508835198265549,8.208261672664072
206.0,7449298764.654232,976551014.7629436,0.746460689333588,8.107260110454185
207.0,9129616102.215036,1235807703.2155213,0.742067759358933,8.009589169562341
208.0,11194435336.587566,1565289511.9520216,0.7377090161759525,7.91517061538412
209.0,13734137487.14236,1978904320.2532403,0.7333887349626675,7.823928877253528
210.0,16850550110.159008,2492145262.887493,0.729111171595723,7.735790979188188
211.0,20656649797.589363,3124957968.892743,0.7248805545257887,7.650686472308319
212.0,25281265677.262115,3905045429.409959,0.7207010768439811,7.56854737042879
213.0,30878390009.757065,4870337825.80975,0.7165768885339152,7.489308087909986
214.0,37638799212.558014,6071176485.325799,0.7125120889471813,7.412905379827822
215.0,45803387308.289566,7570748102.6441965,0.7085107195330043,7.339278284011287
216.0,55674764787.392784,9443134299.777208,0.7045767568328997,7.2683680649811455
217.0,67623037515.67751,11771008447.878649,0.7007141057700937,7.200118159817505
218.0,82085551520.2243,14646443066.499914,0.6969265932439453,7.134474125796755
219.0,99566002654.66875,18177020681.180588,0.6932179620573679,7.071383589832807
220.0,120641379349.33678,22495687699.93778,0.6895918651863534,7.0107961992845444
221.0,145981039610.43597,27771980076.368847,0.6860518603791471,6.952663574457821
222.0,176378221782.63977,34222524364.244812,0.6826014051225544,6.896939262665361
223.0,212791918082.7052,42117020659.38603,0.6792438519615768,6.843578693746864
224.0,256391158170.65735,51778383589.61382,0.6759824441770168,6.79253913703633
225.0,308592018349.8891,63581115677.47245,0.6728203118193807,6.743779659741472
226.0,371084129931.15326,77955430892.53148,0.6697604680949325,6.697261086702339
227.0,445854842053.0132,95402085883.83131,0.6668058060974329,6.652945961497975
228.0,535225297528.4001,116517822636.36104,0.6639590958769586,6.610798508871219
229.0,641911270531.0259,142028173032.94235,0.6612229818352401,6.57078459844268
230.0,769117076332.3859,172820593998.13623,0.6585999804352185,6.532871709685607
231.0,920661034293.5444,209970612106.1114,0.6560924782109884,6.497028898133763
232.0,1101120813412.7288,254760044663.96698,0.653702730066314,6.463226762794834
233.0,1315982502283.2156,308695469077.0974,0.6514328578347166,6.431437414702589
234.0,1571794132729.3755,373538670016.13525,0.6492848490879309,6.401634446776904
235.0,1876334557215.3013,451357999830.61,0.6472605561990251,6.37379290460248
236.0,2238820687378.717,544603618013.21014,0.645361695610086,6.347889258358258
237.0,2670182605727.408,656201277599.0339,0.6435898472978395,6.3239013758491
238.0,3183426615156.338,789654192467.2872,0.6419464544118502,6.301808496611862
239.0,3794095263463.6606,949145404643.2576,0.6404328230789514,6.281591207072184
240.0,4520818007534.935,1139643726082.8416,0.639050122370092,6.2632314165128635
241.0,5385949312471.765,1367026764649.586,0.6377993843833988,6.246712334070865
242.0,6416309681531.17,1638239056212.5508,0.6366815044411341,6.2320184466836865
243.0,7644063943750.265,1961501245117.2427,0.6356972413767178,6.219135497964632
244.0,9107800637738.693,2346577371600.2354,0.6348472179153325,6.208050467981122
245.0,10853876595732.52,2805098309645.204,0.6341319211419508,6.198751553711149
246.0,12938092972637.314,3350937371671.9956,0.633551703019687,6.191228150375325
247.0,15427767608517.158,4000640738990.431,0.6331067809636142,6.185470833566772
248.0,18404262583911.664,4773929145286.345,0.6327972384519287,6.181471342158202
249.0,21966066285037.836,5694298977661.308,0.6326230256897041,6.179222561954927
250.0,26232538672988.293,6789759535540.923,0.6325839603200564,6.178718509882127
