Time,J,A,S,tau
0.0,100.0,100.0,0.8578369668815378,21.301804725583246
1.0,908.0693286901006,658.7426999927063,0.8419973631313202,20.81831173924034
2.0,3608.620409214793,1173.561492499264,0.8261544783093486,20.32918391418322
3.0,7960.971046088114,1646.7521808924241,0.8103246219863677,19.834578431213814
4.0,13742.64955436243,2080.537480942196,0.7945237581841398,19.334651913558243
5.0,20748.605407286654,2477.06373271498,0.7787675946659793,18.829564177937677
6.0,28790.40967063562,2838.4012812157603,0.7630715346612241,18.319478155030616
7.0,37695.45115605917,3166.5450695320624,0.7474506306305856,17.80455980690552
8.0,47306.15861391211,3463.415084888201,0.7319195404399864,17.284978041532383
9.0,57479.17843516421,3730.8575109995727,0.7164924862476295,16.76090462182718
10.0,68084.62341421655,3970.6453275861372,0.7011832159497565,16.232514075011952
11.0,79005.28420275707,4184.479539714185,0.6860049679837656,15.699983595397986
12.0,90135.87827228023,4373.990232208756,0.6709704395365496,15.163492944610814
13.0,101382.35014255687,4540.737398895107,0.6560917568144072,14.623224354850109
14.0,112661.08605934096,4686.212969696783,0.6413804506250866,14.079362417943912
15.0,123816.12335652315,5253.1728528157855,0.638519674831009,14.010733258222249
16.0,137074.17891220425,7059.450047573273,0.636372319955753,13.969567066431662
17.0,156111.326399061,9889.252295318582,0.6343119875928446,13.93034142718152
18.0,183740.49036940155,13541.476450882614,0.6323401035834786,13.893045933706896
19.0,222029.57439450876,17839.974719389815,0.6304580149159655,13.857670419165625
20.0,272418.2266469915,22631.176137222254,0.6286669890920477,13.82420496291544
21.0,335820.94359453715,27781.876150278,0.6269682136209085,13.792639896138022
22.0,412717.533358791,33177.19364611926,0.6253627956184413,13.762965806878238
23.0,503232.1690067621,38718.687347680556,0.6238517614950239,13.735173544398146
24.0,607202.4591563196,44322.61366591198,0.6224360567893654,13.709254222994335
25.0,724239.0262522234,49918.338863156765,0.6211165460202751,13.685199225305544
26.0,853776.8692309,55446.883750624685,0.6198940126319652,13.663000205295681
27.0,995119.791232882,60859.565454734984,0.6187691592409383,13.642649089529476
28.0,1147480.7108892214,66110.74130408445,0.6177426071467583,13.624138080217485
29.0,1309903.7269235123,71947.57336875024,0.6168148974887554,13.60745965508244
30.0,1485043.1378366079,80675.6463276569,0.6159864907670397,13.592606569540113
31.0,1682461.3905336407,94158.92513737748,0.6152577673214183,13.579571855915589
32.0,1916706.6308777372,113666.91924681317,0.6146290276797821,13.56834882361971
33.0,2205435.0039028004,139990.27235209075,0.6141004929340051,13.558931058548945
34.0,2567959.0917126485,173538.48977306302,0.6136723051851097,13.551312422139704
35.0,3024137.7027437505,214422.15221266658,0.61334452798321,13.545487049965514
36.0,3593552.77134556,262521.7402131777,0.6131171468343787,13.541449349949493
37.0,4294914.564192466,317544.87775949016,0.6129900697250483,13.539194000160661
38.0,5145654.608126014,379073.53919653787,0.6129631276544087,13.538715946425812
39.0,6161663.575541841,446602.89981950447,0.6130360752571077,13.540010399195864
40.0,7357149.041119313,519572.7051728256,0.6132085913813423,13.543072830545977
41.0,8744579.35855243,597392.6478853811,0.6134802797456592,13.547898970415687
42.0,10334674.08462754,679480.5303072835,0.6138506695168243,13.554484802737031
43.0,12136575.076872295,766663.9724992492,0.6143192160513887,13.562826560927949
44.0,14164414.568018211,863643.1827658297,0.6148853017829302,13.57292072400489
45.0,16449588.729181131,978214.1118581021,0.6155482367535116,13.584764011101433
46.0,19049529.144070666,1119970.165253132,0.6163072594620793,13.598353376389953
47.0,22052577.91292275,1299333.1597888528,0.6171615376917101,13.613686003595053
48.0,25580035.200151645,1526846.5211499417,0.6181101693656865,13.630759300177782
49.0,29786213.209939487,1812675.4238433868,0.6191521834450192,13.649570891229674
50.0,34857137.64705751,2166268.751091679,0.6202865408698415,13.670118613075037
51.0,41008384.251127005,2596146.285306759,0.6215121355450031,13.6924005065881
52.0,48482432.55050451,3109781.354237605,0.622827795383312,13.716414810236447
53.0,57545795.95048383,3713555.3648755974,0.6242322834041606,13.742159952827379
54.0,68486121.96358287,4412765.014947883,0.6257242988834907,13.769634545981125
55.0,81609389.95483841,5211667.397963624,0.6273024785726417,13.79883737628244
56.0,97237367.4755836,6113559.951600271,0.628965397959114,13.829767397343087
57.0,115705342.11835648,7122223.3171822755,0.6307115726532898,13.862423721299868
58.0,137367958.77878836,8247466.296827361,0.6325394597763235,13.896805610339792
59.0,162626155.18767247,9510777.628736932,0.6344474594588871,13.932912467803522
60.0,191972471.38854808,10948564.681024535,0.6364339164321181,13.970743829032466
61.0,226047062.62110254,12613546.878457379,0.6384971216803887,14.010299352021278
62.0,265698799.2621776,14574878.106642317,0.6406353141492753,14.051578807816568
63.0,312047288.9730334,16917400.860559788,0.642846682586142,14.09458207057954
64.0,366543824.07691634,19740372.923665542,0.6451293674424161,14.139309107544658
65.0,431028451.5379792,23155911.142158303,0.6474814628465952,14.185759968532743
66.0,507784109.72850907,27287295.11685655,0.6499010186732332,14.233934775444618
67.0,599585397.9707142,32267268.177467406,0.6523860427182271,14.28383371134054
68.0,709743498.8802822,38236425.716845505,0.6549345029074396,14.335457009386221
69.0,842146993.143229,45341710.74178085,0.6575443296416077,14.38880494156027
70.0,1001297685.3356757,53735091.93209391,0.6602134181821007,14.443877807061927
71.0,1192344543.1408105,63572511.239940576,0.6629396311229757,14.500675920611899
72.0,1421114115.4038136,75015918.9539889,0.6657208009540649,14.559199600441051
73.0,1694158690.2179286,88244318.90659033,0.6685547326587891,14.619449156095552
74.0,2018860338.8011117,103473515.83644052,0.6714392064122289,14.681424876087636
75.0,2403622020.1293693,120980934.3916672,0.674371980316541,14.745127015255106
76.0,2858170603.0205526,141132572.8870228,0.6773507931934822,14.810555782007576
77.0,3393974120.1115456,164410161.29430264,0.6803733674386466,14.877711325317765
78.0,4024788211.5211353,191437195.43127984,0.683437411898045,14.946593721639086
79.0,4767315233.595214,223003275.60883653,0.686540624795062,15.01720296149358
80.0,5641984713.989912,260085899.01440024,0.6896806966768588,15.089538936109882
81.0,6673840689.539807,303870240.0692706,0.692855313383315,15.163601423651873
82.0,7893524259.381704,355766012.6586041,0.6960621590297963,15.23939007558427
83.0,9338360557.775105,417422423.5035535,0.699298918988136,15.316904402658533
84.0,11053506075.57297,490740753.3609756,0.7025632828747813,15.396143760952253
85.0,13093193781.590958,577884941.1546667,0.7058529475075047,15.47710733775292
86.0,15522014287.92365,681290811.0144264,0.7091656198687033,15.55979413725308
87.0,18416267630.379517,803673505.4310685,0.7124990200022031,15.644202966421156
88.0,21865356045.39158,948039646.5587679,0.7158508839145501,15.730332420431411
89.0,25973235870.32624,1117716196.8636343,0.7192189663880567,15.818180868502582
90.0,30860077146.721546,1316410771.5974061,0.7226010437694748,15.907746439279126
91.0,36664184662.112114,1548311038.7481046,0.725994916684943,15.999027006533987
92.0,43544496896.58519,1818226730.147045,0.729398412668937,16.09202017475055
93.0,51683729211.42949,2131776920.6118224,0.732809388757112,16.18672326465044
94.0,61292479491.47687,2495618046.3814025,0.7362257339273106,16.283133299124337
95.0,72614443866.7272,2917714899.238358,0.7396453715277018,16.38124698872005
96.0,85932878441.79436,3407645612.701839,0.7430662615277012,16.481060717893637
97.0,101578633340.81715,3976942148.814733,0.7464864027220326,16.58257053079806
98.0,119939615676.35616,4639458777.914737,0.7499038347997931,16.685772117715672
99.0,141472135613.80185,5411763973.098217,0.7533166402804502,16.79066080151946
100.0,166713864346.22623,6313557143.034912,0.7567229463881741,16.89723152426401
101.0,196298684005.679,7368095278.099329,0.7601209267102271,17.00547883453117
102.0,230973402431.2526,8602640783.146366,0.7635088028357172,17.115396874415104
103.0,271616030795.16214,10048909806.605562,0.7668848457612363,17.22697936772798
104.0,319256156144.85236,11743531976.187582,0.7702473772373317,17.34021960787741
105.0,375096413362.09955,13728512585.974466,0.7735947709520874,17.45511044679582
106.0,440535963583.69415,16051703609.876701,0.776925453554913,17.571644284220767
107.0,517194957569.9202,18767327520.077694,0.7802379056171558,17.689813057399807
108.0,606940669881.307,21936573406.176277,0.7835306623471731,17.809608232064726
109.0,711915586403.0161,25628351452.057213,0.7868023142930546,17.931020793303222
110.0,834567183499.5657,29920230767.769943,0.790051507798486,18.05404123824427
111.0,977681838730.341,34899640748.24718,0.793276945395152,18.178659568805713
112.0,1144421405085.1924,40665390328.42839,0.7964773860644792,18.304865285926823
113.0,1338365964517.8723,47329526932.11554,0.7996516453097693,18.432647384975574
114.0,1563563257956.6133,55019608759.08439,0.8027985951611231,18.561994351953903
115.0,1824585249446.8186,63881418904.284966,0.8059171640568716,18.692894161218483
116.0,2126594238134.2131,74082124692.8532,0.8090063365653575,18.825334274810313
117.0,2475419967185.777,85813916573.9427,0.8120651530091624,18.959301643137564
118.0,2877648387532.9917,99298150760.8515,0.8150927090058144,19.09478270718861
119.0,3340722840880.662,114789973070.16751,0.818088154881733,19.231763402770543
120.0,3873059957985.3125,132583409617.2204,0.821050694972682,19.370229166604666
121.0,4484179248573.745,153016931725.2128,0.8239795868452219,19.510164944490196
122.0,5184847438800.799,176479455598.49268,0.8268741404234188,19.65155520169658
123.0,5987237288970.402,203416747251.1531,0.829733717030478,19.79438393573673
124.0,6905100416331.543,234338193266.6453,0.8325577283508867,19.938634691680644
125.0,7953953263762.91,269823892730.40723,0.835345635318756,20.084290580172564
126.0,9151275006160.93,310532030327.10626,0.8380969469380332,20.231334298316742
127.0,10516716123607.273,357206514360.5626,0.8408112190406276,20.379748153586426
128.0,12072315086336.504,410684915046.8918,0.8434880529906811,20.529514090961474
129.0,13842722488451.05,471906757238.75946,0.8461270943335307,20.68061372343864
130.0,15855431284759.154,541922298611.4107,0.8487280313993876,20.833028366059633
131.0,18141012606113.375,621902002804.3158,0.8512905938763301,20.986739073580974
132.0,20733352451541.805,713146893348.9208,0.8538145513434386,21.141726682135243
133.0,23669901219629.496,817100030201.3795,0.856299711776244,21.29797185460718
134.0,26991925203272.316,935359457186.1069,0.8587459200341157,21.455455130251426
135.0,30744768948323.305,1069692861887.5063,0.8611530563303208,21.614156978433545
136.0,34978130286217.203,1222054267382.1753,0.8635210346907668,21.77405785659607
137.0,39746355729951.34,1394603052510.7288,0.8658498014090472,21.935138272445663
138.0,45108739439420.29,1589725627389.9912,0.8681393335016796,22.09737885061654
139.0,51129869391695.08,1810059964900.4822,0.8703896371742343,22.2607604033045
140.0,57879994785692.85,2058523128883.4954,0.8726007462872307,22.425264005101358
141.0,65435423078189.52,2338342082611.8784,0.8747727208414655,22.590871071813545
142.0,73878956731565.77,2653087830281.2935,0.8769056454867514,22.757563443004628
143.0,83300371331620.08,3006712943022.9307,0.8789996280558476,22.92532346797711
144.0,93796942147534.4,3403592345744.5527,0.8810547981251854,23.09413409468382
145.0,105473992054743.97,3848567918220.6465,0.8830713056268081,23.263978961963478
146.0,118445529427280.64,4346995798656.6113,0.8850493194823225,23.43484249336643
147.0,132834902103360.25,4904795792696.678,0.8869890262617967,23.60670999113432
148.0,148775473962190.28,5528504499495.208,0.8888906289285946,23.779567732333717
149.0,166411388835238.53,6225331142070.482,0.8907543456349573,23.953403065700574
150.0,185898364040969.8,7003212974427.528,0.8925804085303435,24.12820450392599
151.0,207404470730531.56,7870872970665.025,0.894369062658005,24.303961814705804
152.0,231110954439808.75,8837879855259.736,0.8961205649289088,24.48066611030554
153.0,257213160927887.9,9914706254602.533,0.8978351831296981,24.658309929300128
154.0,285921344985147.44,11112786555108.137,0.8995131950021005,24.836887310281025
155.0,317461485848926.8,12444577697140.38,0.9011548874209203,25.01639386155304
156.0,352076335954889.4,13923615343985.232,0.902760555608695,25.1968268167734
157.0,390026103916592.9,15564569731143.63,0.9043305024305879,25.3781850756334
158.0,431589430297221.2,17383307635568.8,0.9058650378006333,25.560469241179266
159.0,477064258725287.94,19396941693511.934,0.9073644780961021,25.74368162415827
160.0,526768562896440.3,21623893033503.945,0.908829145713308,25.927826243705827
161.0,581041388254343.1,24083945922789.246,0.9102593686569115,26.112908799081882
162.0,640243399624788.8,26798307438665.566,0.9116554802173005,26.298936618739237
163.0,704758180939803.8,29789665345751.363,0.9130178187104491,26.485918585727386
164.0,774992617521707.1,33082255761622.64,0.9143467273037952,26.673865035428395
165.0,851378358939549.1,36701923224033.375,0.9156425538799734,26.86278762103758
166.0,934372196424414.2,40676202727326.55,0.9169056510053459,27.052699153644383
167.0,1024457545494045.0,45034380716611.93,0.9181363758924058,27.243613399296457
168.0,1122145353573216.9,49807595607095.25,0.9193350904949943,27.43554485388983
169.0,1227975130829440.5,55028910417313.76,0.9205021615637428,27.628508470924682
170.0,1342516822310270.8,60733413746442.66,0.9216379607983741,27.822519360685256
171.0,1466371562367386.5,66958334987123.1,0.9227428650335942,28.017592448656874
172.0,1600173423923542.8,73743139383281.73,0.9238172563927638,28.213742101935242
173.0,1744591699284096.2,81129655105006.31,0.9248615225134724,28.410981714909568
174.0,1900332211581722.0,89162215032297.25,0.9258760567781905,28.609323258435385
175.0,2068139535806068.0,97887781442573.1,0.926861258495016,28.80877680727274
176.0,2248799912830013.8,107356089516309.5,0.9278175330942228,29.009350031397524
177.0,2443143227556725.0,117619831225049.16,0.9287452923531773,29.211047642565116
178.0,2652046113033106.0,128734808667497.28,0.9296449545193765,29.41387083946047
179.0,2876435074819956.5,140760111936951.56,0.9305169444251394,29.617816725787627
180.0,3117289957658710.5,153758308031862.03,0.9313616935599957,29.822877710922775
181.0,3375648070764912.5,167795641032633.06,0.9321796400950071,30.029040893190817
182.0,3652608036912873.0,182942257232668.44,0.9329712288625664,30.236287427974638
183.0,3949334252341174.0,199272428946876.5,0.9337369112505267,30.444591907951317
184.0,4267061597488886.5,216864789934451.75,0.9344771450282444,30.653921754929154
185.0,4607101283715133.0,235802592602327.9,0.9351923941144323,30.864236600392736
186.0,4970846502727850.0,256173984649546.4,0.935883128270434,31.075487689304556
187.0,5359778805596317.0,278072305082140.22,0.936549822719043,31.2876173020061
188.0,5775475232182453.0,301596403248777.8,0.9371929576902402,31.50055819811032
189.0,6219615604127407.0,326850995335888.0,0.937813017899364,31.714233084137987
190.0,6693990814413264.0,353947033267014.4,0.9384104919444329,31.92855413505547
191.0,7200511969307939.0,383002130341349.3,0.9389858716481271,32.143422524336295
192.0,7741219439672032.0,414141008429179.75,0.9395396513326171,32.35872803432945
193.0,8318294455875981.0,447495998755539.8,0.9400723270386385,32.574348674405314
194.0,8934070455535150.0,483207599859270.06,0.9405843956964227,32.79015036359287
195.0,9591045876299934.0,521425089873839.9,0.9410763542513111,33.005986659408
196.0,1.0291898169840448e+16,562307205360998.56,0.9415486987520453,33.22169853739533
197.0,1.1039499170559308e+16,606022893381679.9,0.9420019234087192,33.4371142224271
198.0,1.183693196622445e+16,652752144889858.9,0.9424365196274377,33.652049072348646
199.0,1.2687509435689054e+16,702686917006139.9,0.9428529750286485,33.86630551415969
200.0,1.3594794632784238e+16,756032156450494.4,0.9432517724558932,34.079673032583926
201.0,1.4562623225946616e+16,813006932602203.2,0.943633388981378,34.29192821061666
202.0,1.5595128219306328e+16,873845688624106.1,0.9439982949143187,34.50283482145717
203.0,1.669676720565886e+16,938799625460134.6,0.9443469528174647,34.712143971134935
204.0,1.7872352478955666e+16,1008138229197576.8,0.9446798165370056,34.91959429136099
205.0,1.9127084222495596e+16,1082150960520679.5,0.9449973302482713,35.12491218057814
206.0,2.0466587137795932e+16,1161149115491598.8,0.945299927522377,35.32781209504579
207.0,2.1896951032613484e+16,1245467880184825.8,0.9455880304170862,35.527996889111805
208.0,2.3424775698447244e+16,1335468590184486.5,0.9458620485921801,35.72515820367134
209.0,2.5057220591996452e+16,1431541221898828.0,0.9461223784511358,35.918976903962665
210.0,2.6802059875056244e+16,1534107137196616.2,0.9463694023096019,36.109123567684925
211.0,2.8667743432409412e+16,1643622105945516.5,0.9466034875904873,36.2952590249473
212.0,3.0663464563277456e+16,1760579632707637.2,0.9468249860448255,36.47703495213242
213.0,3.279923511956535e+16,1885514622476726.2,0.9470342329969818,36.6540945223704
214.0,3.508596897352623e+16,2019007422625819.2,0.9472315466122144,36.826073115961506
215.0,3.75355748058139e+16,2161688267544841.2,0.947417227184095,36.992599094744506
216.0,4.016105931185607e+16,2314242178968459.0,0.9475915564388416,37.15329464507004
217.0,4.297664207872422e+16,2477414366550243.5,0.9477547968532154,37.30777669468941
218.0,4.599788353804722e+16,2652016181431090.5,0.947907190982286,37.455657909490924
219.0,4.9241827578631384e+16,2838931681293235.5,0.9480489607930793,37.596547776588395
220.0,5.272716060617768e+16,3039124868249842.5,0.9481803069998843,37.730053780764464
221.0,5.647438904823422e+16,3253647681141331.0,0.9483014083968357,37.855782681667584
222.0,6.050603759471101e+16,3483648817451139.0,0.9484124211832838,37.973341899420205
223.0,6.484687072802554e+16,3730383462644362.5,0.9485134782774559,38.08234101637818
224.0,6.952414041913942e+16,3995224038495984.0,0.948604688613997,38.1823934026399
225.0,7.456786332328973e+16,4279672070525978.0,0.9486861364222355,38.27311797229131
226.0,8.001113119751434e+16,4585371313424222.0,0.9487578804774749,38.354141077725274
227.0,8.589045828499032e+16,4914122257294990.0,0.948819953324383,38.42509854684233
228.0,9.224617079197595e+16,5267898143038430.0,0.9488723604746745,38.48563786538441
229.0,9.912284362054507e+16,5648862676937404.0,0.9489150795705158,38.53542050729496
230.0,1.0656979030620846e+17,6059389644733338.0,0.9489480595155615,38.57412441127619
231.0,1.1464161297265131e+17,6502084605557832.0,0.948971219574712,38.601446598560656
232.0,1.2339881990163789e+17,6979808906184007.0,0.9489844484455118,38.617105922609035
233.0,1.329085193553483e+17,7495706288000976.0,0.9489876033063284,38.62084593632971
234.0,1.4324519942470597e+17,8053232376843932.0,0.9489805088490354,38.61243785648073
235.0,1.5449160495460237e+17,8656187391884841.0,0.9489629563068623,38.59168359819113
236.0,1.6673973438320595e+17,9308753245086150.0,0.9489347024227555,38.55841890432048
237.0,1.800919132812024e+17,1.00155316608889e+16,0.9488954687068528,38.512516232197385
238.0,1.9466208452532746e+17,1.0781590914048008e+16,0.9488449403856962,38.45388791937194
239.0,2.1057719939373418e+17,1.1612515001779846e+16,0.9487827656408254,38.38248900939237
240.0,2.2797883180046563e+17,1.2514460945419014e+16,0.9487085547910055,38.29832006664007
241.0,2.4702493697759728e+17,1.3494219709515144e+16,0.9486218798090156,38.201429513460816
242.0,2.6789186100289747e+17,1.4559285343730554e+16,0.9485222739255381,38.09191571401784
243.0,2.9077661543350234e+17,1.5717932607343678e+16,0.9484092314173538,37.96992865905281
244.0,3.158995077634788e+17,1.6979305898486228e+16,0.9482822075609189,37.835671255011505
245.0,3.43507040971854e+17,1.8353518956298724e+16,0.9481406188999504,37.689399931927206
246.0,3.73875160582574e+17,1.98517636056375e+16,0.9479838439454477,37.53142445956989
