Time,J,A,S,tau
0.0,100.0,100.0,0.8022306700161549,14.492753623188404
1.0,85.3231337151708,130.32785118909285,0.8048421608731064,14.90126025725526
2.0,75.54596664632649,157.70094291529014,0.8074850992768128,15.32032325926791
3.0,69.36286042596328,182.34658571970172,0.8101565972198285,15.749620154389778
4.0,65.69393541606013,204.4782762827309,0.8128542308632586,16.18888906007416
5.0,63.65672708025655,224.29479169649417,0.8155757112218003,16.637872305204287
6.0,62.53796532003048,241.98110961581435,0.8183188791331932,17.096316428660725
7.0,61.76848002873295,257.7092938491791,0.8210817003554344,17.563972170723353
8.0,60.9011143976143,271.63931688005414,0.8238622608506319,18.040594459749876
9.0,59.59133569908962,283.91982997872,0.826658762204082,18.52594239296626
10.0,57.580298810819336,294.68890678286834,0.8294695171992192,19.01977921266966
11.0,54.68016016669663,304.0747150780713,0.8322929454929201,19.52187227603571
12.0,50.76137709528708,312.19619081628036,0.8351275694535057,20.0319930215301
13.0,45.74187003179857,319.16360891727817,0.8379720101413518,20.54991693144636
14.0,39.57768853071367,325.0792186842499,0.8408249834532483,21.07542349257882
15.0,32.25513719718528,330.03773570876655,0.8436852961313467,21.608296141223477
16.0,23.78448314127157,334.12648677844095,0.8465518427491295,22.14832224280715
17.0,14.193622831260448,337.42674411354403,0.8494236010697511,22.695292991696483
18.0,3.524095486853812,340.01348735424517,0.8522996293900427,23.249003389325512
19.0,0.0,341.9560144557725,0.8551790630226465,23.809252177551993
20.0,0.0,343.3184958730742,0.8580611110767785,24.375841777347127
21.0,0.0,155.3183886238878,0.8609450533755331,24.948578226514293
22.0,0.0,76.2974282417893,0.8638302374028092,25.52727111147445
23.0,0.0,47.02879555884747,0.8667160754343192,26.111733500959925
24.0,0.0,36.06948026979053,0.8696020417288342,26.70178187577932
25.0,0.0,31.852276406936145,0.8724876698276236,27.29723605729762
26.0,0.0,30.121802568583625,0.8753725499507163,27.897919134313653
27.0,0.0,29.31255264714706,0.878256326489189,28.5036573885502
28.0,0.0,28.848553515440372,0.8811386955886084,29.114280218719394
29.0,0.0,28.517806428303675,0.8840194028267774,29.729620063607605
30.0,0.0,28.242270066503885,0.8868982409368159,30.349512321247946
31.0,0.0,26.98251268160499,0.8896484518276464,30.95605746572729
32.0,0.0,18.779467523857157,0.8907093749289561,31.329555610309686
33.0,0.0,16.797191942661517,0.8917494743343011,31.70291587908394
34.0,0.0,16.917857234104247,0.8927690378972316,32.075981723690745
35.0,0.0,17.647277572265523,0.8937683451388965,32.44859309621687
36.0,0.0,18.454576574018358,0.8947476668806853,32.820586380331804
37.0,0.0,19.16144002689261,0.8957072648863065,33.19179431701449
38.0,0.0,19.71749789002996,0.8966473915180514,33.56204592724143
39.0,0.0,20.117970279407672,0.8975682893941962,33.93116642674931
40.0,0.0,20.373505304861343,0.8984701910632145,34.29897713935554
41.0,0.0,20.4995012625198,0.8993533186859217,34.665295405357945
42.0,0.0,20.511204343084984,0.9002178837015355,35.02993447830851
43.0,0.0,20.42392719397389,0.9010640865375366,35.392703428525344
44.0,0.0,20.251142640689793,0.9018921163040311,35.75340703821468
45.0,0.0,20.004834470865944,0.9027021504520416,36.11184567616554
46.0,0.0,19.696588962601947,0.9034943545365618,36.467815202204065
47.0,0.0,19.335563266251988,0.9042688818342105,36.82110682317408
48.0,0.0,18.93109728315348,0.9050258731520733,37.1715070006309
49.0,0.0,18.490684602829514,0.9057654563896077,37.51879727935771
50.0,0.0,18.0213635492851,0.9064877463754824,37.86275420221176
51.0,0.0,17.52911890443483,0.9071928444878608,38.20314915048807
52.0,0.0,17.019628064807442,0.9078808383745268,38.53974821089429
53.0,0.0,16.497492450308492,0.9085518016183478,38.87231203493286
54.0,0.0,15.967012751731472,0.9092057934806269,39.200595708480655
55.0,0.0,15.431521295705688,0.9098428584857085,39.52434859903227
56.0,0.0,14.894625341573006,0.9104630261069432,39.84331419253685
57.0,0.0,14.35908486890673,0.9110663107070457,40.15723004619568
58.0,0.0,13.82742901926674,0.911652710879118,40.46582755372905
59.0,0.0,13.301510601591012,0.912222209341909,40.76883187618483
60.0,0.0,12.783139163371684,0.9127747724378651,41.06596176696076
61.0,0.0,12.27386119978868,0.9133103498729721,41.35692947581348
62.0,0.0,8.121459491376141,0.9138288742969286,41.641440614054346
63.0,0.0,2.987670400575211,0.9143302611790959,41.9191941181313
64.0,0.0,1.0990850224886655,0.9148144082091948,42.189882082711605
65.0,0.0,0.4043243511768412,0.9152811950269264,42.453189714965546
66.0,0.0,0.1487402512033603,0.9157304828626648,42.7087952747459
67.0,0.0,0.05471761090014102,0.9161621141773135,42.956370036884046
68.0,0.0,0.020129164406515944,0.9165759123019358,43.195578277283346
69.0,0.0,0.007404988170632863,0.9169716810784759,43.42607728646599
70.0,0.0,0.0027240996174583295,0.9173492045030982,43.64751741459504
71.0,0.0,0.0010021243052964906,0.9177082463739008,43.859542152383135
72.0,0.0,0.0003686550613838678,0.9180485499449793,44.061788252710606
73.0,0.0,0.00013561845795657953,0.918369837589083,44.25388589820807
74.0,0.0,4.989044751797499e-05,0.9186718104713534,44.43545892050784
75.0,0.0,1.8353376440143053e-05,0.9189541482369188,44.606125077332614
76.0,0.0,0.0,0.9192165087154291,44.76549639406928
77.0,0.0,0.0,0.9194585276458108,44.913179576918765
78.0,0.0,0.0,0.9196798184250352,45.04877650523804
79.0,0.0,0.0,0.919879971884863,45.171884811094216
80.0,0.0,0.0,0.9200585561012461,45.28209855450945
81.0,0.0,0.0,0.9202151162411443,45.379009003317016
82.0,0.0,0.0,0.9203491744540466,45.462205527083384
83.0,0.0,0.0,0.920460229806913,45.531276611630325
84.0,0.0,0.0,0.9205477583960656,45.585811017701474
85.0,0.0,0.0,0.9206112131787844,45.62539905236944
86.0,0.0,0.0,0.9206500250917177,45.64963420591896
87.0,0.0,0.0,0.9206635992086197,45.65811396213421
88.0,0.0,0.0,0.9206513213870874,45.65044305882322
89.0,0.0,0.0,0.920612557410368,45.62623223867693
90.0,0.0,0.0,0.9205466474459566,45.58510732118512
91.0,0.0,0.0,0.9204529013147567,45.52670509009612
92.0,0.0,0.0,0.9203306318131672,45.45066712927501
93.0,0.0,0.0,0.9201791141483759,45.35667193447401
94.0,0.0,0.0,0.9199975966335943,45.24441322478133
95.0,0.0,0.0,0.9197853295929536,45.11358890277082
96.0,0.0,0.0,0.9195415432569691,44.96394648880301
97.0,0.0,0.0,0.9192654364989514,44.795265862606755
98.0,0.0,0.0,0.918956209853831,44.607332673378394
99.0,0.0,0.0,0.9186130497791153,44.39999771994942
100.0,0.0,0.0,0.9182351183127538,44.17315398877391
101.0,0.0,0.0,0.9178215789020242,43.92670802884824
102.0,0.0,0.0,0.9173715882490424,43.66064538013491
103.0,0.0,0.0,0.9168842929078594,43.37498412836059
104.0,0.0,0.0,0.9163588405078783,43.06980955306132
105.0,0.0,0.0,0.9157943701758687,42.74525942510748
106.0,0.0,0.0,0.9151900309702616,42.401516845434166
107.0,0.0,0.0,0.9145449703613018,42.03886951972867
108.0,0.0,0.0,0.9138583356674536,41.65762126920088
109.0,0.0,0.0,0.9131292960378908,41.25815901542356
110.0,0.0,0.0,0.9123570259053336,40.84096596775857
111.0,0.0,0.0,0.9115407038766512,40.40653851869247
112.0,0.0,0.0,0.9106795430658225,39.955476922050565
113.0,0.0,0.0,0.9097727663173427,39.48845384810537
114.0,0.0,0.0,0.9088196072987841,39.00615992161262
115.0,0.0,0.0,0.9078193477643746,38.509393374494934
116.0,0.0,0.0,0.9067712798662294,37.99899554826963
117.0,0.0,0.0,0.9056747181513986,37.47583640395687
118.0,0.0,0.0,0.9045290307015665,36.940867465386056
119.0,0.0,0.0,0.9033335963621751,36.39505834905119
120.0,0.0,0.0,0.9020878459527605,35.83942552678364
121.0,0.0,0.0,0.9007912385201384,35.27501088371262
122.0,0.0,0.0,0.8994432693666199,34.70287531079667
123.0,0.0,0.0,0.8980434875837741,34.12409788583759
124.0,0.0,0.0,0.8965914613278175,33.53976183239955
125.0,0.0,0.0,0.8950868267227766,32.9509492917555
126.0,0.0,0.0,0.8935292423072214,32.3587365503746
127.0,0.0,0.0,0.8919184213574616,31.76418359953961
128.0,0.0,0.0,0.8902541255106274,31.168325720255936
129.0,0.0,0.0,0.888536144022057,30.572180387135592
130.0,0.0,0.0,0.8867643395521355,29.976714598216613
131.0,0.0,0.0,0.884938591229045,29.382878429940096
132.0,0.0,0.0,0.883058846949756,28.79155799974257
133.0,0.0,0.0,0.881125092739915,28.20360865967703
134.0,0.0,0.0,0.8791373500284201,27.61983115794444
135.0,0.0,0.0,0.8770957143717318,27.04096786387341
136.0,0.0,0.0,0.8750002875798928,26.467726980818412
137.0,0.0,0.0,0.8728512577220429,25.900735539745202
138.0,0.0,0.0,0.8706488311965022,25.340596098874524
139.0,0.0,0.0,0.8683932641564974,24.787831074246313
140.0,0.0,0.0,0.8660848795519304,24.242926669148623
141.0,0.0,0.0,0.863723999786224,23.706312028174718
142.0,0.0,0.0,0.861311052057439,23.178358333180984
143.0,0.0,0.0,0.8588464404720618,22.65940665725572
144.0,0.0,0.0,0.8563306671667853,22.149723455000856
145.0,0.0,0.0,0.8537642838319012,21.649559871594583
146.0,0.0,0.0,0.8511477969049499,21.159108499906846
147.0,0.0,0.0,0.8484818840020057,20.678515036408708
148.0,0.0,0.0,0.8457672146204426,20.2079180334888
149.0,0.0,0.0,0.8430043875365156,19.74739165615877
150.0,0.0,0.0,0.8401942438343954,19.296979597280238
151.0,0.0,0.0,0.8373376431796877,18.8567254686069
152.0,0.0,0.0,0.8344351694527476,18.42662553275215
153.0,0.0,0.0,0.8314877277420449,18.00662967818527
154.0,0.0,0.0,0.8284964203592633,17.596691259714053
155.0,0.0,0.0,0.8254623496160863,17.196763632146286
156.0,0.0,0.0,0.8223865326611025,16.806786726633614
157.0,0.0,0.0,0.8192697504271718,16.426625419522896
158.0,0.0,0.0,0.8161132090273381,16.056160550359493
159.0,0.0,0.0,0.8129181663914602,15.695278347525885
160.0,0.0,0.0,0.8096856761392154,15.343840380882972
161.0,0.0,0.0,0.8064168863928292,15.00168499610629
162.0,0.0,0.0,0.8031132156483708,14.66866515411493
163.0,0.0,0.0,0.7997760525624541,14.344631088771175
164.0,0.0,0.0,0.7964065740548681,14.029404422959955
165.0,0.0,0.0,0.7930062325643457,13.722814555676612
166.0,0.0,0.0,0.7895765137151942,13.42469298881225
167.0,0.0,0.0,0.7861187622187773,13.134855305588786
168.0,0.0,0.0,0.7826345792381413,12.853127080212436
169.0,0.0,0.0,0.7791255541545468,12.579332791476164
170.0,0.0,0.0,0.7755931808991734,12.313287358972078
171.0,0.0,0.0,0.7720391521722567,12.054815028070564
172.0,0.0,0.0,0.7684650602787554,11.803734214751863
173.0,0.0,0.0,0.7648726347376928,11.559869185619524
174.0,0.0,0.0,0.7612636017520005,11.323044267864521
175.0,0.0,0.0,0.7576396784344026,11.093083811889237
176.0,0.0,0.0,0.754002713748579,10.869818773851408
177.0,0.0,0.0,0.7503544663286851,10.653077442797825
178.0,0.0,0.0,0.7466968093143082,10.442694493221726
179.0,0.0,0.0,0.7430315703424951,10.238504534704136
180.0,0.0,0.0,0.739360673610034,10.040348112602612
181.0,0.0,0.0,0.7356859931887997,9.848066063695665
182.0,0.0,0.0,0.7320094932057023,9.661505177382884
183.0,0.0,0.0,0.7283330871942247,9.480512938334542
184.0,0.0,0.0,0.7246587714929,9.304942728570483
185.0,0.0,0.0,0.7209884916684498,9.13464893775437
186.0,0.0,0.0,0.7173242692534567,8.969491790324184
187.0,0.0,0.0,0.713668081657074,8.809332956312172
188.0,0.0,0.0,0.7100219499701311,8.654038861998814
189.0,0.0,0.0,0.7063878737648811,8.50347872071824
190.0,0.0,0.0,0.7027678796923457,8.357525529642201
191.0,0.0,0.0,0.6991639832632748,8.21605588894402
192.0,0.0,0.0,0.6955781988454236,8.078949248610453
193.0,0.0,0.0,0.6920125512873129,7.946089283561921
194.0,0.0,0.0,0.688469039412476,7.817362150400743
195.0,0.0,0.0,0.6849496800209284,7.692658013979835
196.0,0.0,0.0,0.6814564567482172,7.571869876773145
197.0,0.0,0.0,0.6779913613653182,7.454894007384548
198.0,0.0,0.0,0.674556361198113,7.341630105345688
199.0,0.0,0.0,0.6711534095255234,7.231980420268851
200.0,0.0,0.0,0.6677844508716949,7.125850911439046
201.0,0.0,0.0,0.6644513957367234,7.023149891955695
202.0,0.0,0.0,0.661156150984669,6.923788993882971
203.0,0.0,0.0,0.6579005807255731,6.827682564040017
204.0,0.0,0.0,0.6546865477730426,6.734747689062608
205.0,0.0,0.0,0.6515158606811343,6.644904349274982
206.0,0.0,0.0,0.6483903343134513,6.558075100156485
207.0,0.0,0.0,0.6453117085405855,6.474184658610137
208.0,0.0,0.0,0.6422817343664086,6.3931619321582005
209.0,0.0,0.0,0.639302136857577,6.314936459655687
210.0,0.0,0.0,0.6363745593914385,6.239441030039182
211.0,0.0,0.0,0.633500640823687,6.166610562418366
212.0,0.0,0.0,0.6306819729439757,6.0963825240762395
213.0,0.0,0.0,0.6279201120625032,6.028696497856537
214.0,0.0,0.0,0.6252165795319546,5.9634943434716545
215.0,0.0,0.0,0.6225728519289045,5.900720076980397
216.0,0.0,0.0,0.6199903660837672,5.840319815311
217.0,0.0,0.0,0.6174705171581432,5.7822417195483995
218.0,0.0,0.0,0.6150146580119534,5.7264359653453045
219.0,0.0,0.0,0.6126240968448475,5.672854684788013
220.0,0.0,0.0,0.6103000979464202,5.621451921699297
221.0,0.0,0.0,0.6080438806510069,5.572183584167922
222.0,0.0,0.0,0.6058566187211328,5.525007405533831
223.0,0.0,0.0,0.6037394400877658,5.479882884978195
224.0,0.0,0.0,0.6016934261227502,5.436771264700438
225.0,0.0,0.0,0.5997196114105299,5.395635481901506
226.0,0.0,0.0,0.5978189833865999,5.356440130737893
227.0,0.0,0.0,0.5959924820577623,5.319151425006439
228.0,0.0,0.0,0.5942409997527327,5.283737161855168
229.0,0.0,0.0,0.592565380981375,5.250166687585576
230.0,0.0,0.0,0.5909664222501162,5.218410863196459
231.0,0.0,0.0,0.5894448720257711,5.188442030602104
232.0,0.0,0.0,0.5880014306719217,5.1602339824911665
233.0,0.0,0.0,0.5866367502720835,5.133761936241408
234.0,0.0,0.0,0.5853514346664963,5.109002502164025
235.0,0.0,0.0,0.5841460395564803,5.085933654516028
236.0,0.0,0.0,0.5830210724958612,5.0645347050967615
237.0,0.0,0.0,0.5819769930494005,5.04478628253794
238.0,0.0,0.0,0.5810142125822403,5.026670305166499
239.0,0.0,0.0,0.5801330947696449,5.010169955104215
240.0,0.0,0.0,0.5793339552029195,4.995269664305343
241.0,0.0,0.0,0.5786170619398782,4.981955083292002
242.0,0.0,0.0,0.5779826354032866,4.970213070433129
243.0,0.0,0.0,0.577430848430374,4.960031667592521
244.0,0.0,0.0,0.5769618267447061,4.9514000818046116
245.0,0.0,0.0,0.5765756485822234,4.944308673675709
246.0,0.0,0.0,0.576272345305587,4.938748932169599
247.0,0.0,0.0,0.5760519012534528,4.9347134684287886
248.0,0.0,0.0,0.5759142538707163,4.932195994485574
249.0,0.0,0.0,0.5758592941332956,4.931191311199771
250.0,0.0,0.0,0.5758868661970183,4.931695298603054
251.0,0.0,0.0,0.5759967680397615,4.9337048960612275
252.0,0.0,0.0,0.576188751243523,4.937218099525878
253.0,0.0,0.0,0.576462521220201,4.94223394302385
254.0,0.0,0.0,0.5768177375567449,4.948752491639105
255.0,0.0,0.0,0.5772540137272633,4.956774833272829
256.0,0.0,0.0,0.577770917749406,4.96630306336466
257.0,0.0,0.0,0.5783679719265546,4.977340284512643
258.0,0.0,0.0,0.5790446532038627,4.989890590302059
259.0,0.0,0.0,0.579800393439507,5.0039590621017975
260.0,0.0,0.0,0.5806345792512582,5.019551761646416
261.0,0.0,0.0,0.5815465526950364,5.036675719376513
262.0,0.0,0.0,0.5825356110380766,5.055338935358829
263.0,0.0,0.0,0.5836010072905501,5.075550364861906
264.0,0.0,0.0,0.5847419504463953,5.0973199176927535
265.0,0.0,0.0,0.5859576055551657,5.1206584509112245
266.0,0.0,0.0,0.5872470944443994,5.145577759706587
267.0,0.0,0.0,0.5886094956354704,5.172090578524503
268.0,0.0,0.0,0.5900438450879671,5.20021056760826
269.0,0.0,0.0,0.5915491364887879,5.229952313531198
270.0,0.0,0.0,0.5931243216411216,5.261331321235665
271.0,0.0,0.0,0.594768311262837,5.29436400618781
272.0,0.0,0.0,0.5964799751742424,5.329067694580023
273.0,0.0,0.0,0.5982581432783968,5.3654606098354165
274.0,0.0,0.0,0.6001016059980961,5.403561872899106
275.0,0.0,0.0,0.6020091150546468,5.44339149265974
276.0,0.0,0.0,0.6039793843811931,5.484970357937075
277.0,0.0,0.0,0.6060110906997541,5.528320235556461
278.0,0.0,0.0,0.6081028747430985,5.573463755601713
279.0,0.0,0.0,0.6102533419415441,5.620424409916118
280.0,0.0,0.0,0.6124610636260147,5.669226539829177
281.0,0.0,0.0,0.6147245780937123,5.719895326340376
282.0,0.0,0.0,0.6170423916569805,5.772456784794503
283.0,0.0,0.0,0.6194129800864937,5.826937747460371
284.0,0.0,0.0,0.6218347896353557,5.883365858603957
285.0,0.0,0.0,0.6243062386473377,5.941769558318182
286.0,0.0,0.0,0.6268257188027627,6.0021780691013165
287.0,0.0,0.0,0.6293915966670968,6.064621385834239
288.0,0.0,0.0,0.6320022153053529,6.12913025407503
289.0,0.0,0.0,0.6346558957004038,6.195736160056393
290.0,0.0,0.0,0.6373509386549933,6.264471308989211
291.0,0.0,0.0,0.6400856263322462,6.335368606861412
292.0,0.0,0.0,0.6428582241024844,6.408461643703709
293.0,0.0,0.0,0.6456669824469894,6.483784668613439
294.0,0.0,0.0,0.6485101386398636,6.561372565836809
295.0,0.0,0.0,0.6513859187083021,6.641260834776897
296.0,0.0,0.0,0.6542925396170216,6.7234855631058394
297.0,0.0,0.0,0.6572282110360081,6.808083397262851
298.0,0.0,0.0,0.6601911373392376,6.895091513672278
299.0,0.0,0.0,0.6631795196073331,6.984547588778792
300.0,0.0,0.0,0.6661915578660283,7.076489768286762
301.0,0.0,0.0,0.6692254531813865,7.1709566322970755
302.0,0.0,0.0,0.6722794095555182,7.267987157874135
303.0,0.0,0.0,0.6753516360866942,7.3676206821713635
304.0,0.0,0.0,0.6784403488688254,7.469896860330774
305.0,0.0,0.0,0.6815437735579989,7.574855631055052
306.0,0.0,0.0,0.6846601469790399,7.682537166693913
307.0,0.0,0.0,0.6877877192953691,7.792981829911178
308.0,0.0,0.0,0.6909247558448985,7.906230123756282
309.0,0.0,0.0,0.6940695397398745,8.022322651926936
310.0,0.0,0.0,0.6972203731777031,8.14130005842447
311.0,0.0,0.0,0.7003755795598077,8.263202977903891
312.0,0.0,0.0,0.7035335049948095,8.388071975721086
313.0,0.0,0.0,0.7066925212045561,8.515947508297142
314.0,0.0,0.0,0.7098510261285396,8.646869847043053
315.0,0.0,0.0,0.7130074460025884,8.780879024655988
316.0,0.0,0.0,0.7161602367283845,8.918014770763522
317.0,0.0,0.0,0.7193078861322257,9.058316454067638
318.0,0.0,0.0,0.7224489147127467,9.201823015426603
319.0,0.0,0.0,0.7255818771714991,9.3485729000916
320.0,0.0,0.0,0.7287053634966628,9.498603987984911
321.0,0.0,0.0,0.73181800231964,9.651953550821338
322.0,0.0,0.0,0.7349184588950172,9.808658130700145
323.0,0.0,0.0,0.73800543726388,9.968753500124839
324.0,0.0,0.0,0.7410776805742583,10.132274580022159
325.0,0.0,0.0,0.7441339762032735,10.299255435593555
326.0,0.0,0.0,0.7471731513178778,10.469729071458413
327.0,0.0,0.0,0.7501940742301235,10.643727432949634
328.0,0.0,0.0,0.7531956567098435,10.821281366984026
329.0,0.0,0.0,0.7561768562262372,11.002420504247654
330.0,0.0,0.0,0.7591366718532404,11.187173134549607
331.0,0.0,0.0,0.7620741459078381,11.375566207580402
332.0,0.0,0.0,0.7649883668922722,11.567625288866267
333.0,0.0,0.0,0.7678784682173795,11.763374376695904
334.0,0.0,0.0,0.770743625926118,11.962835865973057
335.0,0.0,0.0,0.7735830599770173,12.166030531796071
336.0,0.0,0.0,0.7763960371720514,12.372977455663154
337.0,0.0,0.0,0.7791818671837278,12.583693838327106
338.0,0.0,0.0,0.7819399021293133,12.79819502516772
339.0,0.0,0.0,0.7846695376867415,13.016494475667534
340.0,0.0,0.0,0.7873702141377265,13.238603630150518
341.0,0.0,0.0,0.7900414132575179,13.464531778948073
342.0,0.0,0.0,0.7926826561082267,13.69428616062894
343.0,0.0,0.0,0.7952935079521365,13.927871866669351
344.0,0.0,0.0,0.7978735743404611,14.165291528460658
345.0,0.0,0.0,0.8004224938008482,14.406545708007407
346.0,0.0,0.0,0.8029399573647186,14.651632453467249
347.0,0.0,0.0,0.8054256753518169,14.900547441568765
348.0,0.0,0.0,0.8078794163558998,15.153283908801134
349.0,0.0,0.0,0.8103009624368857,15.409832557897179
350.0,0.0,0.0,0.8126901518986294,15.670181513232215
351.0,0.0,0.0,0.815046836035959,15.934316317796917
352.0,0.0,0.0,0.8173709192429278,16.202219850081754
353.0,0.0,0.0,0.8196623200856853,16.473872377357996
354.0,0.0,0.0,0.8219209991338654,16.749251434673454
355.0,0.0,0.0,0.824146938553188,17.028331580900492
356.0,0.0,0.0,0.826340153851067,17.311085081333736
357.0,0.0,0.0,0.8285006862528581,17.597480847916096
358.0,0.0,0.0,0.8306285999559689,17.887485475582043
359.0,0.0,0.0,0.8327239901442146,18.181062375115413
360.0,0.0,0.0,0.8347869689296777,18.478172263948018
361.0,0.0,0.0,0.8368176739823882,18.77877300141433
362.0,0.0,0.0,0.8388162639175555,19.082819401543823
363.0,0.0,0.0,0.8407829157382555,19.39026347489149
364.0,0.0,0.0,0.8427178269984871,19.701054430210792
