Time,J,A,S,tau
0.0,100.0,100.0,0.573710098882085,67.40817702869332
1.0,99.85119496705433,89.70682398460816,0.572840967434467,68.40735399240795
2.0,99.70118489438728,80.47471508175526,0.5719835457766262,69.40667991063766
3.0,99.5531055524496,72.1962593147253,0.571137191194936,70.40600582886738
4.0,99.40685287476097,64.77241639363343,0.5703013068401722,71.40533174709711
5.0,99.26232558462931,58.114524530686225,0.5694753118550566,72.40465766532682
6.0,99.119425036989,52.143163148549434,0.5686586404673183,73.40398358355654
7.0,98.97805506590906,46.78719689815599,0.5678507411152529,74.40330950178627
8.0,98.83812183885189,41.982912768846504,0.5670510756119725,75.40263542001598
9.0,98.69953371688554,37.67324708596748,0.5662591183437756,76.4019613382457
10.0,98.56220111529518,33.80706108130509,0.5654743554708005,77.40128725647543
11.0,98.42603636927801,30.338531858867405,0.5646962841568138,78.40061317470514
12.0,98.29095360484283,27.22660163424389,0.5639244118288258,79.39993909293486
13.0,98.1568686139897,24.4344794622588,0.5631582554612315,80.39926501116459
14.0,98.02369873118411,21.929182511131586,0.5623973408673664,81.3985909293943
15.0,97.89136271131456,19.68114631604717,0.5616412019995664,82.39791684762403
16.0,97.75978061717646,17.663882353196875,0.5608893803038107,83.39724276585376
17.0,97.62887370294195,15.85362579173072,0.5601414240513604,84.39656868408348
18.0,97.4985643019967,14.229075115496661,0.5593968876954251,85.3958946023132
19.0,97.3687757214377,12.771136497030248,0.5586553312659789,86.39522052054292
20.0,97.23943213177739,11.462675784709909,0.557916319737122,87.39454643877265
21.0,97.11045846382635,10.28833745005237,0.557179422435562,88.39387235700237
22.0,96.98178030668045,9.234346104531634,0.556444212455406,89.39319827523208
23.0,96.85332380458212,8.288342058196728,0.5557102660665283,90.39252419346181
24.0,96.72501555923543,7.439247188915423,0.5549771621541417,91.39185011169153
25.0,96.59678253095157,6.677117401230225,0.5542444816516806,92.39117602992125
26.0,96.46855194157192,5.993032724076444,0.5535118069838749,93.39050194815097
27.0,96.340251179482,5.378994706150453,0.5527787215217469,94.3898278663807
28.0,96.21180770439891,4.827821592321247,0.5520448090363561,95.38915378461041
29.0,96.08314895399269,4.3330731213443325,0.5513096531630151,96.38847970284014
30.0,95.95420225041923,3.8889701507236767,0.5505728368649588,97.38780562106986
31.0,95.824894708666,3.4903242403909838,0.54983394190746,98.38713153929959
32.0,95.69515314426424,3.1324828888799874,0.5490925483282295,99.3864574575293
33.0,95.56490398164529,2.811268546667691,0.5483482339115173,100.38578337575903
34.0,95.43407316462174,2.5229317311435024,0.5476005736744195,101.38510929398875
35.0,95.30258606355922,2.2641094406940216,0.5468491393341138,102.38443521221848
36.0,95.17036738621239,2.0317809290910094,0.546093498796161,103.38376113044819
37.0,95.03734108796941,1.8232359310275095,0.5453332156393816,104.38308704867791
38.0,94.90343027856885,1.636042166660263,0.5445678485804327,105.38241296690764
39.0,94.76855713511496,1.4680149529083093,0.5437969509745768,106.38173888513735
40.0,94.63264280975889,1.3171946257528724,0.5430200702857745,107.38106480336708
41.0,94.49560733767319,1.1818213502365678,0.5422367475584446,108.3803907215968
42.0,94.35736955025202,1.0603149446740499,0.5414465169192415,109.37971663982653
43.0,94.21784697948759,0.951257878939035,0.5406489050281128,110.37904255805624
44.0,94.07695576874332,0.853376656362996,0.539843430566093,111.37836847628597
45.0,93.93461058356213,0.7655282322283645,0.5390296037232882,112.37769439451569
46.0,93.79072451397182,0.6866868274182264,0.5382069256379899,113.3770203127454
47.0,93.64520898832403,0.6159308264653406,0.5373748879020334,114.37634623097513
48.0,93.49797367928149,0.5524333441390165,0.5365329720210377,115.37567214920485
49.0,93.34892640765878,0.4954518509740354,0.5356806488622906,116.37499806743457
50.0,93.19797305709939,0.4443194315288844,0.5348173781648722,117.37432398566429
51.0,93.04501747513697,0.3984377799922891,0.5339426079715469,118.37364990389402
52.0,92.88996138195914,0.3572693846466425,0.5330557741048758,119.37297582212373
53.0,92.73270428304853,0.32033167750303426,0.532156299665592,120.37230174035346
54.0,92.57314336785346,0.28719164788013984,0.5312435944507043,121.37162765858318
55.0,92.41117342515379,0.25746022510200517,0.5303170544674778,122.37095357681291
56.0,92.24668675126115,0.2307882786053492,0.5293760614062413,123.37027949504262
57.0,92.07957305195312,0.20686236517137094,0.5284199820771754,124.36960541327234
58.0,91.90971936301722,0.18540092178389833,0.5274481679539735,125.36893133150207
59.0,91.73700995428855,0.16615136061349345,0.5264599546226767,126.36825724973178
60.0,91.56132624128036,0.14888680064656565,0.5254546612740837,127.36758316796151
61.0,91.38254670784694,0.13340353231790297,0.5244315902595172,128.36690908619124
62.0,91.20054681033449,0.11951880446858196,0.5233900265402323,129.36623500442096
63.0,91.01519890296078,0.10706843028219352,0.5223292372587214,130.36556092265067
64.0,90.82637216072946,0.09590507040523263,0.5212484971879474,131.3648808150404
65.0,90.63393249157403,0.08589649775849179,0.5201473499596854,132.3641215182247
66.0,90.43774247621745,0.07692393594112713,0.519025171465715,133.36324397641795
67.0,90.23766129213787,0.06888084635050153,0.5178812391072141,134.36222726070298
68.0,90.03354464419873,0.061671568153371666,0.5167148268847789,135.36104633572617
69.0,89.82524471637609,0.055210214682726036,0.515525207988596,136.35967132694873
70.0,89.61261010336497,0.0494197596844506,0.5143116583606856,137.35806651547432
71.0,89.39548576717493,0.044231023024023035,0.513073461117663,138.35618914528087
72.0,89.17371300000876,0.039581929214173084,0.5118099119083871,139.3539879956753
73.0,88.94712937424505,0.035416797633832736,0.5105203255914073,140.3514015902985
74.0,88.71556872881058,0.0316856228111294,0.5092040442335318,141.34835610936128
75.0,88.47886114555875,0.028343562143956193,0.5078604468601571,142.34476282496016
76.0,88.23683293217135,0.0253503739775904,0.5064889614550293,143.34051494801605
77.0,87.98930663764,0.02266993586189951,0.5050890790549597,144.3354839579316
78.0,87.73610105130179,0.020269865727412354,0.5036603711504684,145.32951502307986
79.0,87.47703123048738,0.018121094984341675,0.502202510474923,146.3224215405921
80.0,87.21190854591616,0.016197547083363285,0.5007152954094607,147.31397871021016
81.0,86.94054071776434,0.014475846257039772,0.49919868009011514,148.30391553722436
82.0,86.56481358313697,0.11304246934354045,0.4976528092382032,149.29190556673336
83.0,85.7152965154348,0.7587894651472512,0.49607805911090896,150.27755591478703
84.0,84.88655758123072,1.5205416389464823,0.494475086461429,151.26039405182473
85.0,84.0977639124882,2.4211052927053527,0.49284488466422083,152.2398525471417
86.0,83.37483991730522,3.4876653366047545,0.4911888483334857,153.21525135671536
87.0,82.75256382401477,4.752535020249778,0.4895088466863376,154.1857775213447
88.0,82.27726407952609,6.2539866216434605,0.48780730518206344,155.1504623288137
89.0,82.01027311614281,8.03715247680944,0.48608729458666045,156.10815607978992
90.0,82.03231558995591,10.154970229633136,0.48435262517726163,157.0575009789317
91.0,82.4490478105632,12.669128359495154,0.48260794219792824,157.99690310417196
92.0,83.39797812589613,15.65095247525313,0.48085881716537326,158.9245048202134
93.0,85.05703204482454,19.182134806988493,0.4791118261978409,159.83815996527383
94.0,87.65500310679329,23.355193140827062,0.4773746048755838,160.73541463087622
95.0,91.48407904087878,28.27350940214167,0.47565586574533275,161.6134973643379
96.0,96.9146995050334,34.05078316967067,0.47396536331005246,162.4693230441729
97.0,104.41255847350834,40.80971398251825,0.4723137886824158,163.29951562320446
98.0,114.55780324514127,48.67978331891085,0.47071258167704483,164.1004534049053
99.0,128.06580644564238,57.79401869967022,0.4691736485002286,164.8683407326818
100.0,145.80878660443318,68.28476848478199,0.4677089864223474,165.59930628536242
101.0,168.83736788069086,80.27861826611327,0.4663302264106359,166.28952560949838
102.0,198.4003117128471,93.89078080485665,0.4650481223164,166.93536064102852
103.0,235.9613992545694,109.21939152009314,0.4638720254999798,167.53350569501353
104.0,283.211435797922,126.34031617693168,0.46280939933739695,168.08112507159223
105.0,342.0743986146467,145.30301528773137,0.46186542338585324,168.57596803912773
106.0,414.70692634816095,166.12796814292957,0.4610427340329241,169.01644767179644
107.0,503.4906142909981,188.80597181563215,0.46034133146948464,169.40167441134096
108.0,611.0181485387267,213.29930094999105,0.4597586539737144,169.73144316041086
109.0,740.0737328125374,239.54459284561645,0.4592898091877845,170.0061760960567
110.0,893.6096787750303,267.45696884461194,0.4589279198631226,170.2268324242401
111.0,1074.7204960875692,296.9349215966678,0.45866454312992294,170.39479627856923
112.0,1286.6160040554346,327.86541212648183,0.4584901136175835,170.51175655587784
113.0,1532.5946054213632,360.1287361505417,0.45839437116030046,170.57958982247496
114.0,1816.017655080655,393.6028141495215,0.45836674137214134,170.60025538076627
115.0,2140.285256414562,428.1667268188827,0.4583966527030388,170.57570737212126
116.0,2508.8136938235084,463.7034198893388,0.45847378228168845,170.50782631979092
117.0,2925.014320277642,500.10161596549983,0.4585882330399761,170.39836962817444
118.0,3392.273860487487,537.2570011532816,0.45873064794088153,170.2489395843966
119.0,3913.9354256197917,575.0728484375738,0.45889227429181834,170.060965321908
120.0,4493.280363066766,613.4601700417884,0.4590649872149752,169.8356962987094
121.0,5133.510277808066,652.3375361797237,0.45924128283244214,169.574204376682
122.0,5837.729533900933,691.6306489492082,0.4594142504559411,169.27739192400355
123.0,6608.926706604895,731.2718281805604,0.45957753551558694,168.94600265126374
124.0,7449.956945805943,771.1993518281417,0.45972529024032033,168.58063606571366
125.0,8363.523955417395,811.3567937173941,0.4598521235371735,168.18176229787812
126.0,9352.160742669857,851.692403275834,0.4599530537608504,167.74973627768364
127.0,10418.21158378388,892.1584556929896,0.4600234595216493,167.28481262910037
128.0,11563.81296041144,932.7106994307934,0.4600590375811114,166.78715873062202
129.0,12790.875127247642,973.3078221086649,0.46005576308711993,166.25686727625626
130.0,14101.062797583054,1013.9109855367304,0.46000985557688134,165.6939674001289
131.0,15495.776020540685,1054.483401445569,0.459917748719617,165.0984349426266
132.0,16976.14036350763,1094.9899239496694,0.459776060237577,164.47020244726536
133.0,18542.986681944145,1135.3968315038755,0.4595815768387415,163.80916547981028
134.0,20196.807126568183,1175.671504856744,0.4593312419011441,163.1151895970699
135.0,21937.82917112926,1215.7820852423838,0.4590221113382784,162.38812050339598
136.0,23765.839112536916,1255.6975445972673,0.458651399792484,161.6277825119622
137.0,25680.407252356712,1295.3872343041564,0.4582163955164923,160.83399118291106
138.0,27680.598636861552,1334.8208859105596,0.4577145347202641,160.00655179206746
139.0,29765.229671432404,1373.9686049141346,0.4571433344042626,159.14526582969444
140.0,31932.6843991671,1412.8004941170527,0.45650042116357503,158.24993397033015
141.0,34181.00051273943,1451.2868704538128,0.4557835231928823,157.32035820543257
142.0,36507.7936349441,1489.3980519122056,0.4549904821052296,156.35634586506404
143.0,38910.372713513505,1527.1044208544174,0.4541192293072977,155.3577098685454
144.0,41385.60296807431,1564.3763397984574,0.45316782730070027,154.32427405532977
145.0,43930.05692258137,1601.1841764091992,0.45213442863075026,153.25587077729523
146.0,46539.89884742349,1637.4983079041647,0.4510173277031891,152.152347715794
147.0,49210.9876546055,1673.28911772287,0.44981492294511005,151.01356429000657
148.0,51938.84503124959,1708.527047172175,0.44852575917075393,149.83939804412165
149.0,54693.61001691763,1777.4394361585805,0.5303011312602571,58.65416909059807
150.0,57586.70319244338,1845.334686678079,0.550348163042685,47.63010499251664
151.0,60618.59612628639,1992.6341805446611,0.5533648185333552,44.17221051656951
152.0,63968.28336735966,2213.4859798352027,0.5531589895042311,41.96041388014639
153.0,67808.3881727799,2511.1678505592913,0.5515872853932927,40.276948308657396
154.0,72320.75979995083,2889.863041861719,0.5493062969996072,38.88446214140643
155.0,77697.25091962326,3353.367135973801,0.5466244049924575,37.676433465929115
156.0,84137.9039879266,3904.633505673002,0.5437091428845579,36.59678293439661
157.0,91847.90865536212,4545.5899893190535,0.5406598026545439,35.612876852196074
158.0,101034.07131854747,5277.07564796502,0.5375386975226005,34.70431700405496
159.0,111901.07911699657,6098.844998204259,0.5343865210821472,33.857620736117894
160.0,124647.86003491406,7009.6126324682655,0.5312306372135901,33.063446345133
161.0,139464.01632045294,8007.124456746511,0.5280898606412942,32.31504719850839
162.0,156526.66472085388,9088.243373175996,0.5249773623479095,31.607362794441272
163.0,175997.45015893035,10249.04745438312,0.521902501552166,30.93646442697943
164.0,198019.90949256302,11484.92654738704,0.5188720030590999,30.299209003950537
165.0,222717.50721141108,12790.68682777844,0.5158907602871537,29.693008681939972
166.0,250191.83681656673,14160.645933709106,0.5129623582941552,29.115684305981105
167.0,280521.16377149685,15588.733671083228,0.5100894478351911,28.56536271335986
168.0,313759.878192569,17068.580776244307,0.507274000288512,28.04040596146211
169.0,349937.95743976085,18593.60649085751,0.5045174885031211,27.53936209064513
170.0,389060.99267068505,20157.098879670975,0.5018210154502029,27.06092926283773
171.0,431110.31753059797,21752.291404146854,0.4991854077517522,26.603930029659573
172.0,476043.88287033205,23372.429971723763,0.49661128281700706,26.167291067586575
173.0,523797.19630247034,25010.83501923633,0.49409909780412425,25.750028172037347
174.0,574284.4738526569,26660.961062790084,0.4916491877099719,25.35123481945538
175.0,627397.6065362418,28372.108517111974,0.4892617924678688,24.970072757563035
176.0,683194.6679182725,30255.501253495953,0.4869370729627894,24.605763411880893
177.0,742069.7221056815,32504.369070436333,0.48467513126912115,24.257582804830875
178.0,804934.9157341088,35311.37606472203,0.4824760205007724,23.924855879839203
179.0,873193.1965875869,38866.541296585645,0.48033975364779946,23.60695204553775
180.0,948712.2334923808,43353.39928389618,0.478266310310481,23.303281324603706
181.0,1033785.2226168141,48943.76163517553,0.47625564195670034,23.013291016685457
182.0,1131078.6189363755,55792.857326299396,0.47430767588982675,22.736462771850572
183.0,1243566.0923188701,64035.45891539329,0.4724223184522059,22.472309991457966
184.0,1374455.9661279505,73783.1057022641,0.4705994574154836,22.22037550052387
185.0,1527113.483348502,85122.42455841562,0.4688389638936548,21.98022947224346
186.0,1704981.4103005584,98114.4483021224,0.4671406938606398,21.75146755791733
187.0,1911503.324149323,112794.78695738957,0.4655044893255973,21.53370918348572
188.0,2150051.1377821933,129174.49870408518,0.4639301792580877,21.32659600648916
189.0,2423859.7355026873,147241.512395187,0.4624175803100166,21.129790501844596
190.0,2735969.2225424643,166962.46070331466,0.4609664973846548,20.942974670965565
191.0,3089173.869787437,188284.84428341614,0.4595767241304654,20.765848842298684
192.0,3485985.0290821497,211139.24464165984,0.4582480431763064,20.598130634389438
193.0,3928598.0389019563,235441.8538677716,0.4569802265280636,20.439553859778226
194.0,4418874.239984283,261096.05533493476,0.45577303565379285,20.289867668045744
195.0,4958310.517549323,288012.7511441714,0.4546262216834947,20.148835694389433
196.0,5548115.566508213,316235.1504215534,0.4535395254695067,20.016235225500814
197.0,6189649.014553672,346089.47828803194,0.45251267769333325,19.89185641948401
198.0,6885260.719825081,378252.2712054528,0.45154539883372913,19.775501719002815
199.0,7639189.827573983,413701.7895545781,0.4506373992232362,19.66698514864311
200.0,8458294.003071994,453669.66690887895,0.44978837900200824,19.566131739119065
201.0,9352613.649981584,499585.9426655024,0.44899802808121847,19.472776969492127
202.0,10335759.809164716,553020.0659832433,0.44826602608632526,19.386766249312927
203.0,11425125.32704862,615621.2008471099,0.4475920422859041,19.307954434557974
204.0,12641926.717795966,689061.0715235784,0.44697573550645264,19.23620537487862
205.0,14011095.451663105,774981.8004902583,0.44641675403857173,19.17139148939962
206.0,15561038.648434466,874950.4311869856,0.4459147355339449,19.11339336825085
207.0,17323293.814198893,990421.0668202727,0.44546930689208486,19.06209939885453
208.0,19332104.79900082,1122704.8929159376,0.4450800841404616,19.017405414678084
209.0,21623943.551468544,1272947.9269380886,0.44474667230845133,18.979214364677205
210.0,24237001.059125844,1442116.0263726895,0.44446866529684154,18.947436001696705
211.0,27210674.55726332,1630986.372517196,0.44424564575043435,18.921986589524728
212.0,30585027.247410543,1840145.1082656286,0.44407718489190656,18.902788622109895
213.0,34400327.472637236,2069988.754851626,0.44396284240956924,18.88977056720215
214.0,38696563.90839418,2320736.834726881,0.443902166297927,18.882866615466792
215.0,43513053.5829987,2592548.709085463,0.4438946927508087,18.88201643319848
216.0,48888410.36633285,2885807.448287486,0.44393994591847497,18.887164964998046
217.0,54861446.31359513,3201499.192552636,0.44403743792925293,18.89826218391198
218.0,61472979.27185859,3541532.3195213173,0.4441866685729913,18.915262929008996
219.0,68768390.51510623,3908944.1138728475,0.44438712525656643,18.938126675398003
220.0,76800763.77854297,4308026.456851001,0.4446382829266512,18.966817369139697
221.0,85633954.74508907,4744374.458953156,0.4449396037899015,19.001303247914468
222.0,95345962.62455449,5224849.837224517,0.4452905373969559,19.04155666323249
223.0,106031666.614998,5757502.970156502,0.4456905203313427,19.087553922091477
224.0,117805644.99438277,6351434.719309673,0.4461389762312376,19.139275130879508
225.0,130804075.22097756,7016631.906491012,0.44663531564760617,19.196704031693614
226.0,145186487.70233977,7763782.26104646,0.4471789359392519,19.25982787205465
227.0,161136739.34679234,8604073.209941072,0.44776922127891555,19.328637244580182
228.0,178863273.51077542,9548998.63209839,0.44840554248364567,19.40312595921333
229.0,198599319.65078387,10610160.219642432,0.4490872570701312,19.48329090547587
230.0,220601818.80991846,11799091.021515232,0.4498137091637029,19.56913191374024
231.0,245150601.30649492,13127084.734852772,0.4505842294795699,19.660651638932926
232.0,272546695.5184371,14605048.692329023,0.45139813538119017,19.757855419747063
233.0,303110154.8520145,16243375.004602108,0.4522547308013121,19.860751165282966
234.0,337178244.8177506,18051826.925962582,0.45315330637153023,19.969349228666555
235.0,375102346.0877967,20039498.074691955,0.45409313941610513,20.083662283633483
236.0,417245878.3810449,22214901.53187208,0.455073494026201,20.203705216181124
237.0,463981476.0062965,24586273.18423353,0.45609362118090346,20.32949499212472
238.0,515690306.26325494,27162036.039934095,0.45715275881427003,20.461050558583903
239.0,572761073.5946356,29951371.314190965,0.45825013196868175,20.598392713413574
240.0,635592374.78365,32964805.075127173,0.45938495294394555,20.74154400389497
241.0,704594464.3606246,36214794.55340124,0.46055642142068437,20.890528608944912
242.0,780193438.5358913,39716229.84848782,0.46176372470090893,21.04537222455636
243.0,862836723.4255822,43486865.530683935,0.4630060378592076,21.206101961474523
244.0,952997687.3628343,47547656.01612854,0.4642825239400109,21.372746231299985
245.0,1051181791.2619954,51922948.044085026,0.4655923342323179,21.545334636153132
246.0,1157933048.1231196,56640570.49881202,0.46693460848663565,21.723897865221875
247.0,1273838801.1197383,61731840.03210769,0.4683084750980264,21.908467591444538
248.0,1399533993.7154384,67231425.34523986,0.46971305139835584,22.09907636371395
