Time,J,A,S,tau
0.0,100.0,100.0,0.9984908085091764,9.00900900900901
1.0,77.39685700136076,51.065349442524,0.9985675540105737,9.523548699794045
2.0,55.00787078022209,32.927034137930306,0.9986437414134374,10.042744325049918
3.0,32.82663100004512,26.123487241326526,0.9987193796869673,10.566435328637311
4.0,10.846387394478041,23.493981175816252,0.9987944797110258,11.094476041161439
5.0,0.0,22.404217219356635,0.9988690530230838,11.626722467487168
6.0,0.0,21.88502205932905,0.9989431117521248,12.163032252160608
7.0,0.0,21.579830985318868,0.9990166685582833,12.703264643254863
8.0,0.0,21.357429058001035,0.9990897365778734,13.247280455061109
9.0,0.0,21.169493667933892,0.9991623293730258,13.79494202823365
10.0,0.0,20.997876424712615,0.9992344608867687,14.3461131928805
11.0,0.0,20.836892573886228,0.9993061454017781,14.900659228266495
12.0,0.0,20.683520345775,0.9993773975017428,15.458446816489815
13.0,0.0,20.53675910264798,0.9994482320379056,16.019344002028017
14.0,0.0,20.39624265563041,0.9995186640981935,16.583220147550357
15.0,0.0,20.261812262935152,0.9995887089793739,17.149945889051487
16.0,0.0,20.133378226885352,0.9996583821619794,17.719393090325077
17.0,0.0,20.01087438637915,0.9997276992877437,18.29143479664831
18.0,0.0,19.894243651414296,0.9997966761393479,18.865945187763003
19.0,0.0,19.783433384334785,0.999865328622286,19.442799530202233
20.0,0.0,19.67856392079127,0.9999336727491008,20.021874134115116
21.0,0.0,7.623476991345572,0.9999388842088882,20.183013760571605
22.0,0.0,2.8044904857697,0.9999405474231268,20.318089629794255
23.0,0.0,1.0317033675452492,0.9999421191032004,20.449924598701678
24.0,0.0,0.3795384024128061,0.9999436033605917,20.578387194928414
25.0,0.0,0.13962288331158032,0.9999450040411053,20.703345692051304
26.0,0.0,0.051363839388461625,0.999946324738602,20.824668261506865
27.0,0.0,0.018895498603251567,0.9999475688077557,20.94222313349692
28.0,0.0,0.0069511911823435125,0.999948739375883,21.055878767186677
29.0,0.0,0.0025571730000756403,0.9999498393538903,21.165504030480424
30.0,0.0,0.0009407213210621337,0.9999508714463802,21.270968389636565
31.0,0.0,0.00034606778087430687,0.9999518381609571,21.37214210895464
32.0,0.0,0.0001273095496003676,0.9999527418167645,21.46889646073117
33.0,0.0,4.683395068773405e-05,0.9999535845522891,21.561103945642444
34.0,0.0,1.722897363447358e-05,0.999954368332458,21.648638523663667
35.0,0.0,0.0,0.9999550949550582,21.731375855577905
36.0,0.0,0.0,0.9999557660564982,21.809193555067946
37.0,0.0,0.0,0.9999563831169347,21.881971451316804
38.0,0.0,0.0,0.9999569474647815,21.94959186195437
39.0,0.0,0.0,0.9999574602806137,22.011939876160227
40.0,0.0,0.0,0.9999579226004861,22.06890364744272
41.0,0.0,0.0,0.9999583353186596,22.120374695977773
42.0,0.0,0.0,0.9999586991899294,22.166248216692633
43.0,0.0,0.0,0.999959014831015,22.20642340514529
44.0,0.0,0.0,0.9999592827215243,22.240803771617262
45.0,0.0,0.0,0.9999595032088934,22.269297356964554
46.0,0.0,0.0,0.9999596764943637,22.291817651100345
47.0,0.0,0.0,0.9999598026442764,22.30828288343016
48.0,0.0,0.0,0.9999598815935382,22.318617377870922
49.0,0.0,0.0,0.9999599131289697,22.32275113264249
50.0,0.0,0.0,0.9999598969130631,22.320620536731266
51.0,0.0,0.0,0.9999598323981199,22.312170498795517
52.0,0.0,0.0,0.9999597190113902,22.297347964670085
53.0,0.0,0.0,0.9999595558967134,22.27611365373276
54.0,0.0,0.0,0.9999593420372449,22.248434492268796
55.0,0.0,0.0,0.9999590763811906,22.214279886400867
56.0,0.0,0.0,0.999958757590629,22.173634079437043
57.0,0.0,0.0,0.9999583841874972,22.126486760444013
58.0,0.0,0.0,0.9999579545166368,22.072837024450386
59.0,0.0,0.0,0.9999574666464542,22.012695374901558
60.0,0.0,0.0,0.9999569185871485,21.946075974919715
61.0,0.0,0.0,0.9999563079570031,21.873009804427184
62.0,0.0,0.0,0.9999556322146987,21.793533337455482
63.0,0.0,0.0,0.9999548886787094,21.707690533903946
64.0,0.0,0.0,0.999954074176862,21.61554279693302
65.0,0.0,0.0,0.999953185438145,21.517154575553374
66.0,0.0,0.0,0.9999522188712655,21.412602684736576
67.0,0.0,0.0,0.9999511704953364,21.3019753163006
68.0,0.0,0.0,0.9999500361122193,21.18536797735555
69.0,0.0,0.0,0.9999488109873564,21.062889994125054
70.0,0.0,0.0,0.999947490255433,20.934654871363996
71.0,0.0,0.0,0.9999460683650695,20.800791909706387
72.0,0.0,0.0,0.9999445394424705,20.66143613843463
73.0,0.0,0.0,0.9999428973381504,20.51672981522388
74.0,0.0,0.0,0.9999411349828421,20.366829929180177
75.0,0.0,0.0,0.999939245141434,20.211895809068576
76.0,0.0,0.0,0.99993721992848,20.05209731830627
77.0,0.0,0.0,0.9999350505375875,19.887613829800422
78.0,0.0,0.0,0.9999327279803952,19.718627090813833
79.0,0.0,0.0,0.9999302421881583,19.545329541612674
80.0,0.0,0.0,0.9999275825218523,19.36791735116353
81.0,0.0,0.0,0.9999247374551599,19.186593136924433
82.0,0.0,0.0,0.9999216945577833,19.001563915119622
83.0,0.0,0.0,0.9999184407061613,18.813040681072756
84.0,0.0,0.0,0.999914961131588,18.621239093637563
85.0,0.0,0.0,0.9999112408490022,18.42637577375018
86.0,0.0,0.0,0.9999072632125365,18.228671328037766
87.0,0.0,0.0,0.9999030099253855,18.028347196051826
88.0,0.0,0.0,0.9998984624121272,17.825625333544615
89.0,0.0,0.0,0.9998935998640677,17.620728782456194
90.0,0.0,0.0,0.9998884002314359,17.413879721505015
91.0,0.0,0.0,0.9998828400082814,17.205299757112833
92.0,0.0,0.0,0.9998768932465991,16.99520787536226
93.0,0.0,0.0,0.9998705334036929,16.783822552925287
94.0,0.0,0.0,0.9998637304878262,16.571357439078206
95.0,0.0,0.0,0.9998564531584888,16.358023928768535
96.0,0.0,0.0,0.9998486684291904,16.144030704950808
97.0,0.0,0.0,0.9998403391205811,15.929579075951162
98.0,0.0,0.0,0.9998314273755529,15.714869033673123
99.0,0.0,0.0,0.9998218917206136,15.500093644513251
100.0,0.0,0.0,0.9998116869512594,15.285439310955182
101.0,0.0,0.0,0.9998007670138965,15.071090478566974
102.0,0.0,0.0,0.9997890800521412,14.85722088325543
103.0,0.0,0.0,0.9997765718043777,14.644000341747951
104.0,0.0,0.0,0.9997631857559746,14.431593760152968
105.0,0.0,0.0,0.9997488578438337,14.220153937152304
106.0,0.0,0.0,0.9997335227360445,14.009831836938051
107.0,0.0,0.0,0.9997171113398796,13.80077115014145
108.0,0.0,0.0,0.999699545868485,13.593103606572715
109.0,0.0,0.0,0.999680747450382,13.386959580236214
110.0,0.0,0.0,0.9996606319303197,13.182460684156368
111.0,0.0,0.0,0.9996391055391203,12.97971762530231
112.0,0.0,0.0,0.9996160736508837,12.778840052998365
113.0,0.0,0.0,0.9995914347495992,12.579927867699556
114.0,0.0,0.0,0.9995650756843795,12.383070560792556
115.0,0.0,0.0,0.9995368824359087,12.188356997749267
116.0,0.0,0.0,0.9995067354026859,11.995868263894721
117.0,0.0,0.0,0.9994744995220262,11.80567351385903
118.0,0.0,0.0,0.9994400373620795,11.617840945730606
119.0,0.0,0.0,0.9994032090778723,11.432434341511744
120.0,0.0,0.0,0.9993638553816984,11.249504273720287
121.0,0.0,0.0,0.9993218102806504,11.069098928082392
122.0,0.0,0.0,0.9992769079311431,10.891266021217243
123.0,0.0,0.0,0.9992289715933396,10.716043202322595
124.0,0.0,0.0,0.9991778016240251,10.543459360692724
125.0,0.0,0.0,0.9991231960408947,10.373543202485674
126.0,0.0,0.0,0.9990649531107129,10.206322906383532
127.0,0.0,0.0,0.9990028584520888,10.041816391856807
128.0,0.0,0.0,0.9989366684103906,9.880034144362906
129.0,0.0,0.0,0.9988661360889742,9.72098674246981
130.0,0.0,0.0,0.9987910145911956,9.564684764745499
131.0,0.0,0.0,0.9987110572130077,9.41113551502373
132.0,0.0,0.0,0.9986259865760915,9.260333633059439
133.0,0.0,0.0,0.998535498295733,9.11227285790501
134.0,0.0,0.0,0.9984392875425822,8.966947039063646
135.0,0.0,0.0,0.9983370494872889,8.824350026038545
136.0,0.0,0.0,0.998228479300503,8.68447566833291
137.0,0.0,0.0,0.9981132633394331,8.547312964645315
138.0,0.0,0.0,0.997991047201162,8.412838107592842
139.0,0.0,0.0,0.9978614691353918,8.2810318177461
140.0,0.0,0.0,0.9977241676610362,8.151875120121582
141.0,0.0,0.0,0.9975787812970096,8.02534903973577
142.0,0.0,0.0,0.9974249443852115,7.901433094270934
143.0,0.0,0.0,0.997262261039999,7.780098157510557
144.0,0.0,0.0,0.9970903329202095,7.661317373906753
145.0,0.0,0.0,0.9969087631711364,7.545064607691004
146.0,0.0,0.0,0.9967171548277327,7.431313693562072
147.0,0.0,0.0,0.9965150972784695,7.320034715249097
148.0,0.0,0.0,0.9963021755707978,7.211196275730239
149.0,0.0,0.0,0.9960779806407807,7.104768490298611
150.0,0.0,0.0,0.9958420990891494,7.000720243516845
151.0,0.0,0.0,0.9955941196110849,6.899019080161398
152.0,0.0,0.0,0.9953336372151688,6.799633260560764
153.0,0.0,0.0,0.9950602481900005,6.7025298709933345
154.0,0.0,0.0,0.9947735608863648,6.607676248054949
155.0,0.0,0.0,0.9944731893572116,6.515039221009607
156.0,0.0,0.0,0.9941587624020657,6.4245857026147615
157.0,0.0,0.0,0.9938299218159901,6.336282396696898
158.0,0.0,0.0,0.9934863257736539,6.250096057316886
159.0,0.0,0.0,0.9931276538111521,6.165993548193559
160.0,0.0,0.0,0.9927536057697736,6.0839417567987715
161.0,0.0,0.0,0.9923639071416956,6.003907749794555
162.0,0.0,0.0,0.9919583109654935,5.925858792663561
163.0,0.0,0.0,0.9915366011020801,5.849762382955437
164.0,0.0,0.0,0.9910985948763887,5.775586293397216
165.0,0.0,0.0,0.9906441461898671,5.703298604083455
166.0,0.0,0.0,0.9901731485777262,5.63286773554955
167.0,0.0,0.0,0.9896855379946441,5.5642624788791775
168.0,0.0,0.0,0.9891812958677234,5.497452019735906
169.0,0.0,0.0,0.988660451929499,5.432405964458015
170.0,0.0,0.0,0.9881230870161963,5.369094361266444
171.0,0.0,0.0,0.9875693357771738,5.30748772031785
172.0,0.0,0.0,0.9869993892525293,5.247557031716263
173.0,0.0,0.0,0.9864134972773916,5.189273781204291
174.0,0.0,0.0,0.9858119707458941,5.132609964675788
175.0,0.0,1.1657879535464353e-05,0.985195183654839,5.077538100815521
176.0,0.0,1.60214521558348e-05,0.9845635749201558,5.0240312421262745
177.0,0.0,2.207285572015626e-05,0.9839176499694842,4.972062984929783
178.0,0.0,3.048179108564968e-05,0.983257982015399,4.921607477491575
179.0,0.0,4.2189016412230006e-05,0.9825852130751694,4.872639427437291
180.0,0.0,5.8517731502535366e-05,0.9819000546485948,4.825134107780925
181.0,0.0,8.133122009562934e-05,0.98120328806197,4.779067361963173
182.0,0.0,0.00011325619363254536,0.9804957644552551,4.734415607940007
183.0,0.0,0.00015799929431353188,0.9797784043896128,4.691155841328064
184.0,0.0,0.00022079599756397612,0.9790521970705148,4.649265637785394
185.0,0.0,0.00030904767661375917,0.9783181991707942,4.608723154644618
186.0,0.0,0.00043322580167522645,0.9775775332381083,4.569507131809065
187.0,0.0,0.0006081558976411839,0.9768313856882797,4.531596892045245
188.0,0.0,0.0008548417445477969,0.9760810043797359,4.494972340716306
189.0,0.0,0.001203056424900201,0.9753276957624967,4.45961396494245
190.0,0.0,0.0016950266357253598,0.9745728216177192,4.425502832370563
191.0,0.0,0.0023906668933201714,0.9738177953770631,4.392620589418517
192.0,0.0,0.003375024742292766,0.9730640780511002,4.360949459241397
193.0,0.0,0.004768861035744345,0.9723131737616774,4.330472239261979
194.0,0.0,0.0067436986375147825,0.9715666249108136,4.3011722984701715
195.0,0.0,0.00954321618214137,0.9708260069948382,4.273033574412598
196.0,0.0,0.013513667128249618,0.9700929230941551,4.246040569954626
197.0,0.0,0.01914713813254423,0.9693689980625223,4.220178349866118
198.0,0.0,0.02714302889832016,0.9686558724449242,4.195432537173169
199.0,0.0,0.03849549342761975,0.9679551961585551,4.171789309443472
200.0,0.0,0.05461766590461772,0.9672686219690948,4.149235394852649
201.0,0.0,0.07751831789464252,0.9665977988010362,4.1277580682443125
202.0,0.0,0.11005277992821008,0.965944364920754,4.107345147027263
203.0,0.0,0.15627959987630752,0.9653099410317652,4.087984987072021
204.0,0.0,0.22196711682737202,0.9646961233258128,4.069666478533104
205.0,0.0,0.3153130159590888,0.9641044765316302,4.05237904164328
206.0,0.0,0.4479663482504076,0.9635365270035079,4.0361126225280985
207.0,0.0,0.6364781987971367,0.9629937558985746,4.020857688961791
208.0,0.0,0.904361982865732,0.9624775924762574,4.006605226216071
209.0,0.0,1.285016078736001,0.9619894075783919,3.993346732843507
210.0,0.0,1.825873427682622,0.9615305073125238,3.981074216582085
211.0,0.0,2.594285715036568,0.9611021270017921,3.9697801902271155
212.0,0.0,3.685873069152573,0.960705425418997,3.959457667605819
213.0,0.0,5.236362081616722,0.9603414793612152,3.9501001595817953
214.0,0.0,7.438371340065556,0.9600112785884425,3.941701670116905
215.0,0.0,10.565207767434082,0.9597157211628107,3.934256692431184
216.0,0.0,15.00458107497279,0.9594556092260093,3.9277602051744
217.0,0.0,21.306393141456958,0.9592316452246803,3.922207668744436
218.0,0.0,30.250397343318696,0.9590444286359238,3.917595021594934
219.0,0.0,42.942073765225096,0.9588944531784788,3.9139186766976706
220.0,0.0,60.94830683916864,0.9587821045659665,3.9111755180124064
221.0,66.43959261085121,86.48944206421176,0.9587076587892264,3.9093628970780716
222.0,185.3799365786148,122.71108259476556,0.958671280942837,3.9084786296531555
223.0,353.24001362236015,174.06858837583565,0.9586730246076646,3.908520992424262
224.0,590.5809410353526,246.8707724815725,0.9587128317947298,3.9094887197874613
225.0,926.609777876511,350.04855196671645,0.958790533441674,3.9113810006974474
226.0,1402.8152398972304,496.24108375359236,0.958905850463922,3.9141974755676685
227.0,2078.1305409197375,703.3303553039998,0.9590583953442879,3.917938233229612
228.0,3036.265126303532,996.6077363610787,0.9592476742602482,3.9226038079367815
229.0,4396.111250465102,1411.8322513521375,0.9594730897208524,3.9281951764121894
230.0,6326.515501393323,1999.5449414793673,0.9597339437026785,3.934713754937598
231.0,9067.23056940861,2831.151645209953,0.9600294412609909,3.9421613964519704
232.0,12958.635652286555,4007.4966518798246,0.9603586945853816,3.9505403876974206
233.0,18483.857302025892,5670.93494606125,0.9607207274819878,3.9598534463438813
234.0,26328.45441117646,8022.32741909124,0.9611144802384148,3.9701037181436454
235.0,37464.929123313865,11344.939974357028,0.9615388148506555,3.981294774057235
236.0,53272.30622447892,16038.034705545671,0.9619925205668828,3.9934306073667316
237.0,75705.24818661144,22664.040619534233,0.9624743197161968,4.006515630764113
238.0,107532.94863023864,32014.73837679916,0.9629828737811855,4.02055467338392
239.0,152676.4032326895,45204.02555689063,0.9635167896766267,4.035552977789962
240.0,216684.00953159845,63797.82051794352,0.9640746261904138,4.051516196891207
241.0,307401.5793624377,89995.77189163481,0.9646549005468755,4.068450390778458
242.0,435915.03371484345,126885.13799119226,0.965256095050971,4.086362023460434
243.0,617875.116459999,178795.04306784802,0.9658766637715055,4.105257959489144
244.0,875356.333915097,251790.15596852696,0.966515039221837,4.125145460460153
245.0,1239461.6870480096,354357.68496948224,0.9671696389979747,4.146032181371003
246.0,1753966.5765598698,498361.98661328136,0.9678388723348119,4.167926166822368
247.0,2480407.246052808,700368.8414278252,0.9685211465427132,4.1908358470386
248.0,3505173.4938951493,983479.4168541536,0.9692148732879198,4.214770033695814
249.0,4949375.315468925,1379865.54460618,0.9699184746825715,4.2397379155390915
250.0,6982539.545095431,1934267.7897385831,0.9706303891523371,4.265749053770006
251.0,9841580.112622913,2708812.4124127356,0.9713490770522143,4.292813377185614
252.0,13857007.830476861,3789629.861809547,0.9720730260029206,4.320941177043928
253.0,19489051.52219263,5295928.319921079,0.9728007559237887,4.350143101641806
254.0,27377303.40391881,7392403.6101840595,0.9735308237409329,4.380430150583595
255.0,38408759.81716549,10306170.113795688,0.9742618277523815,4.411813668720025
256.0,53810789.416220315,14349800.109910313,0.9749924116351765,4.444305339735609
257.0,75277753.42920221,19952587.00278478,0.9757212680813518,4.477917179358707
258.0,105142887.25685026,27702847.49036398,0.9764471420546342,4.512661528177948
259.0,146610806.10632703,38404986.33388861,0.97716883366158,4.548551044039821
260.0,204070829.93215817,53156244.41444294,0.9778852006362143,4.585598694012543
261.0,283517624.3392131,73449564.47001995,0.9785951604352812,4.62381774588052
262.0,393113588.37539834,101310994.77084889,0.9792976919485614,4.6632217591528455
263.0,543937548.0399132,139482580.39766696,0.9799918368309768,4.703824575567006
264.0,750977059.891545,191664886.8309667,0.9806767004638065,4.745640309060559
265.0,1034437457.6260493,262837365.1727158,0.9813514525560225,4.788683335189098
266.0,1421460371.00396,359679843.1459738,0.9820153273987066,4.832968279968002
267.0,1948368389.4609423,491124749.1244638,0.9826676237875935,4.878510008116119
268.0,2663581540.07772,669077451.6830503,0.9833077046292387,4.925323610672258
269.0,3631385384.872533,909351876.9113039,0.9839349962525807,4.973424391984476
270.0,4936771097.529511,1232879582.409298,0.9845489874385546,5.022827856015979
271.0,6691618960.787309,1667265670.8574903,0.9851492281971903,5.073549691975724
272.0,9042539720.129646,2248779496.9669433,0.9857353283034789,5.12560575924041
273.0,12180768477.376366,3024891121.545579,0.9863069556260858,5.179012071557236
274.0,16354544268.51521,4057481823.627191,0.9868638342550202,5.233784780482354
275.0,21884512162.797264,5426891759.226755,0.9874057424711263,5.289940158095061
276.0,29182724510.13328,7236986856.202821,0.9879325105586638,5.347494578895555
277.0,38775914405.89611,9621469174.327404,0.9884440184965881,5.406464500917539
278.0,51333770383.501495,12751687394.585777,0.9889401935465975,5.466866446030445
279.0,67702996597.275894,16846244450.225607,0.98942100775911,5.528716979422091
280.0,88947968163.46892,22182736916.222702,0.9898864754154744,5.592032688244768
281.0,116398815575.1563,29112005709.42181,0.9903366504279303,5.6568301594177175
282.0,151707749995.11954,38075315831.381645,0.9907716237146598,5.7231259565493495
283.0,196914321534.4358,49624919697.72651,0.9911915205681506,5.790936596018418
284.0,254520217482.1241,64448487217.88191,0.9915964980317247,5.8602785221600575
285.0,327573888107.82355,83397911776.34705,0.9919867423018084,5.9311680816484245
286.0,419765248147.70557,107523014068.20598,0.9923624661668026,6.003621496906389
287.0,535529927705.62103,138110615238.42426,0.992723906493684,6.0776548386772395
288.0,680162345427.679,176729474419.27484,0.9930713217783389,6.153283997748044
289.0,859936356432.0051,225281588892.22604,0.9934049897707316,6.230524655806315
290.0,1082231020268.6082,286059930643.7766,0.993725205169945,6.309392255402971
291.0,1355659369829.3918,361813219079.15063,0.9940322774170469,6.389901969024399
292.0,1690195424312.6653,455817330085.0318,0.9943265285736498,6.472068667465395
293.0,2097296124329.1575,571953562059.9282,0.9946082913035198,6.555906887239018
294.0,2590012121320.102,714793148504.8,0.9948779069544437,6.641430797208748
295.0,3183081346351.5205,889687354528.9645,0.9951357237455232,6.728654164453807
296.0,3892998444079.377,1102862217281.413,0.9953820950630626,6.817590319451964
297.0,4738053439437.572,1361516513169.5457,0.9956173778626505,6.908252120318263
298.0,5738331257246.096,1673921342138.1743,0.9958419311811052,7.000651916430231
299.0,6915664284282.971,2049519041803.5073,0.9960561147570922,7.094801511544862
300.0,8293532238696.689,2499019090946.168,0.9962602877564752,7.190712125965732
301.0,9896901331913.27,3034488471175.2856,0.9964548076040238,7.288394358265478
302.0,11751998755573.191,3669432628942.83,0.9966400289161602,7.387858146324422
303.0,13886017800655.5,4418863769903.41,0.9968163025362506,7.4891127282083785
304.0,16326753515426.686,5299354901660.765,0.9969839746602224,7.5921666016861264
305.0,19102167978844.445,6329071674747.636,0.9971433860644122,7.697027484783207
306.0,22239892909842.855,7527783558702.019,0.9972948714092461,7.803702273776048
307.0,25766667597716.36,8916847424908.52,0.9974387586400206,7.912197003299608
308.0,29707734632075.152,10519160734258.746,0.9975753684608922,8.022516804233577
309.0,34086191782636.76,12359084226651.008,0.9977050138856408,8.13466586243098
310.0,38922328272084.305,14462328444076.547,0.9978279998611788,8.248647376456027
311.0,44232949470745.11,16855806179014.879,0.9979446229561388,8.364463516243564
312.0,50030724601789.75,19567447205609.703,0.99805517111427,8.482115380418572
313.0,56323559760317.055,22625978711936.438,0.998159923460162,8.601602954614854
