Time,J,A,S,tau
0.0,100.0,100.0,0.48808455282973395,34.299122144035884
1.0,99.42138957917493,89.3368142138251,0.485339765490122,35.289728864557276
2.0,98.84912774334884,79.81683581348301,0.4826364183031227,36.280788018146005
3.0,98.28604375362389,71.31733298321585,0.4799729795814675,37.27223405902497
4.0,97.73174231197135,63.72804550057523,0.4773479082991648,38.2640368061414
5.0,97.18584178921529,56.950747875679816,0.4747596977357874,39.25616835963597
6.0,96.64797356472293,50.89792755155841,0.4722068753294075,40.248602893348604
7.0,96.11778138989398,45.49158344474511,0.4696880023612375,41.241316464621995
8.0,95.59492078286429,40.662187881940646,0.4672016735177218,42.23428684117593
9.0,95.07905845416892,36.34775730375135,0.4647465163553911,43.22749334351087
10.0,94.56987175919609,32.49302537333309,0.46232119067971866,44.22091670091114
11.0,94.06704817859084,29.048713127998916,0.4599243878621502,45.21453891999035
12.0,93.5702848181125,25.97086176955924,0.457554830086032,46.20834316368112
13.0,93.07928793419619,23.220257439357834,0.45521126955707264,47.20231364050587
14.0,92.59377247085128,20.761913662576493,0.45289248764378226,48.196435501737966
15.0,92.11346163591858,18.564621933705062,0.4505972940566298,49.190694748560055
16.0,91.63808648892488,16.600523651561588,0.44832452598587963,50.18507814532213
17.0,91.16738553139908,14.84474831420357,0.4460730471708404,51.179573137833955
18.0,90.7011043358195,13.275103099420836,0.4438417470392931,52.17416777935502
19.0,90.23899519170878,11.871774910025508,0.44162953985336206,53.168850661330666
20.0,89.78081674566481,10.617066815172162,0.4394353637792943,54.1636108468907
21.0,89.32633367262441,9.49517893243534,0.4372581800261025,55.158437809614895
22.0,88.87531636955767,8.49200468947803,0.43509697203167785,56.153321375899175
23.0,88.42754064153482,7.594938508747898,0.4329507445831436,57.14825166884776
24.0,87.98278740988839,6.792720877524713,0.43081852299051643,58.14321905532377
25.0,87.54084244382256,6.075297368933511,0.4286993523287132,59.1382140952763
26.0,87.10149608895298,5.433680793865865,0.4265922966442094,60.13322749188849
27.0,86.66454300795246,4.859840205524455,0.42449643818945393,61.12825004317365
28.0,86.22978194359192,4.346602368807203,0.42241087673523225,62.1232725945062
29.0,85.79701548496729,3.8875545833566503,0.4203347288842315,63.118285991195876
30.0,85.36604983776596,3.476964201696701,0.41826712738912997,64.11328103131088
31.0,84.93669461446352,3.109709106504088,0.41620722055014375,65.10824841809847
32.0,84.50876263306287,2.781210246890868,0.414154171647427,66.10317871129807
33.0,84.08206971518692,2.4873726762203177,0.41210715836508466,67.09806227791206
34.0,83.65643450077908,2.2245361522144145,0.4100653722907371,68.09288924125475
35.0,83.23167827438816,1.989428791947711,0.4080280184749721,69.08764942729836
36.0,82.80762479008567,1.779123648081428,0.40599431498511,70.08233230976242
37.0,82.38410010899007,1.5910036199774962,0.4039634925260417,71.07692695221263
38.0,81.96093244916113,1.4227292889051995,0.4019347941367533,72.07142194555
39.0,81.53795203657576,1.2722074837318402,0.39990747490003997,73.06580534298864
40.0,81.11499096437076,1.1375660585975782,0.39788080170666357,74.06006459102403
41.0,80.69188306422411,1.0171313422453538,0.3958540531072106,75.05418645357791
42.0,80.26846378212272,0.9094057881193132,0.39382651920477185,76.04815693134398
43.0,79.84457005914058,0.8130496213402565,0.39179750159153637,77.04196117637916
44.0,79.42004022351831,0.7268648787547586,0.38976631338307666,78.03558339734428
45.0,78.99471388992434,0.6497797768481716,0.38773227932551824,79.02900675627373
46.0,78.56843186231144,0.5808352186110557,0.3856947359429044,80.02221325986625
47.0,78.14103604691421,0.519173406545223,0.3836530317912783,81.01518363858295
48.0,77.71236937406427,0.4640270605263952,0.3816065278194287,82.00789721211332
49.0,77.28227572427676,0.41470941937536376,0.37955459777772177,83.00033174792298
50.0,76.85059986301941,0.37060612533856696,0.37749662874154066,83.99246330445641
51.0,76.4171873850424,0.3311677337986478,0.37543202177495016,84.98426605448071
52.0,75.98188466509556,0.2959024148122591,0.37336019266812426,85.9757120976118
53.0,75.54453881588725,0.26437011222187773,0.3712805727930746,86.96677125471876
54.0,75.10499765602279,0.23617728550020062,0.3691926101355655,87.95741083501544
55.0,74.66310968679201,0.21097168373445668,0.36709577044549047,88.94759538462729
56.0,74.21872407544507,0.18843808914354285,0.36498953850644006,89.93728641475965
57.0,73.77169064868214,0.1682945913111106,0.36287341961988995,90.92644209377202
58.0,73.321859897223,0.15028890983977664,0.36074694127309154,91.9150169081047
59.0,72.86908298716764,0.13419525985405825,0.35860965492774194,92.90296130041094
60.0,72.41321178165458,0.11981168906205536,0.35646113806249813,93.89022126154404
61.0,71.9540988752474,0.1069575317682942,0.35430099648407104,94.8767378732952
62.0,71.49159763684915,0.09547107894522566,0.3521288667701366,95.86244682396668
63.0,71.02556230517645,0.08520763016575643,0.34994441900283163,96.84727786647943
64.0,70.0732449362938,0.7260644414541743,0.34774735989512723,97.83115419864711
65.0,69.37383545608226,1.938641522720876,0.3455374359501966,98.81399183510335
66.0,69.56081979860379,3.206241028345571,0.3433144372031805,99.79569885475146
67.0,70.69795787618169,4.533728056954207,0.3410782011465911,100.77617460738944
68.0,72.85552738182385,5.9263798037547915,0.33882861707830575,101.75530882679712
69.0,76.11097046061381,7.389922270797799,0.3365656307591804,102.73298066905448
70.0,80.54958971439333,8.93057034744791,0.3342892494645821,103.70905765486623
71.0,86.26538358970313,10.555072226724224,0.33199954768640705,104.68339446699595
72.0,93.36186952383811,12.270753740496511,0.3296966727638623,105.65583173094385
73.0,101.95310192270938,14.085572241835767,0.32738085174650394,106.62619452556072
74.0,112.16471981614703,16.008166798340245,0.32505239789144436,107.5942909292456
75.0,124.13512239865653,18.047918985123054,0.3227117183529599,108.55991028555727
76.0,138.01682824660563,20.215013673147087,0.32035932209670065,109.52282137760012
77.0,153.97783593249005,22.52050335519918,0.31799582807959437,110.48277049202586
78.0,172.2033130405971,24.976382073887855,0.315621974796482,111.4394791411141
79.0,192.89726513386364,27.595653461053924,0.3132386290930165,112.39264186685597
80.0,216.28449637789174,30.392414443783967,0.3108467968576911,113.34192357188296
81.0,242.61275357669223,33.38193189078928,0.30844763311675005,114.2869568873014
82.0,272.1549381151636,36.580728521762786,0.30604245301553357,115.22733925600924
83.0,305.21179666846535,40.006672467692745,0.3036327436341539,116.1626297180643
84.0,342.11451142052806,43.679059987793146,0.3012201748029625,117.09234580588732
85.0,383.22784091244324,47.61871455031573,0.29880661208436277,118.0159598156599
86.0,428.95334321760635,51.84806754474081,0.29639412776499,118.93289538920372
87.0,479.73283216711496,56.3912534257642,0.29398501339652283,119.84252359163268
88.0,536.0523963222693,61.27419253068724,0.29158179146805946,120.74415900692992
89.0,598.4462108403305,66.5246670632906,0.28918722592841833,121.63705595708608
90.0,667.5012259821823,72.17240154573705,0.2868043338501039,122.5204042245096
91.0,743.8616273991046,78.24911119179137,0.28443639330529685,123.39332553340911
92.0,828.2338241662848,84.78856011568556,0.28208695254508404,124.25486948885558
93.0,921.391885182287,91.82657985244295,0.2797598352444926,125.10401028733999
94.0,1024.1824635742255,99.4010830302389,0.27745914455006004,125.93964356439135
95.0,1137.5311125814783,107.55203385558032,0.2751892636702482,126.76058387119754
96.0,1262.4474259841827,116.32140324505735,0.2729548536236274,127.56556276141599
97.0,1400.0315077710347,125.75306705024121,0.27076084602301975,128.35322797394682
98.0,1551.479307627286,135.89268527162997,0.2686124327615824,129.1221433063948
99.0,1718.088875919175,146.78750541641074,0.2665150484263016,129.87079036594582
100.0,1901.265554671164,158.48614278661458,0.2644743493484787,130.59757108408778
101.0,2102.527461713037,171.03827286741478,0.2624961836850123,131.30081282803104
102.0,2323.510065626991,184.49429088918228,0.2605865573564096,131.97877447895843
103.0,2565.9702719609822,198.9048838361936,0.2587515905565304,132.62965557775175
104.0,2831.7895971210833,214.320557107566,0.2569974689491068,133.25160670706674
105.0,3122.9755530930042,230.79109078303418,0.25533038646368317,133.84274302660108
106.0,3441.6636845012563,248.3649316401002,0.25375648197921863,134.4011594637176
107.0,3790.115417250771,267.08854175979934,0.25228176898714366,134.92494839075619
108.0,4170.715686092627,287.00571383629233,0.25091206194344995,135.41221902242575
109.0,4585.969280772434,308.1568204961789,0.24965289528200516,135.86111881065443
110.0,5038.491945907595,330.5780874711644,0.24850944210155643,136.26985583416888
111.0,5531.002135071228,354.30086133655914,0.24748643312895344,136.63672159533021
112.0,6066.309726491152,379.35087780942405,0.24658807442081243,136.96011433916493
113.0,6647.300302849952,405.74756725004397,0.24581796696954852,137.23856206710167
114.0,7276.917476742778,433.5034645544469,0.2451790366026176,137.47074313877684
115.0,7958.143657420937,462.6236659962958,0.24467346854217736,137.65550542815492
116.0,8693.977665672628,493.1053950979487,0.2443026521976194,137.79188253590848
117.0,9487.408181525849,524.9376524998886,0.24406713323824714,137.87910742491843
118.0,10341.38742272044,558.1010323714073,0.2439665837184628,137.91662105027217
119.0,11258.801574042523,592.5676371810839,0.24399978154054358,137.9040776611709
120.0,12242.438745206251,628.3011410231096,0.24416460477234964,137.84134538409634
121.0,13294.958290924618,665.2569658492719,0.2444580392567197,137.72850285856063
122.0,14418.856234439243,703.382583742067,0.24487619795000373,137.56583174062698
123.0,15616.433968627573,742.6179394717757,0.24541435525172137,137.3538052186457
124.0,16889.762265945275,782.8958899348535,0.24606698157078222,137.09307524763716
125.0,18240.648275189265,824.1427812984515,0.24682779473780508,136.78445563887237
126.0,19670.605924127947,866.2791712476976,0.24768982805013168,136.42890121650643
127.0,21180.83448846556,909.220491006073,0.248645494191171,136.02748828185398
128.0,22772.167316965617,952.8774682268032,0.24968661877397413,135.5814000308548
129.0,24445.063770425626,997.1571664914671,0.2508045498121418,135.09189857609772
130.0,26199.59400683894,1041.9635370663848,0.25199021417148637,134.5603084828157
131.0,28035.395186703983,1087.1979165304463,0.25323416369381835,133.98800036476587
132.0,29951.65931858653,1132.7598521882821,0.2545266638241442,133.37637010955018
133.0,31958.50277444387,1164.1299247816899,0.3228649430336302,87.53625350154864
134.0,33986.97411038808,1503.4426637669906,0.442831999872033,42.60307600206291
135.0,36994.18059058418,2058.1026979672406,0.4769645996132621,35.07401736338399
136.0,41431.48349590592,2697.603140229171,0.49681740278741215,31.0492335294761
137.0,47501.796522405464,3401.8083186399854,0.5100241879965086,28.381932315409347
138.0,55359.105547233354,4162.407262605096,0.5192589851436643,26.431844218994282
139.0,65133.560042793244,4974.6817586624475,0.5258091110299894,24.922580969533083
140.0,76939.27883395714,5835.410079127114,0.530406207127605,23.70997120804025
141.0,90877.38889634951,6742.074620636234,0.5335117041324469,22.7094506471732
142.0,107037.28429365755,7692.488842957798,0.5354384480105417,21.867244554175855
143.0,125497.01448934624,8684.598411190784,0.5364101063607525,21.147089615715466
144.0,146323.19460808762,9716.366031504638,0.536593261744424,20.5234106564662
145.0,169570.64766589698,10785.702327715562,0.536116125793225,19.97751533922983
146.0,195282.03678305057,11890.415844244986,0.5350799123753174,19.49536554719017
147.0,223487.02189313,13028.195404630089,0.5335663862929467,19.066155797492893
148.0,254202.38956425362,14196.577773061244,0.5316427951195398,18.68140963470419
149.0,287430.85891328624,15392.952636068492,0.5293652758113715,18.33437604199867
150.0,323160.78327583754,16614.557845405416,0.5267813548454194,18.019598377081785
151.0,361367.8603370988,17853.687454648014,0.5239317538540941,17.732611353792745
152.0,402004.6999868667,19540.93757809453,0.5208516913467833,17.46972596978086
153.0,446921.6817907026,22288.970881010042,0.5175719034069405,17.227868099299826
154.0,499441.41219321796,26238.29219148336,0.5141194259320985,17.00445537367555
155.0,563178.8540962081,31452.259529387622,0.5105182048500263,16.797303684634493
156.0,641829.5235026067,37966.095667123984,0.5067895797487326,16.60455466823353
157.0,739073.0800719263,45798.444595664805,0.5029526716438903,16.424618735708982
158.0,858509.8545273539,54955.97232462023,0.4990246980724046,16.25612970377068
159.0,1003610.2488176451,65435.58434157837,0.4950212301761833,16.097908492221876
160.0,1177674.484866829,77225.59841513535,0.4909564063035754,15.948933547755612
161.0,1383794.3642626216,90306.43715872693,0.48684310864638486,15.808316848890424
162.0,1624821.527224677,104651.0533798158,0.48269311278164,15.675283988656515
163.0,1903338.5103346165,120225.24453220716,0.4785172133784831,15.549157739245489
164.0,2221633.1665298464,136987.9173341342,0.4743253321487551,15.429344247515903
165.0,2581673.638508167,154891.33930881738,0.4701266067986521,15.315321758553536
166.0,2985091.9318192927,173880.90635120386,0.46592947437002113,15.206630492961606
167.0,3433113.1124245124,194034.04821546358,0.46174173532932455,15.102864788562552
168.0,3927748.801706931,216600.09222279393,0.45757061590062464,15.003665731357787
169.0,4476135.794588399,243555.8785623624,0.4534228184259306,14.908715370171034
170.0,5092046.249073408,276921.0446588202,0.44930456724637163,14.817731496380736
171.0,5795607.097177654,318639.6298645482,0.44522164876247183,14.730463205412597
172.0,6612671.6515457155,370533.4817757025,0.4411794468908405,14.646687061446855
173.0,7574036.224393641,434276.4943619045,0.43718297446364524,14.566203783132806
174.0,8714597.236258268,511378.4295414404,0.4332369014027504,14.488835351101137
175.0,10072447.757817265,603174.4095768086,0.4293455797240362,14.414422508280294
176.0,11687999.623153193,710817.8256160168,0.42551306609851425,14.342822568433885
177.0,13603074.304874197,835276.3583833051,0.4217431422044496,14.273907506007358
178.0,15860059.161960306,977329.943164284,0.4180393331679683,14.207562279474706
179.0,18501067.70330581,1137570.8641173134,0.4144049241654053,14.14368337126715
180.0,21567170.135983218,1316405.5346559118,0.41084297576646,14.082177494432091
181.0,25097652.478984352,1514088.9014701655,0.40735633787040526,14.02296046134472
182.0,29129777.72195195,1731741.7785878228,0.4039476625810236,13.965956184862307
183.0,33704040.774954066,1973321.0234587728,0.4006194159573858,13.911095802616442
184.0,38875169.71865762,2245940.9416273856,0.39737388902304666,13.858316896892763
185.0,44722661.71673825,2559510.4778500125,0.39421320791163555,13.80756281119268
186.0,51359056.0896379,2926261.012775063,0.3911393433754458,13.758782043589266
187.0,58935975.285328366,3360249.360811503,0.38815411966025387,13.711927708884229
188.0,67647790.4275773,3876871.693031038,0.385259222724236,13.666957065802633
189.0,77733079.906419,4492399.567940714,0.38245620813214604,13.62383109258846
190.0,89474335.52698152,5223548.214786271,0.37974650839709945,13.582514113079792
191.0,103195878.9697636,6087083.093007936,0.37713143984506,13.542973466330272
192.0,119260358.97675085,7099466.144294184,0.3746122092466556,13.505179209294953
193.0,138064347.61131528,8276541.8739886815,0.3721899200154351,13.469103854548083
194.0,160032858.22012436,9633265.666396977,0.36986557802314646,13.43472213807827
195.0,185613126.436015,11183616.809538713,0.36764009722184227,13.40201081003023
196.0,215269869.69124788,12942354.923377441,0.3655143049297891,13.370948449635863
197.0,249490049.94216433,14929428.36563139,0.36348894678202504,13.341515301059856
198.0,288805299.4591705,17174396.12000723,0.36156469151031423,13.313693125725745
199.0,333828307.6638968,19719806.6628332,0.3597421354087504,13.287465071574648
200.0,385298351.69875705,22623468.143196117,0.35802180656663485,13.262815556283453
201.0,444131040.066083,25959702.171838254,0.3564041688581355,13.23973016320213
202.0,511468135.5251991,29819712.432218574,0.35488962569449434,13.218195548626912
203.0,588724160.1184647,34311213.44536678,0.35347852354261367,13.198199359210854
204.0,677627311.4628336,39557460.70792841,0.35217115521302633,13.179730158454786
205.0,780252967.0113251,45695813.55909918,0.3509677629196186,13.162777361347004
206.0,899048709.8003563,52875953.865048215,0.34986854111298127,13.147331176331123
207.0,1036850385.9246209,61257869.37546777,0.34887363908889785,13.13338255388026
208.0,1196889162.4446943,71009714.58257096,0.34798316337323354,13.12092314104356
209.0,1382790188.297138,82306490.87190568,0.34719717988433246,13.10994524140968
210.0,1598569518.3636978,95333011.68826798,0.3465157158739567,13.100441780002019
211.0,1848649064.3350635,110293128.44553553,0.3459387616478025,13.092406272683842
212.0,2137911250.6846979,127423847.38353471,0.3454662720666783,13.085832799708317
213.0,2471806894.134391,147012341.9370405,0.34509816782952973,13.080715983100317
214.0,2856521279.6273017,169414109.3023162,0.3448343365396382,13.077050967603912
215.0,3299196663.06746,195070873.43031415,0.3446746335554764,13.074833404972722
216.0,3808204617.211279,224527184.8799467,0.34461888262792884,13.074059441420253
217.0,4393458523.976486,258444982.40788466,0.34466687632565457,13.07472570808453
218.0,5066754860.679153,297615646.3904468,0.344818376250714,13.076829314396143
219.0,5842131403.686633,342969293.68098617,0.3450731130468229,13.080367844272192
220.0,6736230750.517094,395581241.75998294,0.34543078620259143,13.085339355090241
221.0,7768658501.505148,456675705.3995708,0.34589106365243755,13.091742379427192
222.0,8962326752.674225,527627166.60663164,0.34645358117799474,13.099575929578233
223.0,10343777409.228302,609962394.9206744,0.3471179416129727,13.10883950490099
224.0,11943495810.94683,705370042.0486156,0.34788371385454114,13.119533102060043
225.0,13796251647.740675,815724619.0670345,0.3487504316843871,13.131657228277646
226.0,15941524097.953983,943128885.3796622,0.3497175924026303,13.145212917727724
227.0,18424075662.239567,1089976023.2190297,0.3507846552777746,13.160201751242838
228.0,21294736707.714867,1259030957.5792577,0.35195103981581255,13.176625879537728
229.0,24611453604.7986,1453528790.1511848,0.35321612385148543,13.194488050188967
230.0,28440640374.26372,1677287450.2371297,0.35457924146451897,13.213791638648305
231.0,32858859170.963524,1934831217.9955926,0.35603968072341036,13.234540683607914
232.0,37954840307.92962,2231521640.409675,0.3575966812590152,13.256739927079506
233.0,43831838933.14949,2573692452.0421176,0.3592494316697816,13.280394859596234
234.0,50610313573.33232,2968785359.3285766,0.36099706675998616,13.305511770997347
235.0,58430901880.02837,3425483909.5656657,0.36283866461174447,13.332097807310722
236.0,67457661362.14306,3953843796.629624,0.36477324349088563,13.360161034308398
237.0,77881542217.15758,4565422509.312479,0.36679975858599617,13.389710508375662
238.0,89924079229.05103,5273419009.610979,0.3689170985790447,13.420756355405304
239.0,103841335781.90733,6092840398.51134,0.37112408204499553,13.453309858506191
240.0,119928194367.31949,7040715304.939522,0.3734194536767006,13.48738355539987
241.0,138523150626.54782,8136373579.522219,0.3758018803301234,13.522991346470835
242.0,160013822053.93176,9401809723.764446,0.37826994688360566,13.560148614536327
243.0,184843422263.34973,10862144080.697254,0.380822151903422,13.598872357510261
244.0,213518474553.3314,12546191776.867504,0.3834569031063088,13.639181335254024
245.0,246618044074.70178,14487145164.386902,0.38617251260799085,13.681096232034784
246.0,284804757323.5988,16723371369.12303,0.3889671919449856,13.724639836149905
247.0,328837852854.4515,19299322632.6252,0.39183904685516385,13.769837238424863
248.0,379588470121.4062,22266553590.12239,0.39478607180069836,13.816716051451419
