Time,J,A,S,tau
0.0,100.0,100.0,0.7106610159482583,37.03703703703704
1.0,71.0629352372101,54.94710851442517,0.7115737589861985,37.65486728777538
2.0,42.4311273859985,38.220933705164754,0.7124860931198324,38.276387018352885
3.0,14.092733207398211,31.923150227272085,0.7133979617042067,38.9014358978731
4.0,0.0,29.468097663838563,0.7143093364147961,39.52987121423817
5.0,0.0,28.43294574680133,0.7152201984409376,40.16155231425627
6.0,0.0,27.92636471857777,0.7161305380159054,40.79634053031836
7.0,0.0,27.62036407380187,0.7170403539643838,41.434099107056426
8.0,0.0,27.394187254137464,0.717949653258244,42.07469312608425
9.0,0.0,27.203144600536792,0.718858450601635,42.717989433781284
10.0,0.0,27.031466252299918,0.7197667680231142,43.363856567300125
11.0,0.0,26.87292930780257,0.7206746344816122,44.01216468041056
12.0,0.0,26.724985895102378,0.7215820854693693,44.662785465364195
13.0,0.0,26.586727451672324,0.7224891626512199,45.31559208027003
14.0,0.0,26.457805222480882,0.7233959135059757,45.97045907410731
15.0,0.0,26.338061017528222,0.7243023909796014,46.6272623118087
16.0,0.0,26.227403881848307,0.7252086531490082,47.28587889930952
17.0,0.0,26.125768913870257,0.7261147628958239,47.94618710858124
18.0,0.0,26.033103526475106,0.7270207875894875,48.60806630266454
19.0,0.0,25.949362875985607,0.7279267987790121,49.271396860714574
20.0,0.0,25.874508354226336,0.7288328718927479,49.9360601030685
21.0,0.0,25.80850710425842,0.7297390859454703,50.60193821634296
22.0,0.0,25.751331878520936,0.7306455232521145,51.26891417856714
23.0,0.0,25.70296101181623,0.7315522691474654,51.936871684355
24.0,0.0,25.663378433144857,0.7324594117111077,52.60569507011842
25.0,0.0,25.632573691027314,0.733367041496934,53.27526923932139
26.0,0.0,25.610541983860386,0.7342752512664997,53.945479587773995
27.0,0.0,25.59728419250053,0.7351841357255082,54.61621192896352
28.0,0.0,25.592806914145015,0.7360937912627007,55.287352419419065
29.0,0.0,25.597122497205117,0.737004315690418,55.95878748410481
30.0,0.0,25.610249077065713,0.7379158079860939,56.63040374183681
31.0,0.0,25.63221061268559,0.738828368033931,57.30208793071694
32.0,0.0,25.6630369240048,0.7397420963660015,57.97372683357783
33.0,0.0,25.702763696530997,0.7406570939020047,58.64520720343182
34.0,0.0,25.751432438850244,0.7415734616869094,59.316415688917516
35.0,0.0,25.809090765242985,0.7424913006256882,59.987238759735966
36.0,0.0,25.875792324219894,0.7434107112143549,60.65756263207148
37.0,0.0,25.951596821918162,0.7443317932664939,61.32727319399006
38.0,0.0,26.03657006314449,0.7452546456344679,61.99625593081015
39.0,0.0,26.130783992696177,0.7461793659244709,62.66439585044079
40.0,0.0,26.234316736822255,0.7471060502045913,63.3315774086832
41.0,0.0,26.347252644669556,0.7480347927050287,63.997684434493145
42.0,0.0,26.469682329538053,0.7489656855096033,64.66260005520226
43.0,0.0,26.601702709752296,0.7498988182376808,65.32620662169839
44.0,0.0,26.74341704893158,0.7508342777156243,65.98838563356621
45.0,0.0,26.894934995421874,0.7517721476368725,66.6490176641915
46.0,0.0,27.05637262062841,0.7527125082097315,67.30798228583407
47.0,0.0,27.227852455963106,0.7536554357919555,67.96515799467667
48.0,0.0,27.409503528096508,0.7546010025111785,68.62042213585963
49.0,0.0,27.601461392177068,0.7555492758702513,69.27365082851308
50.0,0.0,27.80386816265224,0.7565003183365232,69.92471889080167
51.0,0.0,28.016872541296888,0.7574541869141007,70.57349976499933
52.0,0.0,28.240629842025097,0.7584109326981066,71.21986544261469
53.0,0.0,28.47530201202795,0.759370600409953,71.8636863895912
54.0,0.0,28.72105764874829,0.7603332279126378,72.50483147160897
55.0,0.0,28.978072012167495,0.761298845705066,73.14316787951944
56.0,0.0,29.246527031845293,0.7622674763943988,73.77856105494756
57.0,0.0,29.526611308113605,0.7632391341454282,74.41087461609992
58.0,0.0,29.81852010678835,0.7642138241059767,75.03997028382199
59.0,0.0,30.12245534672268,0.7651915418073304,75.66570780795142
60.0,0.0,30.438625579481617,0.766172272538714,76.2879448940193
61.0,0.0,30.76724596037711,0.7671559906948315,76.90653713035569
62.0,0.0,31.108538210055173,0.7681426590955104,77.521337915661
63.0,0.0,31.46273056578216,0.7691322282765031,78.13219838710978
64.0,0.0,31.83005772152963,0.7701246357505259,78.7389673490585
65.0,0.0,32.21076075590616,0.7711198052376403,79.34149120243471
66.0,0.0,32.60508704693724,0.7721176458641189,79.93961387489065
67.0,0.0,33.01329017264021,0.7731180513289759,80.53317675180975
68.0,0.0,33.435629796289916,0.7741208990373886,81.12201860826089
69.0,0.0,33.872371535216914,0.7751260492002912,81.70597554200138
70.0,0.0,34.32378681192573,0.7761333438994825,82.28488090763544
71.0,0.0,34.79015268626527,0.77714260611766,82.85856525204194
72.0,0.0,35.271751667329056,0.7781536387328697,83.42685625119158
73.0,0.0,35.768871503705306,0.7791662234769524,83.98957864848
74.0,0.0,36.28180495064374,0.7801801198576636,84.54655419471051
75.0,0.0,36.81084951264845,0.7811950640442539,85.09760158986698
76.0,0.0,37.356307159953396,0.7822107677164216,85.64253642682402
77.0,0.0,37.91848401728243,0.7832269168766793,86.18117113714911
78.0,0.0,38.49769002324412,0.7842431706263254,86.71331493915798
79.0,0.0,39.09423855866158,0.7852591599053736,87.23877378839197
80.0,0.0,39.70844604209079,0.7862744861969689,87.75735033069299
81.0,0.0,40.34063149073488,0.7872887201970084,88.26884385805897
82.0,0.0,40.99111604492235,0.7883014004498959,88.77305026746969
83.0,0.0,41.66022245428091,0.7893120319515826,89.26976202287982
84.0,0.0,42.34827452370652,0.7903200847212866,89.75876812058321
85.0,0.0,43.05579541762187,0.7913249922483058,90.23985404959153
86.0,0.0,70.11377173191917,0.7923261502548243,90.71280178688909
87.0,0.0,113.77911741615169,0.7933229150874465,91.17738976506652
88.0,0.0,157.6118666938214,0.7943146019681248,91.63339283416892
89.0,0.0,201.61595272588679,0.7953004835950278,92.08058226160253
90.0,0.0,245.7950190849975,0.7962797886144867,92.51872572584824
91.0,0.0,290.1524091854575,0.7972517000132556,92.94758730941126
92.0,0.0,334.6911549279504,0.7982153535276666,93.36692749927016
93.0,0.0,379.4139645220965,0.7991698360433843,93.77650319242824
94.0,0.0,424.32320959926324,0.8001141838408631,94.17606769710905
95.0,0.0,432.7997189693336,0.7998781693278251,93.86189546844481
96.0,0.0,426.3568534020132,0.7991095282790219,93.21342403391887
97.0,0.0,419.9299073804748,0.798276941142567,92.5105028900776
98.0,0.0,413.5195442558317,0.7973787320437806,91.75182299354825
99.0,0.0,407.1264526766337,0.7964132793196746,90.93616986168436
100.0,0.0,400.7513855971775,0.7953791290301676,90.06264550308951
101.0,0.0,394.3951341699461,0.7942748953296237,89.13050486369707
102.0,0.0,388.0585231716233,0.7930993732011474,88.13933420735846
103.0,0.0,381.74242557076855,0.7918515263126009,87.08906827935488
104.0,0.0,375.44775604905294,0.7905305147771299,85.98004370884308
105.0,10.120481474069365,369.1754679562808,0.7891357109700352,84.81303313872836
106.0,216.04730219142363,362.9265541703305,0.7876667242964899,83.58929910407723
107.0,425.84120964523385,356.70204551073317,0.7861234191154254,82.31062885745895
108.0,639.4100881248783,350.50300955695474,0.7845059310496973,80.97936144309189
109.0,856.6460432068427,344.33054920822946,0.7828146809187074,79.59840327711696
110.0,1077.4248768758305,338.1858010855636,0.7810503844384562,78.17122726379154
111.0,1301.605811576792,332.069933652481,0.7792140537128704,76.70184847044185
112.0,1529.03103640617,325.9841454640454,0.7773069989504294,75.19479116193963
113.0,1759.524892033107,319.9296655424115,0.7753308282159987,73.65503950996764
114.0,1992.8941572500034,313.9077483411931,0.7732874312791563,72.08795224482799
115.0,2228.9279884124103,307.9196727406171,0.771178960323691,70.49917191073348
116.0,2467.397610755305,301.9667411332982,0.7690078123408205,68.8945304254438
117.0,2708.0559680122988,296.0502771453087,0.7667766085149421,67.27993869348263
118.0,2950.638109906604,290.17162218203435,0.7644881610588884,65.66126800299942
119.0,3194.862230878397,284.332132522056,0.7621454354760319,64.04425582674662
120.0,3440.4286010496658,278.5331814354962,0.7597515306225524,62.43440011082979
121.0,3687.020560317708,272.77615123110326,0.7573096396483309,60.83686292553378
122.0,3934.305893355606,267.06243146575576,0.7548230133835797,59.256423010887765
123.0,4181.936518675328,261.39342082975134,0.7522949392515859,57.69741668859741
124.0,4429.549105449801,255.77052061575563,0.7497287082055084,56.16367847384144
125.0,4676.767164035636,250.19513026274677,0.7471275850430042,54.65855429360323
126.0,4923.201438360404,244.66864897115687,0.7444947950869281,53.18490003659584
127.0,5168.450275892263,239.1924727927243,0.7418335033634174,51.74506273763828
128.0,5412.102303381135,233.76798578117442,0.7391467895422178,50.34092486740438
129.0,5653.737536238336,228.39656074751602,0.7364376440434129,48.97394431904688
130.0,5892.927082019734,223.07956459293385,0.7337089723133655,47.64516787374313
131.0,6129.237343189339,217.81833784197903,0.7309635535915906,46.3552734164789
132.0,6350.2371411712065,232.85526805684177,0.7282040854220445,45.10464168244709
133.0,6585.523407297633,293.3246295931264,0.7254331221748256,43.89334841992867
134.0,6902.860430989189,400.8481547883391,0.7226531201136757,42.721236458803915
135.0,7377.689242873142,560.7009130710398,0.7198664251203553,41.58794395385837
136.0,8105.22374765264,768.5202345130839,0.7170752750852452,40.49293841425289
137.0,9179.245311171633,984.504537607169,0.7142818027711583,39.43554745568925
138.0,10622.58143410837,1203.336183187325,0.7114880406846676,38.41498678279043
139.0,12450.969088104006,1424.4870117035016,0.7086959246364628,37.43038428488347
140.0,14678.711659018849,1647.3710232194035,0.7059072986738651,36.48080136316873
141.0,17318.425621542498,1871.351299147633,0.7031239188682186,35.565250969634
142.0,20380.78934656091,2095.74752124996,0.700347460201097,34.682713940413564
143.0,23874.31764168352,2319.844292871624,0.6975795192950053,33.832151483649575
144.0,27805.13622787037,2542.89957247189,0.6948216199972058,33.01251659477509
145.0,32176.800747272453,2764.1535272285005,0.6920752188978819,32.22276345342809
146.0,36990.12841294535,2982.8374771212953,0.6893417075165968,31.461854233991033
147.0,42243.05852997192,3198.1826545635467,0.6866224167171742,30.728765308560508
148.0,47930.5694023732,3409.428464136595,0.6839186226518508,30.022492526435123
149.0,54044.59850478736,3615.830745253974,0.6812315480928681,29.342054371122057
150.0,60574.00476326276,3816.6694588497753,0.6785623652449335,28.68649468884134
151.0,67504.62666208127,4011.254951580933,0.6759122032298618,28.054885810645345
152.0,74819.28181757842,4198.93489956048,0.6732821464560172,27.446328997973133
153.0,82497.86574779327,4379.099638963794,0.6706732385129245,26.859955641625767
154.0,90517.47693349065,4551.186833092739,0.6680864849267456,26.294927853864216
155.0,98852.57221432538,4714.685388969741,0.6655228554010775,25.750438643644852
156.0,107475.17082965706,4869.138534701147,0.6629832866814134,25.225712097422882
157.0,116348.00065526272,5026.8286645908165,0.6604686845444412,24.720002575935762
158.0,125468.40970475477,5295.420303275243,0.6579799201659389,24.232593910075625
159.0,135114.3150576859,5828.872220807326,0.6555178387292004,23.762799694582473
160.0,145949.39453102535,6783.027679757699,0.6530832581161328,23.309962104417128
161.0,159008.28162991762,8206.94009287028,0.6506769702309874,22.87345108892748
162.0,175415.53490657895,10104.360282647998,0.6482997421396351,22.452663492461223
163.0,196301.31003506627,12474.350331658143,0.6459523170370031,22.047022136196816
164.0,222784.79909903233,15311.151054712262,0.6436354152285928,21.655974900113105
165.0,255957.4212883075,18604.10807319531,0.6413497349111362,21.27899377181375
166.0,296865.6478442931,22337.725675694586,0.6390959529902639,20.915573930657455
167.0,346494.61838677316,26491.84307780334,0.6368747256597602,20.56523279632225
168.0,405752.22325631767,31041.91761836367,0.6346866890396448,20.227509138815478
169.0,475454.6461117486,35959.4053001494,0.6325324597044936,19.901962176943737
170.0,556313.5558657872,41212.215536784955,0.6304126350988457,19.588170708196387
171.0,648925.1216848964,46765.22855676104,0.6283277940312645,19.28573225995102
172.0,753760.7526766638,52580.842481738946,0.6262784969795847,18.994262335527885
173.0,871161.28687956,58619.56315144311,0.624265286549554,18.713393532247228
174.0,1001332.282517405,64840.57427793471,0.6222886873807986,18.442774870220358
175.0,1144341.7395088957,71203.00522266905,0.6203492068367955,18.18207103130361
176.0,1300100.98407813,77773.85063112278,0.6184473351986308,17.930961695717333
177.0,1468770.0056196505,85042.34608196277,0.6165835451096292,17.689140795032152
178.0,1651991.6148430372,94004.60927590162,0.6147582925573719,17.45631597326098
179.0,1854189.3711833858,105861.36551565382,0.6129720167350512,17.23220795180822
180.0,2082882.7555158217,121766.22926788295,0.6112251401669306,17.016549952871554
181.0,2348452.453926536,142791.20642043318,0.6095180687863412,16.80908714857808
182.0,2663821.9473519996,169907.67734292868,0.6078511920251095,16.609576140183176
183.0,3044085.1426173444,203969.9819467688,0.6062248828853791,16.417784459273925
184.0,3506094.432726259,245702.1131405329,0.6046394979809412,16.233490095465143
185.0,4068018.662014726,295687.99680908775,0.6030953775803443,16.056481044549646
186.0,4748883.294959885,354365.5041184803,0.6015928456507026,15.886554880492001
187.0,5568107.720854515,422024.07708514243,0.6001322098812794,15.723518352880626
188.0,6545056.484032755,498805.9871414254,0.5987137617017729,15.567186994404617
189.0,7698606.20201664,584710.6653580837,0.5973377762951549,15.41738476059285
190.0,9046748.916577607,679601.6166851314,0.5960045126102574,15.273943676199979
191.0,10606214.685996309,783248.3715047784,0.5947142133656169,15.136703506541554
192.0,12392253.646998532,895857.2343992094,0.5934671050435526,15.005511443375328
193.0,14420261.93158092,1019358.7795175494,0.5922633979269533,14.880221804093589
194.0,16711136.58714443,1158367.7755112636,0.5911032860209156,14.760695749055293
195.0,19298502.963255174,1320090.7129467165,0.5899869471151272,14.646801009991497
196.0,22235181.263298243,1513884.3279314204,0.5889145427474293,14.538411639124227
197.0,25598121.22680228,1750779.2647627653,0.5878862182099319,14.435407761542658
198.0,29491820.63884515,2042998.35177621,0.5869021025360212,14.337675346251961
199.0,34050291.12083595,2403480.9126028833,0.5859623084908568,14.245105986912666
200.0,39437597.56888824,2845428.9452144685,0.5850669325719032,14.157596691152435
201.0,45847129.85530739,3381887.206002689,0.5842160549954865,14.075049684223295
202.0,53499805.57027089,4025365.427108742,0.5834097396926365,13.997372220270083
203.0,62641292.37438349,4787511.710696063,0.5826480343108549,13.92447640132974
204.0,73538474.47993499,5678839.310546486,0.5819309701993897,13.856279009305336
205.0,86475426.57972668,6708535.155225643,0.581258562419486,13.792701341550336
206.0,101748927.73320696,7884962.688671029,0.5806308097308378,13.733669058646017
207.0,119666255.46176107,9218454.60352623,0.5800476946074599,13.679112034528389
208.0,140551973.704281,10726258.10336771,0.5795091832312019,13.628964219340814
209.0,164768374.59296507,12437312.239265148,0.5790152254971221,13.583163504871669
210.0,192747792.64896154,14395648.877534876,0.5785657550270863,13.541651597390775
211.0,225032265.70756838,16662425.648330586,0.5781606891754659,13.504373896781894
212.0,262316650.31975165,19316720.326073974,0.5777999290479259,13.471279379934606
213.0,305492204.38333106,22455264.29431127,0.5774833595255057,13.44232049177432
214.0,355686568.5451375,26191302.332025588,0.5772108492620238,13.417453039748084
215.0,414299570.4446564,30652716.76179506,0.5769822507333957,13.396636091401374
216.0,483032120.9426541,35979662.004689395,0.5767974002415273,13.379831880691594
217.0,563907477.5192922,42321812.06241568,0.57665611796793,13.367005712573963
218.0,659284906.7911379,49835429.70606884,0.5765582079931095,13.358125877865513
219.0,771864010.4310155,58680488.35765817,0.5765034583476394,13.35316356543835
220.0,904683013.9758174,69019399.68385102,0.5764916410561068,13.352092783279058
221.0,1061113255.6952513,81020975.97165124,0.5765225121829887,13.35489027854594
222.0,1244870557.5535707,94871784.4962471,0.576595811905498,13.361535462999802
223.0,1460057752.081312,110793476.99594313,0.5767112645525226,13.372010340885852
224.0,1711256909.3369663,129063110.41948353,0.5768685786943474,13.38629943741519
225.0,2003675142.6535265,150034158.66709536,0.5770674472183686,13.404389732284658
226.0,2343340916.277387,174156337.70851934,0.5773075474016341,13.42627059430937
227.0,2737346830.434541,201992717.4247069,0.5775885410110635,13.451933716872823
228.0,3194129741.8516283,234233290.1449204,0.5779100744068855,13.48137305621746
229.0,3723777415.64007,271704485.3665315,0.5782717786469915,13.51458477220443
230.0,4338345048.251883,315374320.82648593,0.5786732695994324,13.551567169095605
231.0,5052174416.033639,366353150.97652847,0.5791141480782466,13.59232063763857
232.0,5882203886.975791,425890387.11741334,0.579593999982227,13.636847599190146
233.0,6848255163.510444,495367750.0372213,0.5801123964332251,13.685152451129218
234.0,7973286620.73661,576290956.0458192,0.5806688939379531,13.737241511625337
235.0,9283617965.29588,670285438.5630119,0.5812630345625824,13.793122965853371
236.0,10809140448.386335,779103587.0246179,0.5818943461126836,13.852806813540553
237.0,12583534974.321121,904649072.7424968,0.5825623423181965,13.91630481637453
238.0,14644556594.679113,1049019831.5903947,0.5832665230469377,13.983630445055447
239.0,17034432082.583124,1214568843.4338722,0.5840063745252532,14.054798827312688
240.0,19800413742.07486,1403979938.227743,0.5847813695659507,14.129826696676039
241.0,22995489031.234604,1620354528.3498862,0.5855909678073151,14.208732339609792
242.0,26679324862.372967,1867303950.7402246,0.5864346159819032,14.291535543682851
243.0,30919393783.250065,2149043460.280971,0.5873117481866021,14.378257545112113
244.0,35792296812.19361,2470482909.466746,0.5882217861703074,14.468920976031082
245.0,41385254919.88977,2837310126.556641,0.5891641396362409,14.563549811328341
246.0,47797735275.38599,3256063532.2797203,0.5901382065591393,14.662169314967338
247.0,55143172722.98329,3734191209.926215,0.5911433735174458,14.764805985740924
248.0,63550726584.76009,4280094624.1031027,0.5921790160395928,14.8714875023016
249.0,73167030159.9511,4903156335.369426,0.5932444989673408,14.982242667380358
250.0,84157888772.93382,5613754713.878149,0.594339176834724,15.097101351206309
251.0,96709838109.58044,6423273999.350897,0.5954623942581508,15.216094434172748
252.0,111031619102.98438,7344118233.534942,0.5966134863475782,15.339253748297981
253.0,127355528521.51888,8389741538.969131,0.5977917791284609,15.466612018000507
254.0,145938676360.78134,9574703356.606941,0.5989965899800931,15.598202799644394
255.0,167064220945.61038,10914755211.397253,0.6002272280885225,15.73406042006683
256.0,191042664826.7993,12426961967.855904,0.6014829949134674,15.874219913996292
257.0,218213183040.99664,14129859052.043821,0.6027631846702426,16.018716960385905
258.0,248945141694.9864,16043640404.691563,0.604067084826609,16.167587817527284
259.0,283639860649.17236,18190373564.701397,0.6053939766087496,16.320869257317106
260.0,322732601930.82306,20594231782.262737,0.6067431355229161,16.47859849793126
261.0,366694704280.1071,23281738674.134785,0.6081138318882132,16.64081313576045
262.0,416035866844.04834,26282008897.3264,0.6095053313868236,16.807551075844348
263.0,471306507372.53595,29626984785.574894,0.6109168956210113,16.97885046201807
264.0,533100519262.3483,33351649315.424606,0.612347782670402,17.15474960515611
265.0,602057772134.8877,37494204942.63669,0.613797247667136,17.33528691026609
266.0,678865517379.2847,42096230036.641754,0.6152645434090379,17.520500804662927
267.0,764261309348.749,47202782634.95334,0.6167489209161723,17.71042966209342
268.0,859033967708.8248,52862444063.68238,0.6182496300444291,17.90511172854713
