Time,J,A,S,tau
0.0,100.0,100.0,0.689737645498063,24.429425419680367
1.0,90.27797114381528,124.98391294994849,0.6919829068062041,24.837925498924598
2.0,84.33817155869835,147.5087205124997,0.6942552383100689,25.25698850088807
3.0,81.11717748534842,167.764057073949,0.6965521245800722,25.686285395866612
4.0,79.73781450187782,185.92812093850034,0.6988714806564653,26.12555440018091
5.0,90.20417099171583,191.26474269980963,0.6991955860433988,26.763873835524834
6.0,118.12451390403815,176.14390523677176,0.6957999979257813,27.763337528148632
7.0,141.8331959681542,162.15656557632727,0.6925236072842762,28.763093233894438
8.0,161.91588098016655,149.23668408183588,0.6893636593313277,29.762848939640246
9.0,178.89406901588833,137.30675891673542,0.6863145945745928,30.762604645386048
10.0,193.21805997669586,126.29457845238838,0.6833711361017182,31.76236035113185
11.0,205.27596164313474,116.13289321693763,0.6805282735529171,32.76211605687765
12.0,215.40170726426476,106.75910208391613,0.6777812480208758,33.76187176262346
13.0,223.88213405021594,98.11494893601932,0.6751255380151984,34.76162746836926
14.0,230.96330665735732,90.14622060476361,0.6725568458204918,35.76138317411507
15.0,236.85588935820218,82.80254509502012,0.6700710854295391,36.761138879860866
16.0,241.7400883776501,76.03705223678435,0.6676643704897501,37.760894585606664
17.0,245.76971014436657,69.80624427542698,0.6653330038531924,38.76065029135246
18.0,249.07602207935852,64.06969554931315,0.6630734660559435,39.76040599709826
19.0,251.77079666213265,58.78985396773584,0.660882406791313,40.76016170284406
20.0,253.94909469788834,53.93195334929538,0.658756635313853,41.75991740858986
21.0,253.37195698043914,45.10676000388766,0.6566931109831635,42.759673114335676
22.0,252.59774775612294,37.413349092825705,0.6546889360907548,43.75942882008148
23.0,251.84537691496044,31.02428016888277,0.6527413477589951,44.75918452582729
24.0,251.11382744268312,25.719868213678343,0.6508477106768332,45.75894023157309
25.0,250.40212890881645,21.31716430934255,0.6490055102324057,46.7586959373189
26.0,249.7093549606992,17.663860218078835,0.6472123460201202,47.7584516430647
27.0,249.03462095508377,14.633195558850744,0.6454659257041871,48.75820734881051
28.0,248.37708171873265,12.119704610032976,0.6437640592163585,49.75796305455631
29.0,247.7359294299919,10.035665500166996,0.6421046532670954,50.75771876030212
30.0,247.1103916138634,8.308136778953662,0.6404857061507911,51.757474466047924
31.0,246.4997292436575,6.876485189018358,0.6389053028271254,52.75723017179373
32.0,245.903234942932,5.690323799304439,0.6373616102622434,53.756985877539535
33.0,245.32023128057457,4.707791717109527,0.6358528730112509,54.75674158328534
34.0,244.75006915437731,3.894121846391731,0.6343774090299804,55.756497289031145
35.0,244.19212625762506,3.2204470143707096,0.6329336057018274,56.75625299477695
36.0,243.64580562353638,2.662805483526044,0.6315199160662922,57.756008700522756
37.0,243.1105342428768,2.2013128671693916,0.6301348552370959,58.75576440626856
38.0,242.58576175034307,1.8194728248651502,0.6287769969984703,59.755520112014366
39.0,242.07095917558544,1.5036034609248237,0.6274449705689126,60.75527581776017
40.0,241.56561775504727,1.2423602033662429,0.6261374575225064,61.75503152350598
41.0,241.06924780102102,1.0263389592387775,0.6248531888584795,62.75478722925179
42.0,240.58137762388822,0.8477460451383669,0.62359094220855,63.754542934997595
43.0,240.10155250504147,0.7001241294303406,0.62234953917558,64.7542986407434
44.0,239.62933371721115,0.5781244183249928,0.6211278427950425,65.7540543464892
45.0,239.1642975892693,0.4773174249118976,0.619924755111722,66.75381005223501
46.0,238.70603461279174,0.39403583649886675,0.6187392148645978,67.75356575798081
47.0,238.25414858780647,0.32524407357943397,0.6175701952732502,68.75332146372662
48.0,237.8082558052957,0.26843003751812416,0.6164167019194856,69.75307716947242
49.0,237.3679842642071,0.22151531101741498,0.6152777707183648,70.75283287521823
50.0,236.93297292074433,0.18278064931373061,0.6141524659728572,71.75258858096403
51.0,236.50287096762028,0.1508041931053279,0.6130398785061186,72.75234428670984
52.0,236.0773371417285,0.12441028524116676,0.6119391238673892,73.75209999245564
53.0,235.65603905819916,0.10262703364282681,0.6108493406062451,74.75185569820145
54.0,235.23865256906547,0.08465115032880235,0.6097696886106038,75.75161140394727
55.0,234.82486114485786,0.06981882655170991,0.6086993475041251,76.75136710969306
56.0,234.41435527752486,0.0575816138904377,0.6076375150988584,77.75112281543888
57.0,234.0068319031552,0.04748645581578066,0.606583405899183,78.75087852118467
58.0,233.6019938430862,0.039159162575389164,0.6055362496533758,79.75063422693049
59.0,233.1995492619329,0.03229072824167401,0.6044952899490083,80.75038993267628
60.0,232.7992111411777,0.026626014592573584,0.6034597828486481,81.7501456384221
61.0,232.4006967672161,0.02195439429511595,0.6024289955630031,82.7499013441679
62.0,232.00372723256686,0.018102010576080525,0.601402205158161,83.74965704991371
63.0,231.60802694909245,0.014925377579128438,0.6003786972939336,84.7494127556595
64.0,231.21332317212426,0.012306090286894358,0.5993577649904395,85.74916846140532
65.0,230.81934553443554,0.010146452511478705,0.598338707420189,86.74892416715113
66.0,230.42582558905002,0.008365864360620123,0.5973208287230438,87.74867987289696
67.0,230.03249635991918,0.006897838360321421,0.5963034368415502,88.74843557864278
68.0,229.639091899516,0.005687533010871589,0.5952858423741738,89.74819128438861
69.0,229.24534685248238,0.0046897173437815565,0.5942673574442037,90.74794699013444
70.0,228.85099602449836,0.0038670903133860455,0.5932472945821647,91.74770269588026
71.0,228.45577395554307,0.0031888930186271917,0.5922249656195925,92.74745840162609
72.0,228.05941449677354,0.0026297631710863515,0.591199680592161,93.74721410737192
73.0,227.66165039028405,0.0021687896644758935,0.5901707466502527,94.74696981311774
74.0,227.26221285104359,0.0017887324027803149,0.5891374669751513,95.74672551886357
75.0,226.8608311503447,0.0014753786020747191,0.5880991396991285,96.7464812246094
76.0,226.4572322000933,0.00121701183019495,0.5870550568276861,97.74623693035522
77.0,226.05114013744034,0.0010039736902348983,0.5860045031626608,98.74599263610105
78.0,225.64227590916687,0.0008283026340834472,0.5849467552246658,99.74574834184688
79.0,225.2303568552778,0.0006834360324257101,0.5838810801734565,100.7455040475927
80.0,224.81509629135158,0.0005639644586721966,0.5828067347250477,101.74525975333853
81.0,224.3962030892121,0.00046542908421526525,0.5817229640644568,102.74501545908436
82.0,223.97338125553708,0.00038415463528865154,0.5806290007530732,103.74477116483018
83.0,223.54632950806533,0.0003171116803018895,0.5795240636297788,104.74452687057601
84.0,223.11474084910154,0.000261803110715499,0.5784073567050382,105.74428257632184
85.0,222.67830213600612,0.00021617057345403563,0.5772780680471481,106.74403828206766
86.0,222.23669364874723,0.00017851729337736418,0.5761353686608456,107.74379398781349
87.0,221.78958865420464,0.00014744452616082676,0.5749784113574705,108.7435496935593
88.0,221.33665296718235,0.00012179916534266675,0.5738063296165722,109.74330539930513
89.0,220.8775445081871,0.00010063055862852681,0.572618236439103,110.74306110505096
90.0,220.4119128580696,8.315491856315108e-05,0.571413223192456,111.74281681079678
91.0,219.93939880971368,6.8725992562233e-05,0.5701903584478228,112.74257251654261
92.0,219.45963391704936,5.681089169935387e-05,0.568948686810587,113.74232822228844
93.0,218.9722400417266,4.697017245198347e-05,0.5676872277446273,114.74208392803426
94.0,218.47682889859306,3.8841398855035726e-05,0.5664049743934948,115.74183963378005
95.0,217.9730015966328,3.2125685962654736e-05,0.5651008923897927,116.74159533952582
96.0,217.46034818613867,2.6576447996528012e-05,0.5637739186806972,117.7413510452716
97.0,216.93844720083587,2.1990279665679715e-05,0.5624229603403584,118.74110675101737
98.0,216.40686519998087,1.8199359461575492e-05,0.5610468933822081,119.74086245676317
99.0,215.86515631960367,1.5065197226682535e-05,0.5596445615949525,120.74061816250897
100.0,215.31286182062541,1.24735359587884e-05,0.5582147753704337,121.74037386825478
101.0,214.74950964831274,1.0330033529497132e-05,0.556756310560859,122.74012957400059
102.0,214.17461398960745,0.0,0.5552679073304894,123.7398852797464
103.0,213.58767485639714,0.0,0.5537482690745754,124.7396409854922
104.0,212.98817765615513,0.0,0.5521960613054934,125.73939669123801
105.0,212.37559279642875,0.0,0.5506099106266402,126.73915239698383
106.0,211.74937529344626,0.0,0.5489884037169674,127.73890810272965
107.0,211.10896440919964,0.0,0.5473300863893309,128.73866380847545
108.0,210.45378329180926,0.0,0.5456334626573088,129.73841951422125
109.0,209.7758239570843,0.0073402337906612386,0.5438969939309295,130.73817521996727
110.0,209.07896842874902,0.01734467142193379,0.5421190982909987,131.73793092571307
111.0,208.3662162054888,0.02649214619120279,0.5402981497464303,132.7376866314589
112.0,207.6369667811084,0.034857232435280536,0.5384324777008367,133.73744233720467
113.0,206.89060589813175,0.04250780645845128,0.536520366469884,134.73719804295047
114.0,206.12650548843163,0.04950564769599016,0.5345600549698905,135.73695374869627
115.0,205.3440236243111,0.05590697310157536,0.5325497364469182,136.73670945444206
116.0,204.54250451441928,0.06176297535759509,0.5304875585390757,137.73646516018786
117.0,203.72127857228523,0.06712020350803415,0.5283716232337196,138.73622086593366
118.0,202.87966245386318,0.07202108147175496,0.5261999874470951,139.73597657167946
119.0,202.01695919020855,0.07650417129303246,0.5239706631711086,140.73573227742526
120.0,201.1324583727641,0.08060456921271883,0.5216816184423988,141.73548798317105
121.0,200.22543635553373,0.0843542351118894,0.5193307784201737,142.73524368891685
122.0,199.29515650929682,0.0877822199269537,0.5169160263667654,143.73499939466265
123.0,198.34086950254522,0.09091499095285972,0.5144352054891491,144.73475510040848
124.0,191.467704458966,6.073171592723621,0.5129884173067016,145.5930363315743
125.0,169.75269824068783,28.4859555050895,0.5146909692424154,146.03743759761394
126.0,151.86282596569635,49.677302320928334,0.516398373450749,146.47075448864342
127.0,138.19240540971916,69.72045553960449,0.5180994162368494,146.89394274524525
128.0,129.10522624291076,88.73044234841232,0.519792236899069,147.30673795905025
129.0,124.98698594713179,106.81264757108812,0.5214748375041243,147.70887152061366
130.0,126.24484496926856,124.06364639782245,0.5231450765661754,148.10007063413283
131.0,133.30664413676084,140.57197412457845,0.5248006626845267,148.4800583397799
132.0,146.6197943201851,156.4188244658754,0.5264391481408863,148.84855354352027
133.0,166.64980317712815,171.67868277118106,0.5280579224867951,149.2052710547591
134.0,193.8784043589965,186.41989996227588,0.5296542061557491,149.5499216321554
135.0,228.8012572841593,200.7052123010136,0.5312250441383052,149.88221203793245
136.0,271.92518760351976,214.5922118106646,0.5327672997646331,150.20184510104735
137.0,323.76492515683645,228.13377406357154,0.5342776486533684,150.50851978976303
138.0,384.83940511552964,241.37843558578814,0.53575257285769,150.80193129343473
139.0,455.6674622539311,254.37074480641948,0.5371883552154519,151.08177111314654
140.0,536.7630162003604,267.1515732021595,0.538581073993361,151.34772716229372
141.0,628.6298183325625,279.7584022273105,0.5399265986583316,151.59948388876293
142.0,731.7555375127325,292.2255567248961,0.5412205842150941,151.8367223782987
143.0,846.6055814850898,304.58445377716845,0.5424584690122916,152.05912051335793
144.0,973.6161275299044,316.86378622564325,0.5436354702251154,152.26635309892816
145.0,1113.1870828578192,329.089704222814,0.5447465817633909,152.45809202610806
146.0,1265.674569401776,341.285980044368,0.5457865731129025,152.6340064465739
147.0,1431.3831209385646,353.4741430297094,0.546749988388128,152.79376295021237
148.0,1610.5576458350422,365.67360103032195,0.5476311465050966,152.93702575721258
149.0,1803.375035800988,377.9017390501004,0.5484241420424997,153.06345692071648
150.0,2009.9386100861711,390.17396888100455,0.549122853379299,153.1727165859803
151.0,2230.2675749636023,402.50402880562274,0.5497209407909154,153.26446316563766
152.0,2464.283503592361,414.90351896099986,0.5502118411502346,153.33835355280343
153.0,2711.813464308473,427.38322524705376,0.5505888026112638,153.3940435304124
154.0,2982.443680410142,427.2255835626925,0.5491270825344811,153.0387230590993
155.0,3256.585463359307,423.1634322043161,0.54619624030076,152.33945725865107
156.0,3527.5332056606603,423.40136024189053,0.5429657184484709,151.54833525113273
157.0,3787.8737717923223,498.1648957202719,0.7373642201164384,31.68026411571279
158.0,4132.162765285194,477.4665258809814,0.7325736975484001,30.867663156560578
159.0,4451.3217791745765,469.73306044687627,0.7277241634631918,30.07828046923154
160.0,4754.623961508171,475.18945712172683,0.7228186720599629,29.31191903193369
161.0,5051.859054416181,494.085914937663,0.717860310512315,28.56831299880477
162.0,5353.213533084392,526.6755365744662,0.712852195371407,27.847138105082262
163.0,5669.121943752482,573.1911886788047,0.7077974689894527,27.148021122503586
164.0,6010.09025608582,633.8220886428028,0.7026992959126219,26.470548394907087
165.0,6386.490250904552,708.690985954267,0.6975608596678978,25.81427352546923
166.0,6808.327032488514,797.8325984672018,0.6923853601281101,25.178724259524493
167.0,7285.002136680909,901.1732823754006,0.6871760097868606,24.563408477599374
168.0,7825.04763393992,1018.5141803834259,0.6819360323005528,23.967819643830843
169.0,8435.889617677396,1149.5153695238596,0.6766686576792961,23.39144124929681
170.0,9123.59014726071,1293.6866281797777,0.6713771217907707,22.833751079926675
171.0,9892.643427611067,1450.3788662170402,0.666064661110272,22.294224434628447
172.0,10745.75429602955,1618.7829700842742,0.660734513475285,21.77233740999633
173.0,11683.71503616249,1797.9307460631671,0.655389912437324,21.267569157254176
174.0,12705.293321633075,1986.701807424598,0.650034085389089,20.779404069152847
175.0,13813.7587652035,2174.976551584374,0.6446702532646956,20.30733371845633
176.0,14997.553241243957,2355.327665764991,0.63930162015538,19.850857775641565
177.0,16206.540250724625,2586.7850734400317,0.6339313779056028,19.40948572725908
178.0,17512.632345058697,2785.1316766425252,0.628562701410823,18.982737676466467
179.0,18862.54037848771,2971.354431459838,0.6231987459657138,18.570145088878295
180.0,20221.23359852949,3165.1959503554076,0.6178426441212287,18.171251331161724
181.0,21569.49199368,3384.7926663778994,0.6124975030980128,17.78561209306016
182.0,22901.219207471648,3646.279903989053,0.6071664018598922,17.41279565746954
183.0,24220.587718634335,3963.397000132441,0.6018523885861252,17.0523830749456
184.0,25539.1393355233,4347.123209285522,0.5965584777411544,16.703968233234715
185.0,26872.9197669254,4805.382126072664,0.5912876474515286,16.367157853734675
186.0,28239.785561932797,5342.848216216492,0.5860428369045918,16.04157139455465
187.0,29656.953231530504,5960.848300213802,0.58082694383429,15.726840994414571
188.0,31138.876210664264,6657.426648710064,0.5756428235683018,15.422611299502378
189.0,32695.67728594056,7427.526383736016,0.5704932858167467,15.128539216681025
190.0,34334.06025573617,8261.120138927608,0.5653810888614554,14.844293559165411
191.0,36057.835092611116,9138.784277134664,0.560308940410044,14.569554918638838
192.0,37840.78166311496,10066.259509369715,0.5552794956744952,14.304015371066196
193.0,39687.829773213074,11011.669920399121,0.5502953546019078,14.047378170903366
194.0,41577.47082290757,11956.226556005975,0.5453590601141292,13.79935744638345
195.0,43466.84697604474,12902.186605143279,0.540473096789134,13.559677910380834
196.0,45307.6708386499,13865.298708602886,0.5356398890980479,13.328074539215399
197.0,47056.28976472203,14868.160370392234,0.5308617983761938,13.104292214355455
198.0,48679.06865345518,15934.689731584163,0.5261411235239328,12.888085472710852
199.0,50154.514462197454,17085.762736235873,0.5214800977586759,12.679218148365809
200.0,51472.841988477776,18336.153962088854,0.5168808891508443,12.47746309290937
201.0,52634.26254785505,19692.672946405168,0.5123455979052224,12.282601852316617
202.0,53646.21466217021,21153.377546773114,0.5078762586757637,12.094424462707035
203.0,54522.94871565248,22705.36305179049,0.5034748369660208,11.912729039346365
204.0,55277.70885317812,24330.54582820621,0.49914322838276315,11.73732151493532
205.0,55924.47218366729,26004.192772784412,0.4948832605189057,11.568015460235527
206.0,56477.81531363375,27694.07055407484,0.4906966910052002,11.404631712136881
207.0,56942.05935112192,29372.95481359201,0.48658520777938685,11.246998183695407
208.0,57309.93104792879,31023.963950532496,0.48255042976764456,11.09494957882754
209.0,57566.268020981544,32640.61589663377,0.4785939061135128,10.9483271762059
210.0,57693.30747946256,34224.017446762016,0.47471711855483606,10.806978616767504
211.0,57675.36545015747,35779.10714533275,0.4709214795436557,10.67075762875077
212.0,57502.141848137166,37311.11449103504,0.4672083329655304,10.539523827024771
213.0,57170.325252290364,38822.89973802658,0.4635789555031074,10.413142432969297
214.0,56684.580711124065,40312.49034730904,0.4600345618264608,10.291484479420731
215.0,56055.525278042514,41773.63806954942,0.4565762972113565,10.174425942369385
216.0,55299.10568707098,43195.3231539616,0.45320524272307583,10.061848043696465
217.0,54434.480753281256,44562.90178214524,0.4499224170535893,9.953636933024846
218.0,53480.728612677776,45861.07701309968,0.446728776984852,9.849683526083238
219.0,52454.42599273407,47076.59144514743,0.4436252186720992,9.749883341909609
220.0,51368.760769550885,48199.69098254657,0.44061257900203377,9.654136347146025
221.0,50233.85313497232,49224.38868933203,0.4376916370007109,9.562346809992416
222.0,49057.676365941006,50147.923613275576,0.43486311517246196,9.4744231529472
223.0,47847.111542016406,50969.840349655125,0.43212768112014893,9.39027780311329
224.0,46608.966441826386,51690.985751357424,0.42948594894287173,9.309827104586896
225.0,45350.39670625558,52312.76478353775,0.4269384810791396,9.232991136857219
226.0,44079.17407694874,52836.60509330712,0.42448578980522667,9.15969361431479
227.0,42803.60311420555,53263.72783714979,0.4221283388330745,9.089861772094261
228.0,41532.13418716156,53595.28845156875,0.4198665446032679,9.023426274654952
229.0,40272.76165862976,53832.715539328055,0.4177007778142734,8.960321101043375
230.0,39032.66594186659,53977.99280226516,0.4156313653273712,8.900483431465615
231.0,37818.01746876414,54033.82077581861,0.41365859169817637,8.843853552204372
232.0,36633.93462942453,54003.64869108307,0.41178270065487615,8.79037476459677
233.0,35484.576332816156,53891.595525560806,0.410003896464751,8.739993300412337
234.0,34373.25386324312,53702.31075013685,0.4083223452680036,8.692658245349854
235.0,33302.63331147727,53440.799919772486,0.40673817594592937,8.6483214825467
236.0,32274.759179053224,53112.27985225184,0.4052514827294781,8.606937558312548
237.0,31291.184108251116,52722.05836798816,0.40386232646577286,8.568463614043424
238.0,30353.373833976424,52275.40324376357,0.40257073321859516,8.532859362823663
239.0,29462.166268450324,51777.56850788441,0.4013766978197986,8.50008705280182
240.0,28618.087952156406,51233.728398652616,0.4002801858561265,8.470111268066338
241.0,27821.578467565,50648.92910298355,0.3992811315428138,8.442898956185367
242.0,27072.678617772963,50028.10515610081,0.39837943986823027,8.418419450921263
243.0,26371.154153609925,49376.05523553956,0.39757498942699654,8.396644267151526
244.0,25716.725605197273,48697.40076668768,0.39686763074529513,8.377547074326111
245.0,25108.96760361871,47996.571312702974,0.39625718608658217,8.361103778794426
246.0,24547.24577613051,47277.80757163032,0.39574345346069945,8.347292351081382
247.0,24030.936482643046,46545.13353341474,0.39532620527807166,8.336092750705717
248.0,23559.462247723422,45802.3372014617,0.39500518623538133,8.327487011267277
