Time,J,A,S,tau
0.0,100.0,100.0,0.8686701531886979,2.092050209205021
1.0,89.78716972451826,88.63438967927038,0.8478636960679221,1.8513581642337846
2.0,80.6164857130307,78.55948745251489,0.8338716644580692,1.686140901541279
3.0,72.38504026573735,69.63204880920468,0.833886779461606,1.6862806184509667
4.0,64.9993540501474,61.72259148718137,0.8339132924963831,1.6865257515746785
5.0,58.37804393374327,54.71654241782676,0.8339511889482892,1.6868762601665572
6.0,52.45320712792876,48.51366817907333,0.8340004489027555,1.6873320948735355
7.0,47.1720564259511,43.02853142563651,0.8340610471632285,1.687893197700599
8.0,42.49745185459781,38.1921837110932,0.8341329532698167,1.6885595019603867
9.0,38.405224968476944,33.95471484681993,0.8342161315223754,1.6893309322112622
10.0,34.87619293253806,30.28726935992389,0.834310541022465,1.6902074042064683
11.0,31.882595794497494,27.181579243912957,0.8344161356643822,1.6911888247128903
12.0,29.37066838811916,24.64310872894864,0.834532864232055,1.6922750915571996
13.0,27.24992798227418,22.67722822329148,0.8346606703919682,1.693466093418804
14.0,25.40050681866258,21.269190807827744,0.8347994927570663,1.6947617097441068
15.0,23.70236156303177,20.36603515112699,0.834949264925419,1.6961618105924348
16.0,22.07136984628265,19.871997435543463,0.8351099155331413,1.6976662565001623
17.0,20.478223811615763,19.664072235013062,0.8352813683101875,1.6992748983272898
18.0,18.938595784103256,19.620753936894676,0.8354635421355573,1.70098757708604
19.0,17.48617985694935,19.64762324143391,0.8356563510983761,1.7028041237608227
20.0,16.148915185829495,19.68751974574916,0.8358597045654031,1.7047243591319357
21.0,14.93900405353831,19.715495531587536,0.8360735072489188,1.7067480935747528
22.0,13.854373805549121,19.72671900964187,0.8362976592617644,1.7088751268115083
23.0,12.884722288558557,19.725132694690608,0.8365320561983008,1.711105247688405
24.0,12.016940377230775,19.716426976583318,0.8367765892411659,1.7134382340661845
25.0,11.238343981251012,19.704951662230595,0.8370311451927528,1.7158738524387414
26.0,10.537977720893542,19.69311341777112,0.8372956065913743,1.718411857763975
27.0,9.906753172516982,19.681824371544653,0.8375698517811209,1.7210519931880042
28.0,9.337135060873129,19.671171412676227,0.8378537549999283,1.7237939897628811
29.0,8.822716114830035,19.660931331841873,0.8381471864818762,1.726637566228028
30.0,8.357904229312307,19.650857373111307,0.8384500125248048,1.7295824286435728
31.0,7.937710472248366,19.640789126633386,0.8387620956103612,1.7326282701892024
32.0,7.557636793251683,19.630662968065785,0.8390832944924848,1.7357747708487299
33.0,7.2136165646898105,19.620483904635183,0.8394134642863269,1.7390215970750593
34.0,6.901981307196596,19.61029263542859,0.8397524565751554,1.7423684014997733
35.0,6.619427303325659,19.600142404933344,0.8401001195214208,1.7458148226679264
36.0,6.362991295250375,19.590086805453918,0.8404562979596147,1.749360484670874
37.0,6.130016192703706,19.58017552929079,0.8408208335078137,1.7530049968616979
38.0,5.918123619704156,19.57045434186918,0.8411935646695987,1.7567479535032973
39.0,5.725184515665748,19.560966587363833,0.8415743269432339,1.760588933443921
40.0,5.549293966461041,19.551754714840783,0.8419629529353703,1.7645274998080998
41.0,5.388743980680823,19.54286127804434,0.842359272471994,1.7685631996802766
42.0,5.2420051166130905,19.534329444268533,0.8427631127011448,1.7726955637109891
43.0,5.107707154682038,19.526203117919398,0.8431742982156218,1.776924105849825
44.0,4.98462090513569,19.518526847233595,0.8435926511631479,1.7812483230045344
45.0,4.871645107209527,19.51134572224887,0.8440179913507772,1.7856676946293781
46.0,4.767793152807301,19.504705265385287,0.8444501363739325,1.7901816825118273
47.0,4.672178555113143,19.498651226092203,0.8448889017206053,1.794789730373105
48.0,4.584009629101288,19.493229717737123,0.8453341008919337,1.7994912635855713
49.0,4.502574836609342,19.48848696166989,0.8457855455097094,1.8042856887958079
50.0,4.427238788315732,19.484469445751824,0.846243045420011,1.8091723934367594
51.0,4.3574280687941505,19.481223514228915,0.8467064088371504,1.8141507457664794
52.0,4.292625670099617,19.478795295696223,0.8471754424471732,1.8192200944886663
53.0,4.232378230822964,19.477231766106332,0.8476499515180245,1.8243797683544989
54.0,4.1762730222322455,19.47657932293729,0.8481297399840472,1.8296290754362803
55.0,4.1239342633461975,19.47688365915268,0.8486146105975925,1.8349673033846692
56.0,4.075031325996956,19.4781910908713,0.8491043650731027,1.8403937200244043
57.0,4.0292763236265765,19.480548474753363,0.8495988040671999,1.8459075698911769
58.0,3.9863819109622707,19.48399942680648,0.8500977274534496,1.851508078463485
59.0,3.9461454790594486,19.488593270463113,0.850600934312119,1.8571944472648563
60.0,3.9083305994070034,19.494372986461787,0.8511082231099245,1.8629658582160802
61.0,3.8727302600529345,19.50138124147824,0.8516193917375467,1.8688214696917902
62.0,3.839197238095295,19.509664951860756,0.8521342376948964,1.874760417709224
63.0,3.8075572413567933,19.519265916698085,0.8526525581249212,1.88078181655684
64.0,3.7776631990258474,19.53022626579959,0.8531741499451769,1.886884756382298
65.0,3.7494208452595967,19.54259257342515,0.8536988099992086,1.8930683051935606
66.0,3.7226987503432305,19.55640509812563,0.8542263350558988,1.8993315077439
67.0,3.6973962145152006,19.571705020851994,0.8547565219797815,1.9056733851771537
68.0,3.6734002015477767,19.58852995341556,0.8552891677608304,1.912092936306689
69.0,3.6506531644111146,19.606922769384102,0.8558240697760158,1.9185891324148487
70.0,3.6291030574957195,19.626926097362226,0.8563610256972387,1.9251609255835644
71.0,3.608658356858522,19.648575753363005,0.8568998336269635,1.931807241461168
72.0,3.5892607002991572,19.67190859270688,0.8574402922370208,1.9385269820909399
73.0,3.5708558645900985,19.69696084106437,0.8579822008322083,1.9453190252679988
74.0,3.5533969535682424,19.72376841361529,0.8585253594453037,1.9521822244030664
75.0,3.5368407244156166,19.752366306208376,0.8590695689126172,1.9591154085802087
76.0,3.521146667732615,19.782788326347006,0.8596146309582626,1.966117382398752
77.0,3.5062792788126056,19.815067345807645,0.8601603482857607,1.9731869257843653
78.0,3.492206379136875,19.849235156248795,0.8607065246477039,1.9803227941277324
79.0,3.4788980900549875,19.885322316253998,0.861252964931757,1.9875237180228573
80.0,3.466328209874768,19.92335835512735,0.8617994752350793,1.9947884033368724
81.0,3.45447171522852,19.96337144967256,0.8623458629393168,2.0021155310759653
82.0,3.443306824645203,20.00538870244223,0.8628919367881208,2.0095037573501084
83.0,3.432810746886306,20.049435567942805,0.8634375069504058,2.0169517133274644
84.0,3.422967110098668,20.09553684895784,0.8639823851133723,2.024458005079442
85.0,3.4137593492444207,20.143715843455478,0.8645263845331891,2.0320212136152036
86.0,3.405170072423759,20.19399416722594,0.865069320107137,2.039639894720164
87.0,3.3971843852397825,20.24639215328492,0.865611008446126,2.04731257890267
88.0,3.389788485334311,20.300928700765944,0.8661512679388509,2.0550377712853813
89.0,3.3829689489658863,20.357621176865802,0.8666899188156276,2.0628139514858432
90.0,3.3767128286222805,20.416485386393415,0.8672267832180692,2.0706395734117113
91.0,3.3710082616933716,20.47753562231583,0.8677616852639134,2.0785130651080466
92.0,3.365843950819223,20.54078457002017,0.8682944511062298,2.0864328286019984
93.0,3.361209004775605,20.6062432519064,0.8688249089957664,2.094397239677613
94.0,3.357092534187947,20.673920940421485,0.8693528893425978,2.1024046476119445
95.0,3.3534837548829057,20.743825133362193,0.8698782247839398,2.1104533748119314
96.0,3.350372584256783,20.81596159728916,0.8704007502440316,2.1185417165179286
97.0,3.347749079172015,20.890334258990126,0.8709203029913059,2.126667940454725
98.0,3.3456033462152894,20.966945155210805,0.8714367226988892,2.1348302864066437
99.0,3.3439251761999125,21.045794345332826,0.8719498515062558,2.1430269657196273
100.0,3.3427043780652417,21.126879909005684,0.8724595340860867,2.151256160709961
101.0,3.3419310856778353,21.210197947601376,0.8729656177013971,2.159516024125652
102.0,3.3415953161460963,21.295742485190324,0.8734679522643349,2.167804678506587
103.0,3.341686918241337,21.383505419241246,0.8739663903963925,2.176120215477859
104.0,3.342195612534368,21.4734764813619,0.8744607874913602,2.1844606949499683
105.0,3.343110528209045,21.565643131955422,0.8749510017769673,2.1928241442538168
106.0,3.3444210492739876,21.659990623148694,0.8754368943803493,2.2012085571982296
107.0,3.346116274066214,21.756501885921896,0.8759183293857489,2.209611893108688
108.0,3.3481851117235433,21.855157500135647,0.8763951738951765,2.218032075779911
109.0,3.350616205823696,21.955935637599566,0.8768672980933805,2.2264669922998856
110.0,3.3533978415287042,22.05881200824709,0.8773345753066221,2.2349144918759563
111.0,3.3565181652433473,22.163759842091423,0.8777968820700076,2.243372384491922
112.0,3.3599647878376606,22.27074979774442,0.8782540981842222,2.2518384396072753
113.0,3.3637253265478573,22.37974998725462,0.8787061067840692,2.2603103846618815
114.0,3.3677866910057848,22.490725846709672,0.8791527943933262,2.2687859036517466
115.0,3.3721359504060215,22.603640204168926,0.8795940509936373,2.277262635496217
116.0,3.3767593038503936,22.718453114650835,0.8800297700767614,2.285738172510669
117.0,3.3816432616520893,22.835121968692874,0.8804598487143079,2.2942100586376557
118.0,3.386773321869169,22.953601297500217,0.8808841876047758,2.3026757878690995
119.0,3.392135403937206,23.07384291178859,0.8813026911471623,2.311132802308799
120.0,3.39771435015044,23.195795696362378,0.8817152674774381,2.3195784906462897
121.0,3.403495344305073,23.319405742432707,0.8821218285511564,2.328010185981641
122.0,3.40946281857942,23.4446162044949,0.8825222901663168,2.336425164437592
123.0,3.415600853611624,23.571367326793183,0.8829165720305856,2.3448206431216545
124.0,3.421893320828676,23.699596439778805,0.8833045977951793,2.35319377856587
125.0,3.428323933215386,23.82923795446385,0.8836862951071367,2.361541664870596
126.0,3.4348760377713763,23.960223320236672,0.8840615956565675,2.3698613319056108
127.0,3.441532804235749,24.092481039994137,0.8844304352171352,2.3781497436284753
128.0,3.448276682488234,24.22593661831258,0.8847927536577203,2.3864037968966634
129.0,3.4550901228983926,24.360512643679428,0.8851484949875464,2.3946203197665006
130.0,3.461955248129971,24.49612876377153,0.8854976073644484,2.4027960704423093
131.0,3.468853996749813,24.63270170991598,0.8858400431272591,2.4109277358699512
132.0,3.475768119264659,24.7701453208407,0.8861757587947073,2.419011930970851
133.0,3.482679135425353,24.908370556586537,0.8865047150805461,2.4270451976769807
134.0,3.489568449874705,25.04728554778442,0.8868268768831843,2.435024004503422
135.0,3.496417269666021,25.186795617541026,0.8871422132826602,2.442944746108006
136.0,3.503206731521903,25.326803343775868,0.8874506975185229,2.450803743305935
137.0,3.509917843235159,25.46720859744864,0.8877523069689482,2.4585972432142746
138.0,3.51653159169436,25.607908615906556,0.8880470231123498,2.4663214198512846
139.0,3.5230288851169176,25.748798053538522,0.8883348314905348,2.4739723749044815
140.0,3.5293906696036363,25.8897690705551,0.8886157216510356,2.4815461390288642
141.0,3.5355979114619625,26.03071140215206,0.8888896870925838,2.4890386733271583
142.0,3.541631662557916,26.171512455878517,0.8891567251876429,2.4964458714297426
143.0,3.54747307715287,26.312057400075005,0.889416837107841,2.503763561780989
144.0,3.5531034659824825,26.45222927308813,0.8896700277269437,2.510987510560208
145.0,3.558504306004246,26.59190908725254,0.889916305524229,2.5181134248607417
146.0,3.5636573697221468,26.73097595871211,0.8901556824701315,2.525136956471341
147.0,3.568544690595425,26.869307220684856,0.8903881739112092,2.5320537059431216
148.0,3.57315082447113,27.006778864205895,0.890613798317828,2.5388592289262903
149.0,3.5774685838730833,27.1432662553316,0.8908325773024705,2.5455490402705148
150.0,3.5814638237662537,27.278639980518296,0.8910445361644136,2.5521186074365363
151.0,3.5851139982482403,27.412771214080305,0.8912497016349978,2.5585633842853737
152.0,3.5884145187180105,27.54553149508939,0.891448103919598,2.564878794625323
153.0,3.591363721456263,27.67679229366716,0.8916397752450901,2.571060247673776
154.0,3.593941376343618,27.80642206954121,0.8918247507953211,2.577103143420024
155.0,3.5961051203277323,27.934286260767944,0.8920030670746066,2.58300287956697
156.0,3.597856450127334,28.060254549279538,0.8921747625315154,2.588754864279383
157.0,3.599194990332235,28.184196218394547,0.8923398773906697,2.594354519963442
158.0,3.6001231786556795,28.30598137002126,0.8924984533390841,2.5997972991832414
159.0,3.600592295430391,28.4254743558601,0.8926505332176343,2.605078693356217
160.0,3.6005917170685184,28.5425439055576,0.8927961605437907,2.6101942246083265
161.0,3.6001312049623686,28.65706142998226,0.8929353798644325,2.6151394810716484
162.0,3.599228374384716,28.768900602186317,0.8930682361772916,2.6199101079799156
163.0,3.597843351306796,28.877930025569455,0.8931947745455391,2.624501858728156
164.0,3.5959596604521553,28.984021181632333,0.8933150401538732,2.6289105182507004
165.0,3.593608038890422,29.087052938920202,0.893429077937305,2.633132021092403
166.0,3.5907363366021414,29.18689638341637,0.8935369321669338,2.6371623927298424
167.0,3.5873868827606743,29.283434909075034,0.8936386469063139,2.6409977454388023
168.0,3.58353552699097,29.376547735453165,0.893734264462496,2.6446343993299304
169.0,3.579166629782726,29.466115903803455,0.8938238267922494,2.6480687212579417
170.0,3.5743241852133774,29.55203131254074,0.8939073739356994,2.651297304229212
171.0,3.5689544116493312,29.634177012090365,0.8939849441778935,2.6543168837320064
172.0,3.563109883531318,29.712450643908326,0.8940565748986794,2.6571243134969493
173.0,3.556772387834533,29.786746904802087,0.8941222999498626,2.659716739692472
174.0,3.549927362772399,29.856962162652238,0.894182152445185,2.6620913732062053
175.0,3.542631881864796,29.923006766365603,0.8942361622137767,2.6642457160988595
176.0,3.5348323042263745,29.98478165150529,0.8942843563515234,2.6661774611736924
177.0,3.526589934935571,30.042204211133427,0.8943267605434485,2.6678844424920145
178.0,3.5178936387356443,30.095190410972982,0.8943633955616725,2.6693648556377516
179.0,3.508729933390496,30.143657587121854,0.8943942811263752,2.670616975890752
180.0,3.499167693265805,30.18753988315005,0.8944194327769043,2.671639413744188
181.0,3.489154749332713,30.22676170076459,0.8944388625990642,2.672431008049857
182.0,3.4787590173847924,30.261265237649077,0.8944525810056823,2.6729907504163513
183.0,3.4679768827634017,30.290992863774886,0.8944605927009361,2.6733180366626526
184.0,3.4567956558440445,30.315887870509908,0.8944629011410479,2.6734123520123263
185.0,3.445293949149626,30.33591268495473,0.8944595052896435,2.6732735333634126
186.0,3.433422001210595,30.35101986265206,0.8944504003190967,2.6729016664315615
187.0,3.4212517559737945,30.36118049696092,0.8944355797272475,2.672296988380958
188.0,3.4087868964227153,30.366367375616946,0.8944150312266109,2.6714601496022436
189.0,3.396015010118641,30.36655362969036,0.8943887412367781,2.6703918926241075
190.0,3.3830217071282203,30.36173318808465,0.8943566919872036,2.66909329830916
191.0,3.3697602080204883,30.351890136603885,0.8943188620401681,2.6675656954789466
192.0,3.3563035828830596,30.337027200050972,0.8942752285222586,2.665810551052476
193.0,3.342662004050414,30.317150089346775,0.8942257634464654,2.6638297186144473
194.0,3.328822701233752,30.29226417806909,0.8941704376548613,2.6616251388940078
195.0,3.3148750373957667,30.262396496531345,0.8941092186563653,2.659199050487753
196.0,3.3007755315382954,30.227564380587395,0.8940420708941169,2.6565539170415926
197.0,3.286595363270029,30.18780324991211,0.8939689578024045,2.653692317500267
198.0,3.2723499458917193,30.143152443279885,0.8938898390423178,2.650617159347593
199.0,3.258025559208965,30.093650216143374,0.893804673387879,2.647331424908921
200.0,3.243711792875489,30.039356444084827,0.8937134175542912,2.6438383337171194
201.0,3.2293686688644394,29.980321553041705,0.893616026215808,2.6401412883788327
202.0,3.2150625806036692,29.916612857647067,0.8935124535792635,2.636243778349563
203.0,3.200812666309844,29.84830207650254,0.8934026519128109,2.632149540982263
204.0,3.1866038862313832,29.77545908449226,0.8932865730170548,2.627862370408439
205.0,3.1725224800050964,29.698174404552926,0.893164168138486,2.623386226680435
206.0,3.158532214635624,29.616529448344654,0.8930353878164369,2.618725197971917
207.0,3.144692149979159,29.53062073056339,0.8929001826989319,2.613883429354713
208.0,3.1310235258185672,29.44054916331037,0.8927585035883732,2.60886522267523
209.0,3.117509994070765,29.346413105685535,0.892610301331645,2.6036749151218324
210.0,3.104231021444986,29.248329671079507,0.8924555277560372,2.5983169379725455
211.0,3.0911541899091577,29.146407286341223,0.8922941354743272,2.5927957906046286
212.0,3.07829922368908,29.040764058042086,0.8921260779004212,2.5871160043194132
213.0,3.065710672962033,28.93152647402518,0.8919513101183616,2.5812821670862034
214.0,3.053406871353445,28.81882220432449,0.8917697886793771,2.575298894634001
215.0,3.041404818958785,28.702783004856492,0.8915814719369124,2.56917082474629
216.0,3.029721410229801,28.58354382505644,0.8913863202704488,2.5629026080841655
217.0,3.01837281204598,28.46124291219293,0.8911842962993015,2.556498899348837
218.0,3.007374497488021,28.336021523995672,0.890975365086805,2.5499643488946404
219.0,2.9967411492817146,28.20802369097491,0.8907594943393716,2.5433035947726195
220.0,2.986486675256733,28.077395937452742,0.8905366545911771,2.5365212552756566
221.0,2.976624115849275,27.94428698325613,0.8903068193844242,2.529621921920295
222.0,2.9671657375176426,27.80884745534634,0.8900699654341218,2.5226101529810228
223.0,2.958122935108051,27.671229572582153,0.8898260727869138,2.5154904674649066
224.0,2.9495063796196392,27.531586858485138,0.889575124967298,2.508267339623332
225.0,2.9413257812776523,27.390073803722093,0.8893171091144794,2.5009451939091245
226.0,2.9335900539285977,27.246845580438972,0.8890520161051739,2.493528400510769
227.0,2.9263072778254062,27.102057732117963,0.8887798406660296,2.486021271355071
228.0,2.919484739324822,26.955865877125923,0.8885005814766376,2.478428056572307
229.0,2.9131289374810816,26.80842541065278,0.8882142412597807,2.4707529414551197
230.0,2.907245598271989,26.659891212649534,0.8879208268628663,2.4630000438388717
231.0,2.9018397202936126,26.510417364189145,0.8876203493274242,2.4551734119435986
232.0,2.8969155640942947,26.360156861893813,0.8873128239532179,2.4472770225419223
233.0,2.8924766316996844,26.209261340143314,0.8869982703470538,2.4393147796067334
234.0,2.8885257372070288,26.057880811931284,0.8866767124602942,2.4312905133742824
235.0,2.8850650328111414,25.906163412975364,0.8863481786194101,2.4232079797120654
236.0,2.8820960355953416,25.754255155025177,0.8860127015484356,2.4150708597981514
237.0,2.879619652783286,25.602299689402287,0.8856703183818068,2.4068827601212988
238.0,2.8776362092699594,25.45043808122575,0.8853210706707061,2.3986472127304004
239.0,2.876145435330287,25.29880858758918,0.8849650043816744,2.390367675740395
240.0,2.8751465527948907,25.14754646503505,0.884602169889716,2.3820475340339597
241.0,2.874638287267231,24.996783778429247,0.8842326219586919,2.3736901002736435
242.0,2.8746189087564202,24.84664922821886,0.8838564197179276,2.365298616047359
243.0,2.8750862551317007,24.697267985514166,0.8834736266358658,2.3568762531255256
244.0,2.876037752178503,24.548761544401035,0.8830843104844123,2.34842611491462
245.0,2.8774704776364723,24.401247590435407,0.882688543303835,2.3399512379386276
246.0,2.8793811210367877,24.25483987259201,0.8822864013566736,2.3314545935131767
247.0,2.881766126671683,24.109648112403455,0.8818779650849875,2.322939089381866
248.0,2.8846215515305453,23.965777888923466,0.8814633190562378,2.314407571520258
249.0,2.887943310959311,23.823330593053193,0.881042551913629,2.305862825868957
