Time,J,A,S,tau
0.0,100.0,100.0,0.5852739774417709,17.990339697152102
1.0,96.98527468558989,93.13450789653636,0.5854548338633268,17.95144189002469
2.0,94.05720953490807,86.73113513156979,0.585642469631071,17.91111851742382
3.0,91.21479639124648,80.76223268905524,0.5858367226260707,17.869406944204346
4.0,88.45564030989236,75.19877808205193,0.5860375540285578,17.82631806230144
5.0,85.77741494678992,70.01364638960781,0.5862449228941012,17.78186321353777
6.0,83.17786938262488,65.18149697485795,0.5864587861500293,17.736054187187253
7.0,80.65484499040348,60.678658194550074,0.5866790985918049,17.688903217548308
8.0,78.20631229834437,56.48301942633221,0.5869058128802099,17.640422981329923
9.0,75.83044301554378,52.57392971327113,0.5871388795393856,17.590626594845222
10.0,73.52573845576141,48.93210186636298,0.5873782469556629,17.539527611031673
11.0,71.2912415211183,45.53952723093574,0.5876238613768066,17.4871400163632
12.0,69.12685893194147,42.379391089482745,0.5878756669130707,17.433478227396684
13.0,67.03381604204765,39.43599449797225,0.5881336055388151,17.378557087200157
14.0,65.01525165040694,36.69468156535838,0.5883976170949755,17.32239186160637
15.0,63.076936451910115,34.14177138541008,0.5886676392924824,17.264998235277467
16.0,61.22806844553674,31.764494328500938,0.5889436077166473,17.206392307580952
17.0,59.48210367191512,29.550946856103927,0.5892254558257113,17.14659058954786
18.0,57.857349234089675,27.48999960012335,0.5893485784297267,17.12075491741085
19.0,56.377457201654636,25.571251980783575,0.5894497340114225,17.0996310406435
20.0,55.07165009728557,23.78503278205963,0.5895495961477194,17.07879952564447
21.0,53.97431687403906,22.122311240520542,0.5896481361450422,17.05826547087502
22.0,53.12424152475077,20.57466474169973,0.5897453257564997,17.038033869729738
23.0,52.563324762409415,19.13424214496107,0.5898411371892062,17.018109610334186
24.0,52.334875488319085,17.793739070668398,0.589935543112656,16.99849747510698
25.0,52.48160711885481,16.546391737259523,0.5900285166653414,16.979202140726155
26.0,53.04336253077932,15.385984264675793,0.5901200314604812,16.960228178281486
27.0,54.054769368648664,14.306897325386197,0.5902100615924907,16.94158005324747
28.0,55.542845065894944,13.304207084719627,0.5902985816437993,16.9232621253772
29.0,57.52473195092935,12.373860240540195,0.5903855666917855,16.90527864857238
30.0,60.00554759110981,11.512925469075563,0.590470992314125,16.88763377108318
31.0,62.97614756536373,10.719924952692187,0.5905548345956738,16.870331535385212
32.0,66.41188836536497,9.995243074216102,0.590637070130858,16.85337587892308
33.0,70.2692984845181,9.341486044196834,0.5907176760318871,16.836770633746912
34.0,74.48622491051098,8.763937034584298,0.5907966299326661,16.82051952690455
35.0,78.98107233338708,8.270827010366673,0.5908739099933046,16.80462618075708
36.0,83.65382924537465,7.873495864448325,0.5909494949077398,16.78909411264973
37.0,88.38808785597664,7.586263793784488,0.591023363904711,16.773926735883272
38.0,93.05360981038429,7.426088682793642,0.5910954967550284,16.75912735942661
39.0,97.50755797535525,7.411883377057973,0.591165873774067,16.744699188551593
40.0,101.59396475256216,7.563603372268294,0.5912344758266596,16.73064532497683
41.0,105.14170684080179,7.901105747305073,0.591301284330735,16.716968767237713
42.0,107.96498253810098,8.442879928345208,0.591366281261021,16.703672411023057
43.0,109.87211478110555,9.204736611842426,0.5914294491524885,16.690759049539
44.0,110.68683912710766,10.198540879286043,0.5914907711038858,16.678231373836013
45.0,110.27922895035061,11.431063280492031,0.5915502307797087,16.66609197339479
46.0,108.59680098224362,12.902940346081225,0.5916078124166476,16.654343335890868
47.0,105.67978597644242,14.607863878155174,0.591663500821955,16.64298784836855
48.0,101.65474636745654,16.531776833943375,0.5917172813788097,16.632027797173684
49.0,96.70817183792943,18.65236212109432,0.5917691400471966,16.62146536861689
50.0,91.05155618712237,20.9387167886339,0.5918190633676905,16.611302649130188
51.0,84.89102364446767,23.35144718342572,0.591867038462731,16.60154162582512
52.0,78.40918473663021,25.843331753583755,0.5919130530385333,16.592184186914928
53.0,71.75949802266177,28.3605914181644,0.5919570953868518,16.58323212213476
54.0,65.06916219105095,30.844496670136834,0.5919991543868381,16.574687123119666
55.0,58.446096952080076,33.232610091210454,0.5920392195064984,16.566550783825342
56.0,51.987123856857586,35.45882432902528,0.5920772808036607,16.55882460099999
57.0,45.78588573008271,37.45196351478399,0.5921133289270704,16.55150997460561
58.0,39.938931767771024,39.13428211169137,0.5921473551173753,16.54460820822917
59.0,34.54718905755438,40.4229480229014,0.5921793512082505,16.53812050944299
60.0,29.7097378899482,41.23791730466921,0.5922093096267812,16.532047990259176
61.0,25.509401563771647,41.51682552170722,0.5922372233937719,16.526391667562176
62.0,21.994490001139386,41.23268413855491,0.5922630861236113,16.5211524635867
63.0,19.16459879169868,40.406656362156454,0.5922868920266383,16.51633120594742
64.0,16.96866085617903,39.1084761946545,0.5923086359060534,16.511928628549864
65.0,15.316482372536642,37.44364793689639,0.5923283131593767,16.507945371707542
66.0,14.099555217906618,35.53235264397713,0.5923459197784681,16.504381982470246
67.0,13.212788687341558,33.48855737289492,0.5923614523482751,16.501238915125253
68.0,12.570375541801663,31.40585566835017,0.5923749080469032,16.49851653145821
69.0,12.113263549492817,29.352110867917734,0.5923862846443231,16.496215101195286
70.0,11.80962125918157,27.37100688474486,0.5923955805016803,16.494334802325767
71.0,11.651269993806864,25.487190650969655,0.5924027945703785,16.492875721415214
72.0,11.648795537506375,23.712088851327678,0.5924079263921106,16.491837853747846
73.0,11.82670428841065,22.048835596475726,0.5924109760947656,16.4912211040972
74.0,12.219409287690096,20.4957528141361,0.5924119443931365,16.49102528669453
75.0,12.867732683839069,19.048616464840897,0.592410832586833,16.491250125607213
76.0,13.81576037413178,17.702004653474596,0.5924076425585614,16.49189525503426
77.0,15.10786897148867,16.450074106544058,0.5924023767722936,16.492960219586358
78.0,16.78585080382498,15.287006294095956,0.5923950382713059,16.49444447455589
79.0,18.88615023735519,14.20728387071185,0.5923856306760529,16.49634738618308
80.0,21.437262149907824,13.205902362942396,0.5923741581817419,16.498668231939696
81.0,24.457382064264053,12.278594689586551,0.5923606255563891,16.501406200701073
82.0,27.95211010261907,11.422106405483982,0.5923450381378557,16.504560393067635
83.0,31.912685535371246,10.634588362317908,0.5923274018336794,16.508129821165156
84.0,36.31379974071468,9.91601451287789,0.5923077231144829,16.512113409509062
85.0,41.112095663559096,9.26866889475577,0.5922860090121393,16.51650999503375
86.0,46.244987879045446,8.697591299767085,0.5922622671191449,16.521318326918824
87.0,51.63060979132234,8.210867393916837,0.5922365055827112,16.526537067212967
88.0,57.1688878383109,7.819745615917539,0.5922087331037522,16.53216479066129
89.0,62.743726048521324,7.538473096723022,0.5921789589327272,16.53819998501323
90.0,68.22566152522415,7.383859888246686,0.5921471928654344,16.544641051301763
91.0,73.47339427262366,7.374568060957529,0.5921134452406168,16.5514863038126
92.0,78.33325209830414,7.530142940270259,0.5920777269359073,16.55873397028906
93.0,82.63722106701985,7.8698504381668934,0.5920400493640738,16.56638219206838
94.0,86.2034089984986,8.411406669215049,0.5920004244691326,16.57442902421364
95.0,88.84465226287509,9.169692076256291,0.5919588647223754,16.582872435635778
96.0,90.38910752184465,10.15553972649725,0.5919153831182385,16.591710309219106
97.0,90.7101761456478,11.374660862970547,0.5918699931700452,16.600940441948286
98.0,89.75567540573537,12.826763078830345,0.5918227089052266,16.61056054509917
99.0,87.56405594802766,14.504879066578498,0.5917735448642255,16.620568243748735
100.0,84.25672770472141,16.39473267856841,0.5917225160910262,16.63096107777941
101.0,80.01402972390505,18.4744294803642,0.5916696381308321,16.64173650155076
102.0,75.0419456808634,20.714245216501322,0.5916149270258597,16.652891883917302
103.0,69.54275268217769,23.07677727283031,0.5915583993100364,16.66442450840843
104.0,63.696866558418485,25.51757290017798,0.5915000720042308,16.676331573299077
105.0,57.65649743605559,27.986306678858973,0.5914399626112333,16.688610191707102
106.0,51.5476418890629,30.42827730625387,0.5913780891106305,16.70125739169263
107.0,45.476239048123745,32.78563566804619,0.5913144699536417,16.714270116349034
108.0,39.53571370869684,34.997587731498434,0.5912491240578608,16.7276452238962
109.0,33.814474278746594,36.99926568249889,0.5911820708019083,16.74137948777626
110.0,28.40203361260721,38.720199760697675,0.5911133300200748,16.755469596736575
111.0,23.391512013008445,40.08486378551682,0.5910429219967197,16.769912154947388
112.0,18.875872497887194,41.01824136859455,0.5909708674606011,16.78470368212046
113.0,14.936888336462282,41.45758879735424,0.5908971875793089,16.799840613596295
114.0,11.629573957136499,41.36778368806887,0.5908219039532894,16.81531930050202
115.0,8.96830671035723,40.75420528331546,0.5907450386105381,16.831136009766198
116.0,6.921674612052167,39.666537301354225,0.5906666139997991,16.847286924423486
117.0,5.418895662780751,38.19119924010709,0.5905866529850491,16.863768143658547
118.0,4.3657311277661055,36.43492931793609,0.5905051788393411,16.880575682966963
119.0,3.6636743558285207,34.50604790546259,0.5904222152386301,16.897705474316794
120.0,3.2261389261902718,32.499564497220256,0.5903377862554523,16.91515336633643
121.0,2.988182159378106,30.489256247008935,0.5902519163526561,16.932915124487202
122.0,2.9096267027870653,28.5264206225526,0.5901646303768938,16.95098643128529
123.0,2.9735553878629304,26.642952617575446,0.5900759535521729,16.969362886509202
124.0,3.1825528904779614,24.856150062785588,0.5899859114735618,16.988040007369733
125.0,3.5543538044042076,23.173416180930726,0.5898945301001635,17.007013228845402
126.0,4.1178221413856,21.59598149633916,0.5898018357485888,17.026277903907022
127.0,4.909418132457625,20.121509605019725,0.5897078550862206,17.04582930379107
128.0,5.970053455736514,18.745768752541107,0.5896126151243708,17.0656626183009
129.0,7.342193108924505,17.463645773378047,0.5895161432114129,17.08577295611737
130.0,9.067111271488267,16.269743327060628,0.5894184670257859,17.106155345145655
131.0,11.18229471618631,15.15873553178021,0.5893196145689393,17.126804732882913
132.0,13.719032161959866,14.125599854257876,0.5892196141583278,17.14771598678009
133.0,16.700228557949547,13.165802622138054,0.5891184944201472,17.168883894677435
134.0,20.13841924024566,12.275492897375143,0.5890162842821837,17.190303165219802
135.0,24.034203731823407,11.451761555833118,0.5889130129672048,17.21196842813041
136.0,28.37471554624542,10.692949164347908,0.5888087099844285,17.233874235017442
137.0,33.13204463966211,9.99901905351203,0.588703405122935,17.256015059667316
138.0,38.26248803137463,9.371978388989328,0.5885971284439292,17.278385298663515
139.0,43.70574015738497,8.816239681950147,0.5884899102734179,17.30097927190133
140.0,49.38526088020305,8.338892571035984,0.5883817811944507,17.323791223247657
141.0,55.209346323424896,7.949805792630821,0.5882727720402076,17.346815320953958
142.0,61.07334458033452,7.661506116842242,0.5881629138852023,17.37004565866668
143.0,66.86208316242593,7.488858853176618,0.5880522380389311,17.39347625569134
144.0,72.45124686701874,7.448474275027059,0.5879407760369649,17.417101058083723
145.0,77.70702578976903,7.557945265260867,0.5878285596338402,17.440913939183417
146.0,82.4838059445434,7.8349018482144865,0.5877156207950284,17.464908700464
147.0,86.62244357070713,8.295968056027885,0.587601991689083,17.489079072346833
148.0,89.95355202108261,8.955690076809827,0.5874877046797428,17.513418715048786
149.0,92.31002007496944,9.825507460427048,0.5873727923179616,17.537921219478378
150.0,93.54928652474639,10.912832749723439,0.5872572873338332,17.562580108195515
151.0,93.57999621524225,12.220277196109166,0.5871412226285622,17.587388836380704
152.0,92.383826686227,13.74505982891127,0.5870246312669137,17.61234079259935
153.0,90.02103667603639,15.478569476384052,0.5869075464678596,17.637429300389307
154.0,86.6203087133027,17.406020677659612,0.5867900015977731,17.662647618764815
155.0,82.3543845674921,19.506338807105315,0.5866720301612818,17.68798894375504
156.0,77.41240304190559,21.752135719836247,0.5865536657934918,17.71344640937906
157.0,71.9767978289389,24.10997012865653,0.5864349422516256,17.739013088892115
158.0,66.20950150370471,26.540954006750443,0.5863158934067186,17.764681996044363
159.0,60.24727518044178,29.001755106816145,0.5861965532352759,17.790446086383707
160.0,54.203357608510764,31.44584592801738,0.5860769558109086,17.816298258596476
161.0,48.172327876643244,33.824591436427234,0.5859571352959418,17.84223135589236
162.0,42.23611753711036,36.087597208293225,0.5858371259329898,17.86823816743396
163.0,36.470210372259245,38.18190197076341,0.5857169620365037,17.894311429811214
164.0,30.949357759308572,40.050299072365746,0.5855966779842935,17.920443828556238
165.0,25.75155537428029,41.63017138407349,0.5854763082090173,17.946627999709904
166.0,20.95831454118292,42.85505286656035,0.5853558871896405,17.972856531426572
167.0,16.64953205801785,43.660800922219465,0.5852354494428575,17.9991219656777
168.0,12.893081529047647,43.99630503324487,0.5851150295145353,18.025416799906118
169.0,9.732023571360411,43.83591578104713,0.5849946619710913,18.051733488792618
170.0,7.174384220229216,43.18878216770259,0.5848743813908397,18.078064446053784
171.0,5.1901041577494516,42.10083936129179,0.5847542223553541,18.104402046294148
172.0,3.7168054064695135,40.64815375495207,0.5846342194407942,18.1307386269078
173.0,2.6723708091853964,38.92398022858912,0.5845144072091958,18.15706649000421
174.0,1.9699904844456184,37.024056326237,0.5843948201997504,18.183377904399812
175.0,1.5312264940070837,35.03452186171787,0.5842754929200684,18.20966510765594
176.0,1.294489444095424,33.02484118735627,0.5841564598374226,18.235920308161674
177.0,1.2185519469653299,31.045798817616742,0.5840377553699732,18.26213568726266
178.0,1.2822456795595871,29.131137546388974,0.5839194138779856,18.288303401439784
179.0,1.4819899463564636,27.30099608747654,0.5838014696549884,18.314415584527538
180.0,1.8284868603707256,25.565686835266874,0.5836839569189863,18.34046434999245
181.0,2.343405089112732,23.928961390569654,0.5835669098036169,18.366441793243087
182.0,3.056360063144222,22.390482587281657,0.583450362349289,18.392339993994366
183.0,4.00220551961855,20.947528014103916,0.5833343484943236,18.41815101867478
184.0,5.21855946451037,19.596092316244757,0.5832189020660776,18.443866922878787
185.0,6.743484982508399,18.331570710967686,0.5831040567720669,18.469479753863595
186.0,8.613297767981969,17.14917467687776,0.5829898461910414,18.494981553089335
187.0,10.860511491348012,16.044187832425454,0.582876303764149,18.520364358803334
188.0,13.511955302484472,15.012137069548277,0.5827634627859153,18.545620208665806
189.0,16.587103070785105,14.048929407399791,0.5826513563953757,18.57074114241996
190.0,20.096658335668554,13.150990617547485,0.5825400175675989,18.595719204574188
191.0,24.041227698142364,12.31544428021224,0.5824294791034057,18.62054644722328
192.0,28.410683537597794,11.540348020179549,0.5823197736217096,18.645214932788843
193.0,33.18267036444513,10.824950936927419,0.5822109335499388,18.669716736860714
194.0,38.32231560816775,10.170024441485355,0.5821029911162041,18.69404395097974
195.0,43.781544463306524,9.578194565656718,0.5819959783388284,18.71818868566266
196.0,49.499251260645444,9.054224933414762,0.5818899270181772,18.74214307327837
197.0,55.4017664683637,8.605192241927194,0.5817848687278127,18.76589927099923
198.0,61.40435717442208,8.240550190865575,0.5816808348048992,18.789449463883447
199.0,67.41305162280679,7.971993330463232,0.5815778563422423,18.81278586778872
200.0,73.32650516592933,7.813169180771925,0.581475964178632,18.835900732524728
201.0,79.0368373909813,7.779198689274651,0.581375188889973,18.858786344946054
202.0,84.42868521380387,7.8860382757537595,0.5812755607808582,18.881435031998063
203.0,89.37667159553106,8.149723224062145,0.581177109875214,18.90383916392657
204.0,93.7428865165903,8.585516266900475,0.5810798659073004,18.925991157470605
205.0,97.3779602816804,9.207041479587174,0.5809838583134195,18.94788347895632
206.0,100.1290966288191,10.025447071273886,0.5808891162227054,18.96950864756222
207.0,101.8562871264851,11.048630779479419,0.5807956684479625,18.990859238611304
208.0,102.4539319795508,12.280596132953102,0.5807035434777523,19.011927886652796
209.0,101.87163014593234,13.720939290779738,0.5806127694671814,19.03270728879221
210.0,100.12698868580243,15.364494718944453,0.5805233742263888,19.053190208502976
211.0,97.3021739977685,17.201060135172273,0.5804353852181333,19.073369477683045
212.0,93.53138122139408,19.215258854209978,0.580348829542997,19.09323800113374
213.0,88.97844569257174,21.386527118336385,0.580263733933875,19.112788759236338
214.0,83.81489439619828,23.689211184201067,0.580180124746484,19.13201481141959
215.0,78.20282505314039,26.092838261995382,0.5800980279501748,19.15090929959677
216.0,72.28531798938398,28.562679521683517,0.5800174691204334,19.169465451242836
217.0,66.18349010689246,31.060581440487628,0.5799384734298949,19.1876765827933
218.0,59.99807556114815,33.54599175047237,0.5798610656392227,19.20553610309288
219.0,53.81337643823286,35.97689699038548,0.5797852700898095,19.223037516432687
220.0,47.70199422431024,38.31019376608561,0.5797111106948529,19.24017442595248
221.0,41.729876790703116,40.50109327339794,0.5796386109304185,19.25694053706018
222.0,35.96133681779949,42.50154633122076,0.5795677938283632,19.273329660408372
223.0,30.46335421440594,44.258398510054484,0.5794986819673721,19.28933571531012
224.0,25.307814942143697,45.71288633965769,0.5794312974647283,19.304952732985225
225.0,20.56995447542614,46.803311701217766,0.579365661968762,19.32017485963059
226.0,16.322044211185727,47.471921995979095,0.5793017966504618,19.3349963596878
227.0,12.62314096476301,47.67519316898044,0.5792397221956564,19.34941161896294
228.0,9.507896083887385,47.39454529867969,0.579179458797169,19.36341514774307
229.0,6.978526267756816,46.64351800778523,0.5791210261470128,19.377001583889093
230.0,5.00326903887529,45.46837175668848,0.5790644434288248,19.390165695856197
231.0,3.5221026972121368,43.941591732403,0.5790097293103208,19.402902385692368
232.0,2.457814274072609,42.15049453484803,0.5789569019357031,19.41520669203298
233.0,1.7288648586732938,40.184607187450595,0.5789059789183082,19.427073793016138
234.0,1.2605791768402024,38.125246541956805,0.5788569773333714,19.438499009147566
235.0,0.9926065531180769,36.03918260456556,0.5788099137108743,19.44947780612274
236.0,0.8822960751460351,33.976516422466695,0.5787648040285042,19.46000579759739
237.0,0.9048245940302353,31.971717276467466,0.5787216637047641,19.470078747894078
238.0,1.0513606597634777,30.046374625303592,0.5786805075921774,19.479692574658568
239.0,1.3264026237402107,28.212435173441616,0.5786413499704278,19.488843351508528
240.0,1.744987386076671,26.475159951420515,0.5786042045402329,19.497527310454434
241.0,2.330145931366117,24.835460015850494,0.5785690844167016,19.50574084443284
242.0,3.110631150034112,23.291581358770564,0.5785360021231456,19.513480509685955
243.0,4.118874227943937,21.840239657850898,0.5785049695849754,19.520743028087196
244.0,5.38908420951827,20.47734922065055,0.5784759981238498,19.52752528936406
245.0,6.9554411299850605,19.198477807158,0.5784490984518735,19.533824353274913
246.0,8.850364371043703,17.99912833110051,0.5784242806658711,19.53963745173096
247.0,11.102875810861038,16.874918356998027,0.5784015542423172,19.544961990698816
248.0,13.737073879836748,15.821706749423758,0.5783809280315776,19.549795552261223
249.0,16.77077137826664,14.835702434700325,0.5783624102536968,19.55413589620526
250.0,20.21427016485692,13.913585418301148,0.5783460084917675,19.55798096225659
