Time,J,A,S,tau
0.0,100.0,100.0,0.6196747911971835,30.13647114239205
1.0,99.74325337371931,89.3085900927623,0.6183858098056442,31.105542378659685
2.0,99.49009079798518,79.76141600249933,0.6171056889963407,32.076000378381956
3.0,99.24031263333607,71.23803938237629,0.6158346881002484,33.047536645991585
4.0,98.99372778034501,63.628170840707035,0.6145725991686538,34.02006044117388
5.0,98.75015080369957,56.83347899692933,0.6133191785011862,34.993487209965615
6.0,98.5094015965069,50.7662836158096,0.6120741511450423,35.96773800753498
7.0,98.27130505406542,45.34837758306994,0.6108372149644543,36.94273896074581
8.0,98.03569076238738,40.51000590389878,0.6096080442852699,37.91842077331921
9.0,97.80239269920247,36.188946532869416,0.6083862931669801,38.89471826797973
10.0,97.57124894647286,32.329694878084254,0.6071715983417085,39.871569961824136
11.0,97.34210141426938,28.88273549218996,0.6059635818542441,40.84891767195675
12.0,97.11479557161644,25.80388115026791,0.6047618534476791,41.82670614528685
13.0,96.88918018781779,23.053701482793375,0.6035660127073166,42.80488271335637
14.0,96.66510708300115,20.59700824983165,0.6023756509959569,43.783396968593884
15.0,96.44243088689963,18.402397800546613,0.6011903532087736,44.76220045899064
16.0,96.2210088058218,16.44184360513222,0.6000096993722772,45.74124639890921
17.0,96.00070039483117,14.690324528836472,0.5988332661136683,46.72048939220465
18.0,95.78136733715296,13.125503827546591,0.5976606280156035,47.69988516726711
19.0,95.56287323023464,11.727440029631001,0.5964913588785073,48.679390321544346
20.0,95.34508337756262,10.47832944707488,0.5953250329108059,49.65896207311881
21.0,95.12786458610132,9.36227738834816,0.5941612258669259,50.63855801719082
22.0,94.91108496766203,8.365088632798251,0.5929995161482349,51.618135885298905
23.0,94.69461374509541,7.474086432058078,0.5918394858830281,52.59765330596844
24.0,94.47832106309819,6.6779496710432635,0.5906807220038484,53.577067564661114
25.0,94.26207780291514,5.9665675659436594,0.5895228173386424,54.556335360893335
26.0,94.04575540062716,5.330910780947935,0.5883653717355777,55.53541256000624
27.0,93.82922566842117,4.762913107914179,0.5872079932310313,56.51425393847228
28.0,93.61236061902527,4.255369073628047,0.5860502992783169,57.492812920716894
29.0,93.39503229315291,3.801842002657727,0.5848919180576907,58.47104130479725
30.0,93.1771125895021,3.396581824529484,0.5837324898837022,59.44888897481183
31.0,92.95847309680813,3.034452252865575,0.5825716687340622,60.426303596645965
32.0,92.73898492819589,2.710863865040127,0.5814091239078402,61.40323029644258
33.0,92.51851855773768,2.421716005021704,0.5802445418322726,62.37961131930353
34.0,92.29694365882611,2.1633447668961128,0.5790776280471462,63.355385664086285
35.0,92.07412894425391,1.9324764027675378,0.5779081093848217,64.33048869194162
36.0,91.84994200733978,1.7261860676787584,0.5767357363784502,65.30485170381932
37.0,91.62424916494506,1.5418599226729264,0.5755602859074248,66.2784014862991
38.0,91.39691530244636,1.3771620829946052,0.5743815640988533,67.25105982332299
39.0,91.16780371978405,1.2300051346511718,0.5731994095293265,68.22274296710152
40.0,90.93677597889858,1.098523675262974,0.5720136967472397,69.19336106558421
41.0,90.70369175181206,0.9810508863250335,0.5708243401587682,70.16281754003563
42.0,90.46840867054209,0.8760970514393684,0.569631298289102,71.13100841160619
43.0,90.23078217950513,0.7823307088249642,0.5684345784278979,72.09782157596962
44.0,89.9906653888258,0.6985619144346914,0.5672342417247374,73.06313601560989
45.0,89.74790892935216,0.6237271933585009,0.566030408751066,74.02682094757114
46.0,89.50236080866632,0.5568762081590098,0.5648232655773838,74.9887348990735
47.0,89.25386626937771,0.497159573730545,0.5636130703754748,75.94872470962777
48.0,89.00226765135615,0.44381808782074567,0.5624001605188791,76.90662446376753
49.0,88.74740425546264,0.39617321832424646,0.5611849602674028,77.86225434014203
50.0,88.48911221012514,0.35361853397461257,0.5599679890263718,78.81541937790648
51.0,88.22722434022839,0.31561210441083193,0.5587498702102018,79.76590815481039
52.0,87.9615700394899,0.2816695856567137,0.5575313406958887,80.71349137789841
53.0,87.69197514934041,0.25135805582257964,0.5563132607440997,81.65792040405668
54.0,87.41826184092643,0.22429060330294226,0.5550966244662671,82.59892567561927
55.0,87.14024850218355,0.20012144238199425,0.5538825707451153,83.53621508255135
56.0,86.85774962978707,0.17854157497787082,0.552672394550487,84.46947225667685
57.0,86.57057572690782,0.15927486528482374,0.551467558545974,85.39835480967253
58.0,86.27853321137056,0.1420745076696896,0.5502697046563227,86.32249256061114
59.0,85.98142432995394,0.12671994524548472,0.549080665582125,87.24148574905456
60.0,85.67904708140391,0.11301408387075373,0.5479024759733485,88.15490327107688
61.0,85.37119514843998,0.10078081426728004,0.5467373829840543,89.06228097293379
62.0,85.0576578394988,0.08986278108757288,0.5455878558821545,89.96312004300623
63.0,84.73822004628222,0.08011935968508212,0.5444565940364096,90.85688559657336
64.0,84.412662212309,0.0714248994830907,0.543346533029581,91.74300548074851
65.0,84.08076031557718,0.06366713441670876,0.5422608482909523,92.62086938045097
66.0,83.74228586623262,0.05674576724046439,0.5412029556221047,93.48982830839799
67.0,83.39700591996498,0.05057120043576728,0.5401765079627612,94.34919456426915
68.0,83.044683114359,0.04506337804630293,0.5391853873908965,95.19824230631723
69.0,82.68507572325925,0.04015078332085424,0.538233691851588,96.0362087977647
70.0,82.31793773271623,0.03576953178779776,0.5373257158212937,96.8622964357701
71.0,81.94549088301378,0.032449799808804976,0.5364659241857617,97.67567565746799
72.0,81.57623181805992,0.03194153892873118,0.5356589183627828,98.4754888903074
73.0,81.19895233667188,0.031437236193721116,0.534909397891012,99.26085644494559
74.0,80.81339248223303,0.03093688119880158,0.5342220989517429,100.03087839380991
75.0,80.41929012220804,0.03044046497920322,0.533601780495076,100.78464611202166
76.0,80.01637912068581,0.029947980005968777,0.5330530857016893,101.5212506919742
77.0,79.60438641510756,0.029459425139466897,0.5325804119990042,102.23979707165432
78.0,79.18303930171876,0.02897479833604969,0.5321881730401842,102.93938749828985
79.0,78.75206195336986,0.02849409806356233,0.5318802996628585,103.61916680725307
80.0,78.31117161675122,0.02801732993935663,0.5316600438353887,104.27834551464021
81.0,77.86008564185711,0.02754449933245753,0.5315306473899174,104.91613502213181
82.0,77.39852216554937,0.027075609239127024,0.5314947281249368,105.53181220776676
83.0,76.92619331062718,0.026610669897545694,0.5315535385755297,106.12479841711517
84.0,76.44281038849304,0.026149692625456043,0.5317082127495484,106.69452763726292
85.0,75.94808868954928,0.025692684023074983,0.5319595305305785,107.24047416928309
86.0,75.44174149277838,0.02523965721453479,0.5323060237047696,107.76235406935174
87.0,74.92348026520655,0.024790628616408694,0.5327457144015011,108.25993749632278
88.0,74.39301753763793,0.024345613546306627,0.5332765813520087,108.73299995813466
89.0,73.8500750975371,0.023904622819038563,0.5338951416041476,109.18147431505727
90.0,73.29437538647147,0.0234676744949126,0.534596188498765,109.60547017830181
91.0,72.72564054654124,0.023034787470311114,0.5353744189410079,110.00510680539645
92.0,72.14360338838432,0.022605975627667464,0.536223718000906,110.38058643788777
93.0,71.54800592523853,0.0221812584882237,0.5371361980231003,110.73227827443701
94.0,70.93859007104692,0.021760657741824393,0.5381037515421477,111.06057093824141
95.0,70.31510926303694,0.021344190691811576,0.5391177699607356,111.36589785515744
96.0,69.67733475801771,0.020931877287355006,0.5401683509881297,111.64879607223797
97.0,69.02503950588061,0.02052373983330222,0.5412453687177068,111.90981850731916
98.0,68.35801673234191,0.0201197968959372,0.5423381302388588,112.14955416605112
99.0,67.67607556187389,0.019720071995788832,0.5434352921354777,112.36862492869592
100.0,66.97903185336261,0.01932458711029178,0.5445253993282617,112.56765762439082
101.0,66.26673444114385,0.018933362829365447,0.5455965025659656,112.74728701617347
102.0,65.53904233107447,0.01854642443628721,0.5466364548002589,112.90814510297085
103.0,64.7958349647229,0.018163792474503018,0.5476329929311438,113.05085978191269
104.0,64.03702948270542,0.01778549051506932,0.5485736460917146,113.17603182629749
105.0,63.2625498332857,0.017411543406461494,0.5494459159233571,113.2842552363141
106.0,62.472361834682424,0.017041971104018335,0.5502372709754039,113.3760966076429
107.0,61.66646169132422,0.016676798966833786,0.5509352019360185,113.45208684855193
108.0,60.844859940609055,0.016316049408175076,0.5515272129609021,113.51274897422184
109.0,60.0076272235071,0.015959743030737415,0.5520009593141878,113.55855638075154
110.0,59.15485073741511,0.015607905019793188,0.5523441765070747,113.58996056885007
111.0,58.28665580706526,0.015260553978524816,0.5525447127054741,113.60739246907474
112.0,57.40322750937341,0.01491771177539084,0.5525907129665775,113.61123230128503
113.0,56.50476449562377,0.014579401394375973,0.5524704022681455,113.60184904513359
114.0,55.59152774928757,0.014242726045480719,0.5716652812642373,96.75499946541707
115.0,54.66381095654557,0.013906489578007494,0.6139825700543062,62.400167448199
116.0,53.721954956060586,0.013574930507756983,0.6295364575878043,51.09930140044728
117.0,52.76109455963627,0.019287776119113482,0.6359265398431955,45.48429824305169
118.0,51.80581981990378,0.06043823736158237,0.6382335498562994,41.933846671396
119.0,50.92053136085104,0.0945359085289891,0.6381978543944469,39.409951391508486
120.0,50.09205387932684,0.12395857838685989,0.6366176167670348,37.48880039473037
121.0,49.311614233404306,0.15001041468398513,0.633927613226697,35.95913345034899
122.0,48.572813770398184,0.17348485687790346,0.6303927644857327,34.70144896332273
123.0,47.87066290532775,0.19489995481403855,0.6261878721385689,33.64197625996066
124.0,47.20106504208722,0.214611226779717,0.621435372739964,32.73219117303471
125.0,46.56051614269938,0.2328716576290434,0.6162251677644635,31.9385968173215
126.0,45.94591543435069,0.24986619403586874,0.6106258706289924,31.23717145717
127.0,45.35444970956903,0.2657325876213388,0.6046915481309533,30.61017160435787
128.0,44.78350988708701,0.28057499064561253,0.5984660225598025,30.044151484653753
129.0,44.230639207621664,0.2944728115789232,0.5919856447682937,29.528725682274516
130.0,43.693494282594344,0.3074870194449219,0.5852812098338941,29.05573266632443
131.0,43.16982533493774,0.31966456751166744,0.5783792979972118,28.618668572136173
132.0,42.657458649510005,0.3310417239100783,0.5713032277614117,28.212286467492984
133.0,42.15428972114831,0.34164651885264696,0.5640737448119594,27.832313649606576
134.0,41.65827809032642,0.3515006882360282,0.5567095355942258,27.475241468776996
135.0,41.16744575070138,0.36062124950265,0.5492276274565318,27.138164199845853
136.0,40.67987644926998,0.36902177039927814,0.5416437088446255,26.818652671216054
137.0,40.19374111169911,0.37671309110257245,0.5339723265400164,26.514679942447312
138.0,39.707279769658186,0.38370446085284154,0.526227042026478,26.224545581950203
139.0,39.21880283882654,0.39000436249287984,0.5184206720099667,25.946791823094152
140.0,38.7267587088834,0.3956178972533214,0.5105652849146491,25.680203451987225
141.0,38.22963490549722,0.40054570225426,0.5026723509145713,25.42373067095942
142.0,37.72609996523572,0.4047928293044303,0.4947528270708404,25.176485945210167
143.0,37.206195131219516,0.43870741382113665,0.4868171669509359,24.937699261920024
144.0,36.746770254538575,0.5261446569881534,0.47887537848320944,24.706714261889665
145.0,36.444882365226384,0.6546152364998263,0.4709370723212285,24.48296437242599
146.0,36.355318644958366,0.8156247056091384,0.4630114811061798,24.26596003348879
147.0,36.500789684193165,1.0028181501090023,0.45510748020958697,24.05527710496225
148.0,36.87991955197637,1.211124241419127,0.44723360351628966,23.850547148767006
149.0,37.47402010659803,1.4363133511594324,0.43939805502716556,23.65144923438313
150.0,38.252861177604636,1.6747471469057043,0.43160871752931035,23.45770301268537
151.0,39.179476094017225,1.923227074424411,0.42387315843642215,23.269062857470924
152.0,40.21402389808251,2.1788984459818193,0.4161986336452148,23.085312899732237
153.0,41.31675639779505,2.439187344477776,0.40859208999968877,22.906262778192364
154.0,42.450172666777334,2.701758542512561,0.40106016710716924,22.731744052746617
155.0,43.58047899017376,2.964486860035458,0.3936091963081972,22.56160714555283
156.0,44.67844448816571,3.2254365276276293,0.3862452030418525,22.39571868330586
157.0,45.7198055851335,3.4828472285066416,0.3789739050986181,22.23395926393403
158.0,46.68533773960006,3.7351243150286195,0.3718007120426799,22.076221587547302
159.0,47.56062237764036,3.9808300331070883,0.3647307272279948,21.922408747632183
160.0,48.33569281676024,4.218677962330317,0.35776874676519876,21.772432869828712
161.0,49.004549148940185,4.447527502313966,0.35091926092382686,21.62621386861899
162.0,49.564646698700614,4.66637689994371,0.3441864554068962,21.483678460010264
163.0,50.0163487153009,4.874353986371209,0.33757421393886844,21.344759286716734
164.0,50.358828670984025,5.074212231502529,0.33108612270601523,21.20939405621258
165.0,50.55574596211285,5.303606220099905,0.3247254678440852,21.077524988898652
166.0,50.56143233408107,5.6028860232778,0.3184952458842154,20.94909823214395
167.0,50.34466132404228,5.990297181936837,0.3123981672123362,20.824063376560257
168.0,49.884215444044656,6.468298976621751,0.3064366622918483,20.70237304535769
169.0,49.16762372566978,7.028839369194698,0.30061288853440493,20.583982544405977
170.0,48.19220059707987,7.6575517074742825,0.29492873673599196,20.468849552523775
171.0,46.9665801780675,8.336950276382892,0.28938584038493453,20.356933864741197
172.0,45.510947405970626,9.048780040653563,0.2839855841536394,20.24819717114374
173.0,43.85541930853608,9.775626373603616,0.2787291131241082,20.14260286426466
174.0,42.03703713393091,10.501910256971572,0.2736173431998139,20.040115873792427
175.0,40.096250192058044,11.214415399321927,0.2686509715959572,19.94070252650904
176.0,38.073641397474255,11.902478776638741,0.2638304875207796,19.844330428709423
177.0,36.007427167321026,12.55792921084564,0.2591561835680177,19.75096835743217
178.0,33.93228036045067,13.174391722874146,0.2546208924749424,19.661079706022857
179.0,31.88044254685846,13.745403228885525,0.2501866161395261,19.577187327395603
180.0,29.876710360832988,14.268631138861208,0.24584910458701278,19.499491551828502
181.0,27.940291128357828,14.743584246506467,0.24161001545889835,19.42779053228942
182.0,26.08564858390929,15.170884840193732,0.2374709377923758,19.361887519365414
183.0,24.32313444067122,15.551994326714539,0.23343338989047582,19.301590584079584
184.0,22.66009420902011,15.888516747116183,0.22949881794386154,19.246712383105475
185.0,21.103399394071513,16.18024600971021,0.22566859466237676,19.197069946686742
186.0,19.660706431885476,16.42459057819972,0.22194401849685313,19.1524844567294
187.0,18.340252871573462,16.617298979139917,0.2183263135056903,19.112781058086686
188.0,17.149982654648653,16.75367240615784,0.2148166299760383,19.0777886704326
189.0,16.096279028964393,16.829998772515196,0.21141604552335314,19.04733981152817
190.0,15.182858100747648,16.844707659801585,0.20812556673688573,19.021270417014026
191.0,14.410158795399099,16.798939573766564,0.20494613041434812,18.99941974008033
192.0,13.775523445587659,16.696303651187442,0.2018786116648369,18.981630081403722
193.0,13.273785587910712,16.542364192985808,0.19892381897391742,18.967746758611582
194.0,12.898014275466878,16.34382338624656,0.19608250428620463,18.95761791092502
195.0,12.640274317949823,16.10781606860119,0.1933553661974886,18.951094370977465
196.0,12.492217403348636,15.841361747115373,0.19074305466722646,18.9480295428633
197.0,12.445280645915082,15.5512061915243,0.18825500513528787,18.947697508730275
198.0,12.490494761623292,15.243982819641756,0.1859260353679078,18.947697508730275
199.0,12.619918426908878,14.924853593421181,0.18375955923797122,18.947697508730275
200.0,12.826116803806844,14.598147569407043,0.18175399845986345,18.947697508730275
201.0,13.102050726605182,14.267523304467383,0.1799078359036573,18.947697508730275
202.0,13.441056396722267,13.936035708365937,0.17821962686285608,18.947697508730275
203.0,13.836815474748278,13.606214697203432,0.17668800966423612,18.947697508730275
204.0,14.283287250494663,13.280184613814214,0.17531171496922557,18.947697508730275
205.0,14.774598136475134,12.95980661649425,0.1740895740668917,18.947697508730275
206.0,15.304943730309994,12.64678769272959,0.173020526910572,18.947697508730275
207.0,15.868530633210856,12.342748265408769,0.1721036288597083,18.947697508730275
208.0,16.459548392471536,12.04924867362536,0.17133805685875902,18.947697508730275
209.0,17.07219796790579,11.767783107116609,0.17072311421413283,18.947697508730275
210.0,17.700719724430183,11.4997552424055,0.17025823514254798,18.947697508730275
211.0,18.33945330733622,11.246449957599316,0.16994298809891073,18.947697508730275
212.0,18.982891728272453,11.009013365080913,0.16977707834885086,18.947697508730275
213.0,19.62573022648463,10.788440426733288,0.16976035007575357,18.947697508730275
214.0,20.262921542595763,10.585573720726032,0.16989278632758095,18.947697508730275
215.0,20.88969051384621,10.401107641120115,0.17017451003827241,18.947697508730275
216.0,21.501553323923705,10.235595469510931,0.1706057834857605,18.947697508730275
217.0,22.094377518584174,10.08944277348377,0.17118700512756982,18.947697508730275
218.0,22.664342841127755,9.962925165875014,0.1719187089449674,18.947697508730275
219.0,23.207959444376634,9.856214505947007,0.17280156057288854,18.947697508730275
220.0,23.72200483387129,9.769390458271683,0.17383635340255232,18.947697508730275
221.0,24.203523016600368,9.70245084014807,0.17502400413659433,18.947697508730275
222.0,24.649814900280997,9.655323660954796,0.17636554325697218,18.947697508730275
223.0,25.058407668829044,9.627872842170495,0.17786211330764543,18.947697508730275
224.0,25.427009132891897,9.61990190918762,0.17951496222141416,18.947697508730275
225.0,25.753482274599335,9.631159005804669,0.18132542737999202,18.947697508730275
226.0,26.035920088573505,9.661333051915802,0.18329493199073424,18.947697508730275
227.0,26.272551062684418,9.71004391589605,0.1854249791585847,18.947697508913617
228.0,26.46176413254347,9.776853389822858,0.18771712724972922,18.947697513589098
229.0,26.602347252180415,9.861174971803269,0.1901702818486751,18.94785100072815
230.0,26.694272972802505,9.96140608543198,0.1927498014274655,18.950181236057634
231.0,26.73784053621052,10.076124674742202,0.19543503409856752,18.955859623282638
232.0,26.733275383207992,10.204302361922931,0.19822323983054826,18.9650297093306
233.0,26.681122961597136,10.344875820621159,0.20111226177238212,18.977796039203877
234.0,26.5822952281883,10.49673969022376,0.2040998639874629,18.99426174001976
235.0,26.438081184673052,10.6587541990264,0.20718373665468334,19.01452783125006
236.0,26.250122446056945,10.829755985676771,0.21036149779011526,19.038693298734774
237.0,26.02041441140807,11.008566919194546,0.21363069718645422,19.066855097876893
238.0,25.751297676938435,11.19399972598813,0.21698881664689224,19.09910799589998
239.0,25.44543561883637,11.384862542310158,0.2204332698925474,19.135544578340426
240.0,25.105782525232783,11.57996312683442,0.2239614097918359,19.176255320764298
241.0,24.735547595078085,11.778110901013827,0.22757053291027454,19.22132848474798
242.0,24.338174233045034,11.978119199476573,0.23125787940467254,19.270850030654305
243.0,23.917297564552698,12.178807648302504,0.2350206404715183,19.32490374143077
244.0,23.476694367631215,12.379003535602655,0.2388559655580518,19.383571189373132
245.0,23.02024216273872,12.577545092391798,0.24276096616660756,19.446931589995728
246.0,22.551898603194367,12.773286831577243,0.24673271955113513,19.515061925666995
247.0,22.07564561386651,12.965103430185772,0.25076827784215455,19.58803698274201
