Time,J,A,S,tau
0.0,100.0,100.0,0.983055889488886,12.718147680201126
1.0,99.64859343226946,98.48544875478765,0.9812158121160472,12.491444472392272
2.0,99.26791712690392,96.93430428524997,0.9791077735635914,12.243546727596456
3.0,98.85650589036304,95.34921160763052,0.9767137828629129,11.974668770788961
4.0,98.41222172439963,93.73079982929877,0.9740111031675143,11.684632102379926
5.0,97.93287463836084,92.07978911743211,0.9709763404851699,11.373258737017355
6.0,97.41614176309093,90.39707047095081,0.9675844548338428,11.04037386921079
7.0,96.85966422429772,88.68359765188735,0.9638099338263852,10.685803954241962
8.0,96.26098166055662,86.9405216915977,0.9596258700874614,10.309381223541896
9.0,95.61757815003031,85.1690719331384,0.9550046161454987,9.910941440582505
10.0,94.92689926247101,83.37063059027084,0.9506347146599918,9.582943650741205
11.0,94.18635061083806,81.54671489259695,0.9472681348210179,9.416908060808034
12.0,93.39331678588456,79.69897198795358,0.9437110759883675,9.25554291379651
13.0,92.54519255799397,77.82918204083552,0.9399572107692906,9.098693617538226
14.0,91.63938411148533,75.93924813844458,0.9360004797617365,8.946219886576614
15.0,90.67336801667258,74.03120113155448,0.9318350338936676,8.797989472746401
16.0,89.64468799911126,72.10719923719856,0.9274554724131998,8.653882088334072
17.0,88.55100086428708,70.16949637761748,0.9228566180192049,8.513781520168214
18.0,87.39013746456851,68.22048620316376,0.9180339612547924,8.377581417842908
19.0,86.1600629888347,66.26262439244805,0.9129832376722937,8.245177919871841
20.0,84.8590626743802,64.29850037776127,0.9077010475197562,8.116474635753086
21.0,83.4855785079477,62.33074529567832,0.9021843120581603,7.991377449225463
22.0,82.0385366499731,60.36209510253239,0.8964309340682955,7.869797427306073
23.0,80.51708970668588,58.395323437607054,0.890439330819497,7.75164840923196
24.0,78.9210005105371,56.43325914183509,0.8842088694017308,7.636847446048725
25.0,77.25042636922308,54.47876147699813,0.8777396292516965,7.525314348168136
26.0,75.50632907126803,52.53471267343786,0.8710327781532302,7.416971894751286
27.0,73.69021670077167,50.603999449295436,0.864090204254314,7.311744885719147
28.0,71.80474896180799,48.68951104182225,0.8569150472692195,7.209561001898771
29.0,69.85339235859962,46.794120342968746,0.8495112112924921,7.110349593319254
30.0,67.84110718193055,44.920695614327364,0.8418838486181381,7.01404251975571
31.0,65.77422436338054,43.07209041296175,0.8340390632834321,6.9205733821375155
32.0,63.66076056837835,41.25118007198503,0.8259840594559844,6.829877800691416
33.0,61.510696357622926,39.460916697677206,0.8177271841244214,6.741893377336042
34.0,59.33586416673602,37.704374595922076,0.8092778073019901,6.656559410288466
35.0,57.149991510647986,35.984877522546796,0.800646387153023,6.573817011894833
36.0,54.96837879874397,34.30613623691465,0.7918444240872341,6.4936090182617106
37.0,52.80736239037055,32.672420465324485,0.7828844302640807,6.415879948360134
38.0,50.683489196034266,31.08875314352625,0.7737798916705392,6.3405759725968975
39.0,48.61240770586716,29.561083139345655,0.7645452145625716,6.267644871142927
40.0,46.60758871870375,28.096401142087434,0.755195664160516,6.197035998883175
41.0,44.679018583587315,26.70275353644416,0.7457473002568672,6.128700260171662
42.0,42.83211408594476,25.389083197656213,0.7362168951518642,6.062590062250199
43.0,41.06690311945632,24.164888177836175,0.7266218613353147,5.998659307263744
44.0,39.37800267260301,23.039645692729,0.7169801609515627,5.936863356123803
45.0,37.7552918103253,22.02202602159168,0.7073102136882202,5.877159001797937
46.0,36.185386503621714,21.11896356556478,0.6976308011635832,5.819504443118274
47.0,34.65371598973755,20.334696214068135,0.687960968821014,5.763859259243354
48.0,33.14684701149459,19.669928796008058,0.6783199265229698,5.710184384711152
49.0,31.65461964701342,19.121291532323824,0.6687269495273466,5.658442086829748
50.0,30.17159487718438,18.681254903072144,0.659201278882325,5.608595936271495
51.0,28.6976943605143,18.338543008350232,0.6497620271925135,5.5606107909886395
52.0,27.237749472971224,18.079046705050924,0.640428082969883,5.514452764497093
53.0,25.800436473574155,17.887068237327444,0.6312180243036866,5.470089214983354
54.0,24.3966458403957,17.74667597438598,0.6221500369835127,5.42748871422439
55.0,23.03784075354203,17.642900409424758,0.6132418368383483,5.386621026532597
56.0,21.73467088609208,17.562639589855824,0.6045105978017158,5.347457094425354
57.0,20.496018418165956,17.495145179016536,0.5959728926060426,5.3099690123644425
58.0,19.32848521207541,17.43213629784145,0.5876446380636391,5.27413000492879
59.0,18.236280415164593,17.367650836093805,0.5795410464426552,5.239914413305011
60.0,17.2213923397919,17.297703947069326,0.5716765886987697,5.207297673782371
61.0,16.283893800712846,17.219883591308463,0.5640649670573709,5.176256295223941
62.0,15.422356063836958,17.13295669056375,0.5567191010686307,5.14676783453927
63.0,14.634306439240442,17.036541033981617,0.5496510628114427,5.118810939457755
64.0,13.91641203500257,16.930791013062468,0.5428721684557332,5.092365210201881
65.0,13.264729150995986,16.816252937686105,0.5363928917255496,5.067411291016256
66.0,12.675092057773078,16.69368603504148,0.5302229078619342,5.04393080961905
67.0,12.14319680658127,16.563980932446945,0.5243710974791544,5.0219063716547705
68.0,11.664724170608716,16.42810195516992,0.518845568163213,5.001321541903282
69.0,11.235442465433533,16.287052418053367,0.5136536769753937,4.982160829142408
70.0,10.85128234258304,16.141852696371625,0.5088019753457567,4.964410861064133
71.0,10.50865732480464,15.993270779515878,0.5042819957568154,4.948273179571328
72.0,10.205988692524699,15.840175568681097,0.4999790362704251,4.935502975555351
73.0,9.940172672486137,15.683184022679644,0.4958770656457561,4.926337733140969
74.0,9.707712925143241,15.523559306839372,0.4919962078302722,4.92048216444983
75.0,9.505394914708795,15.362553170142144,0.4883559758738716,4.917660489831896
76.0,9.329911262129453,15.201789657156151,0.48499821628940687,4.917284343411018
77.0,9.17652196502878,15.044681594581872,0.4820692909711744,4.917284316191343
78.0,9.042758306932884,14.892715954312795,0.4795991296848371,4.917284316191343
79.0,8.926861005092555,14.746905488041026,0.4775909425793978,4.917284316191343
80.0,8.827281090436246,14.608226905296284,0.4760472860702649,4.917284316191343
81.0,8.742719403115748,14.477617132776562,0.474970079486624,4.917284316191343
82.0,8.672030443228042,14.355985326645612,0.47436063683517166,4.917284316191343
83.0,8.61417126950235,14.244217364294043,0.4742197138703515,4.917284316191343
84.0,8.568307425595398,14.143169078131965,0.47454748279600206,4.917284316191343
85.0,8.533662564710617,14.053671337940568,0.4753435029555783,4.917284316191343
86.0,8.509495499912504,13.976526690964159,0.4766068481308071,4.917284316191343
87.0,8.495232293384301,13.912508956918701,0.4783358979060526,4.917284316191343
88.0,8.49016900945488,13.86235909006866,0.48052850589420226,4.917284316191343
89.0,8.493767051531687,13.826791201808618,0.48318183960150335,4.91728455623101
90.0,8.505380008137958,13.80646646976615,0.4862914819221213,4.917297337539658
91.0,8.525771401671408,13.80061259746833,0.4897666188294238,4.918512563059691
92.0,8.556030692601553,13.807821743571374,0.4934888703093237,4.9224902228346865
93.0,8.595793305357763,13.828010843278776,0.4974300716559844,4.929550133631838
94.0,8.644642133467237,13.861119464136141,0.5015673053663056,4.9399428349678915
95.0,8.702075480233816,13.906989673713198,0.5058772215230803,4.953929477452521
96.0,8.76597627961675,13.966942459864082,0.5104280699401903,4.970503984464286
97.0,8.833781893727098,14.042675391797548,0.5153054984262055,4.988400020354754
98.0,8.904354779029816,14.13429557248004,0.5205017361648153,5.0076326619174685
99.0,8.976391540026041,14.241825041250902,0.5260089392241798,5.02821013252641
100.0,9.048431792805362,14.36518644387566,0.5318186397557987,5.050141334340545
101.0,9.118857774270142,14.504196684338503,0.5379217232644482,5.073435851326924
102.0,9.18589094871431,14.658547873912875,0.544308406784801,5.098103960076129
103.0,9.247612264531387,14.827786465512043,0.550968248239345,5.124156611031183
104.0,9.30199191782597,15.011302284128261,0.5578901497613346,5.151605417444947
105.0,9.346919894214937,15.208316200727673,0.5650623580519686,5.1804626556106355
106.0,9.380238656663847,15.417860882591542,0.5724724673650587,5.210741270382098
107.0,9.399802400939047,15.638777183274557,0.5801074448605764,5.242454860035481
108.0,9.403536371670624,15.869707265098143,0.5879536529531556,5.275617672445211
109.0,9.389505322278419,16.109093573062975,0.5959968792252714,5.310244599545884
110.0,9.355986656235523,16.355183511355833,0.6042223727049416,5.346351171575305
111.0,9.301544688621155,16.606040815043038,0.6126148864667031,5.383953550886041
112.0,9.225104704958204,16.85956523408655,0.6211587244832536,5.423068524741888
113.0,9.126003219999822,17.1135162187426,0.6298378027781348,5.463713501971745
114.0,9.004057593204934,17.36555130262885,0.6386356988154355,5.505906509269804
115.0,8.85958595200795,17.613270746897232,0.6475357248835735,5.5496661737787125
116.0,8.693414758705247,17.854264676255344,0.6565209949487314,5.595011715440529
117.0,8.506860376223647,18.086165167069243,0.6655744985765618,5.6419629456041696
118.0,8.301701810019852,18.30670918215593,0.6746791763219281,5.6905402675278545
119.0,8.080122141163562,18.513793621821875,0.6838179905276105,5.740764641890383
120.0,7.844620308118722,18.705530049526978,0.6929740112471122,5.792657597118572
121.0,7.5979188513694,18.880292827871553,0.7021304933056574,5.846241212766725
122.0,7.342866172764148,19.03675968332939,0.711270953747512,5.9015381095975545
123.0,7.082336704733457,19.17394094929861,0.7203792481801157,5.958571438517552
124.0,6.819137185131342,19.29119637452287,0.7294396446552379,6.0173648690287065
125.0,6.55592408756221,19.388239124565313,0.7384368942680141,6.077942577212827
126.0,6.295136725075758,19.46512653869468,0.7473562977953608,6.140329233338868
127.0,6.038947458756784,19.522239468122592,0.756183768074918,6.204549989432028
128.0,5.78923190869581,19.560251505696254,0.7649058858091229,6.27063046549051
129.0,5.547555086434572,19.580090436705067,0.7735099501908204,6.338596735984984
130.0,5.315173376865843,19.58289487099554,0.7819840231929394,6.408475316213369
131.0,5.093050828372151,19.56996845135058,0.7903169638658525,6.480293146070582
132.0,4.8818793365107505,19.542734933645416,0.7984984690333704,6.554077582652944
133.0,4.682114983344217,19.502693598312483,0.8065190860065836,6.629856376944383
134.0,4.494007737737862,19.451380639906578,0.8143702152667466,6.707657662887235
135.0,4.317630021944808,19.39033321309374,0.8220441978511289,6.787509983718416
136.0,4.152933212071112,19.321061681446018,0.8295342000261917,6.869442196440506
137.0,3.9997570902999375,19.245027550079666,0.8368342767604312,6.953483539350127
138.0,3.857868514523553,19.163619209728456,0.8439394031343249,7.039663605011451
139.0,3.7269873767524135,19.078148664379704,0.8508453487252575,7.128012280807116
140.0,3.6068022588282447,18.989838369341175,0.8575487464715887,7.218559834483404
141.0,3.49699316608466,18.899813142660243,0.8640470666823,7.311336858327524
142.0,3.39724149428264,18.8091102782346,0.8703385042767606,7.406374245985243
143.0,3.3072448864764254,18.718672024320686,0.8764220424873027,7.503703300075303
144.0,3.226724509215155,18.62934980443527,0.882297380169726,7.603355658934119
145.0,3.155428760927685,18.54191707436877,0.8879648436727844,7.7053633187233235
146.0,3.0931450759116426,18.457066236921424,0.8934254307689231,7.809758762500027
147.0,3.0396990836784994,18.375417110253423,0.8986807233455477,7.916574904258967
148.0,2.994954115531839,18.297531928775456,0.9037327932940648,8.025845123251576
149.0,2.9588304245457366,18.223905467519952,0.9085843073913814,8.137603588052256
150.0,2.931275693619977,18.15499273454876,0.9132382509863612,8.251884798573863
151.0,2.912315898490853,18.09119076437643,0.9176981836089173,8.368724622291682
152.0,2.902002585276755,18.03287212110245,0.9219678718806573,8.4881593625462
153.0,2.9004567867084927,17.980364700405243,0.9260515002500364,8.610226771286458
154.0,2.907841349189606,17.933974651307057,0.9299534638020016,8.734965579977992
155.0,2.924395789746415,17.8939814676098,0.9336784534822864,8.86241656770445
156.0,2.95040671482889,17.860647566826465,0.9372313136663357,8.992622003238601
157.0,2.986229856563378,17.83421969073306,0.9406170642570585,9.125626487865885
158.0,3.032292051961957,17.81493337637896,0.9438408538980564,9.261477399457748
159.0,3.0890899570409913,17.80301637536861,0.9469079178418857,9.400225238201983
160.0,3.1571956266446457,17.798691766184145,0.9498235548705598,9.541924212174795
161.0,3.237260862380603,17.80218054484391,0.9525930956329828,9.686633034555278
162.0,3.3300222004983295,17.813703988907093,0.9552218777814716,9.834415748144641
163.0,3.4363035537318782,17.833486074481883,0.9577152205312967,9.985342664444739
164.0,3.5570204060243555,17.861755163690173,0.9600784031486437,10.139491498199744
165.0,3.6931832950694554,17.898745636791833,0.9623166452491767,10.296948680768
166.0,3.8459011164125805,17.944699011837514,0.9644350891073395,10.45781088469601
167.0,4.016384778435045,17.999864896676293,0.9664387843434864,10.622186846103684
168.0,4.205947285186302,18.06450116990617,0.9683326720654825,10.790199360706277
169.0,4.416006601221332,18.138874045093775,0.97012157468036,10.961987684339704
170.0,4.648085478131254,18.223257328277295,0.9718101849726808,11.137710224806298
171.0,4.90381072443152,18.317931075256386,0.9734030573801578,11.31754762801316
172.0,5.184911350508384,18.423179479488578,0.9749046007949318,11.501706281324974
173.0,5.49321554222249,18.539287858330585,0.9763190727963383,11.690422265286944
174.0,5.830646488429211,18.666538608551917,0.9776505752313382,11.883965783332462
175.0,6.199217132423973,18.805205966966305,0.9789030510575297,12.082646085966495
176.0,6.601023978911797,18.95554942271204,0.9800802823779706,12.286816892235107
177.0,7.038240167289216,19.117805607707048,0.9811858896067643,12.496882289647123
178.0,7.513108070366106,19.292178505882408,0.9822233317162533,12.71330306353444
179.0,8.027931701602071,19.47882785590615,0.9831959075297145,12.936603366393433
180.0,8.58506925146756,19.677855628796287,0.9841067580369656,13.167377585163297
181.0,9.186925985439954,19.889290575673765,0.9849588697234779,13.406297198167294
182.0,9.83594767289978,20.113070902422855,0.985755078915365,13.654117332808875
183.0,10.53461451596275,20.349025291654645,0.9864980771515142,13.911682640662708
184.0,11.285435290433167,20.5968526745868,0.9871904175982806,14.179932001066486
185.0,12.090940807494798,20.856101705932506,0.98783452254962,14.459901269667123
186.0,12.953676931643816,21.126149186569517,0.9884326917465369,14.752724358924127
187.0,13.876193044582415,21.40618215743383,0.9889871123075864,15.05962971017533
188.0,14.861026416523268,21.695181798542677,0.9894998690080028,15.381933568839838
189.0,15.910678686405326,21.99191114982763,0.9899729553585037,15.721028414213219
190.0,17.027583569924797,22.29491307217417,0.9904082865313525,16.078364978665558
191.0,18.21406056368315,22.60251393778477,0.9908077105777044,16.455429283713006
192.0,19.472255005975747,22.912836070365007,0.9911730225864565,16.853712896459978
193.0,20.804056897489897,23.223828522317536,0.99150597406759,17.27467638656733
194.0,22.211002721095493,23.53330696802646,0.991808285046605,17.719707214298097
195.0,23.69420006328596,23.839004201808695,0.9920816555896248,18.190084978741794
196.0,25.254159287957552,24.138630594312836,0.992327771618719,18.686922289343066
197.0,26.89069516625399,24.42994998370231,0.9925483064683893,19.211130427366204
198.0,28.60284754205113,24.71083819909741,0.9927449267150124,19.76339138150773
199.0,30.388721819823793,24.9793633871019,0.9929192913377938,20.344109927556374
200.0,32.24540367571461,25.233855826942072,0.9930730418123341,20.953395559084008
201.0,34.16902216378212,25.472923088993703,0.9932078022535089,21.59108292695459
202.0,36.15462557425455,25.69551984415506,0.9933251648577784,22.25670430721649
203.0,38.19627091204017,25.900950933043287,0.9934266800755371,22.94952143453505
204.0,40.287127031860834,26.088862182763407,0.9935138468643215,23.66855817629821
205.0,42.41959011143651,26.25922414824555,0.9935881027149651,24.41263399891515
206.0,44.58542742501858,26.412308521228173,0.9936508113661373,25.180402029293997
207.0,46.77597425582521,26.548641254396863,0.9937032540975955,25.970397586773533
208.0,48.982333986279855,26.66895141671734,0.9937466260597465,26.781082666109853
209.0,51.19556131051062,26.774126209412515,0.9937820321378864,27.61088386817455
210.0,53.40685982707452,26.865165558182692,0.9938104820548641,28.45822975501174
211.0,55.60775483435517,26.943135718053494,0.9938328919906854,29.321582022115457
212.0,57.790230996576526,27.009131590689698,0.9938500885001237,30.199458162838518
213.0,59.94684921489348,27.06424700600308,0.9938628113329627,31.090449112108363
214.0,62.07086276784519,27.109547985625,0.9938717157079824,31.993235052004092
215.0,64.15626418695767,27.146054703168705,0.9938773799464398,32.90659080840861
216.0,66.19781610776022,27.17472894565299,0.9938803119108829,33.82938867127738
217.0,68.19104963567061,27.19646720994922,0.9938809559487586,34.760597096608855
218.0,70.13233732005885,27.212088522324002,0.993879693400231,35.699288262747224
219.0,72.01872549414756,27.22234691229651,0.9938768586345498,36.64461649925645
220.0,73.84803936214487,27.227917663758227,0.9938727350979002,37.59583084760778
221.0,75.6187259118713,27.229411615345263,0.9938675676806523,38.55225537387562
222.0,77.32988728345244,27.227368560436705,0.9938615623933242,39.51329412463925
223.0,78.98107720805521,27.222278803453513,0.9938548990421564,40.478406259460456
224.0,80.57250989215935,27.21455550325704,0.9938477202052756,41.44713436843035
225.0,82.10457670236214,27.204591653297747,0.9938401585866633,42.41904303486343
226.0,83.57827470717817,27.192702671887115,0.9938323126283927,43.3937788332208
227.0,84.6980064317062,26.616810942094254,0.9938242701515082,44.3710152367536
228.0,84.67440747868355,24.072088045904557,0.9938161053384028,45.35046016613094
229.0,84.65296518142692,21.771382409614883,0.9938078765747237,46.33186314019719
230.0,84.63344137175832,19.69124760194791,0.9937996320906071,47.31500189650337
231.0,84.6156253350124,17.81047145551044,0.9937914108475175,48.29968065528176
232.0,84.59933061513414,16.109901253487926,0.9937832439780464,49.285726883908836
233.0,84.58439227092309,14.572225818547194,0.9937751559838539,50.27298854778444
234.0,84.57066424017839,13.181801184559164,0.9937671658175574,51.26133150437397
235.0,84.5580172088492,11.924497353121453,0.9937592877461034,52.25063740807893
236.0,84.54633651100355,10.787534517310897,0.9937515321445537,53.24080166936722
237.0,84.53552045674542,9.759374834398873,0.9937439061228576,54.231731835692926
238.0,84.52547871333338,8.829578574329018,0.9937364140935636,55.223346038169964
239.0,84.51613097495961,7.9887206318670625,0.9937290582295191,56.215571719825185
240.0,84.50740574234047,7.228273291146,0.993721838862111,57.20834447614733
241.0,84.49923925845907,6.540534559759136,0.9937147548144013,58.20160704834801
242.0,84.49157459661411,5.918538787399919,0.9937078036773074,59.1953084639606
243.0,84.48436081246108,5.355990150422301,0.9937009820488824,60.18940324176347
244.0,84.47755225831561,4.847198780964506,0.9936942857249753,61.18385075016015
245.0,84.47110791675054,4.387017676319506,0.9936877098672803,62.178614586926294
246.0,84.46499087339635,3.970798029847312,0.9936812491348723,63.17366208918066
247.0,84.45916780349327,3.5943323925175115,0.9936748977988281,64.16896385845776
248.0,84.45360855511467,3.2538212158033892,0.9936686498323971,65.16449337582966
249.0,84.44828575912442,2.9458255353342984,0.9936624989868268,66.16022664309814
250.0,84.44317449304131,2.6672389840572652,0.993656438851806,67.15614187432814
251.0,84.43825198500133,2.415251026680326,0.9936504629039904,68.15221922492596
