Time,J,A,S,tau
0.0,100.0,100.0,0.5333501065601565,18.14829826757241
1.0,99.24117115321316,98.24154055251724,0.5289473855015588,19.105004958791834
2.0,98.52544498121472,96.52138832676266,0.5245924056039494,20.063544400712587
3.0,97.85406127861445,94.8385659602456,0.5202870388511547,21.023206305578807
4.0,97.2283643129079,93.19172618331658,0.5160301409452566,21.98389968310796
5.0,96.64973608741725,91.57961119838664,0.5118205280307689,22.945539932486945
6.0,96.11950359871513,90.00097083909681,0.5076570026142642,23.90804408982755
7.0,95.6389101933038,88.4546437596694,0.5035383354300387,24.87133613670786
8.0,95.20921708233288,86.93951316776288,0.49946329252874433,25.8353423654208
9.0,94.8315424452809,85.45447606667571,0.4954306289905918,26.79999142668197
10.0,94.50690357213558,83.99851994053066,0.4914390994066667,27.765217139420713
11.0,94.23630490002269,82.57064830523024,0.48748745956463957,28.730954104474264
12.0,94.02052987811382,81.16989769626187,0.48357446817109934,29.697139730031864
13.0,93.86028609473874,79.79537603105068,0.47969890208325716,30.66371426458
14.0,93.75621780914905,78.44619264267368,0.47585953831238004,31.630618364426304
15.0,93.7086999562634,77.12150846693685,0.4720551785979236,32.59779513673303
16.0,93.71807193095209,75.8205360262468,0.46828464848768897,33.56518890491698
17.0,93.78458120585876,74.54248532310558,0.4645467745125779,34.53274426527124
18.0,93.9081768691865,73.2866163753299,0.46084042351802856,35.500407117552754
19.0,94.0887910112882,72.05223272137266,0.45716449037966633,36.46812374167384
20.0,94.32625151159827,70.83863514395895,0.45351787287944856,37.435840563502396
21.0,94.62010156155691,69.64517091095178,0.44989952156162993,38.40350398122655
22.0,94.96988207099523,68.47122374884285,0.4463084172463631,39.37106011458775
23.0,95.37501871548548,67.31617274935365,0.4427435438777882,40.338455127714745
24.0,95.8346792594885,66.17944191964277,0.4392039517803003,41.30563368079469
25.0,96.34804428031244,65.06048925624715,0.43568872684188065,42.27253946206302
26.0,96.91422021448061,63.95876881771099,0.43219695652896,43.23911614900616
27.0,97.53204208259162,62.873762788317116,0.42872779370085384,44.20530482965294
28.0,98.20036875123789,61.80499522396805,0.42528044754473177,45.17104416742875
29.0,98.91802686309802,60.75198862156446,0.42185412816222817,46.13627280542258
30.0,99.68359939413784,59.714278838610596,0.4184481019076713,47.10092629089547
31.0,100.49568842023977,58.69144691037073,0.41506171633554967,48.06493551447392
32.0,101.35289694607468,57.683076237880464,0.41169432308610604,49.02823113960153
33.0,102.25362286689759,56.68875295151028,0.40834531660612877,49.99074087007167
34.0,103.19627521982314,55.70810711067649,0.4050141986803639,50.95238483203
35.0,104.17929364845476,54.7407761531177,0.40170048397978914,51.91308223707096
36.0,105.20095577410937,53.786394079496915,0.3984037146804001,52.872750028163445
37.0,106.25953377432766,52.844632990192395,0.3951235636679265,53.83129432173155
38.0,107.35336157098733,51.91517814421235,0.39185973358699955,54.7886187655494
39.0,108.48065993532899,50.997709772799816,0.3886119416684872,55.74462560449083
40.0,109.63960925587263,50.09193586074902,0.38538004924486413,56.69920350997908
41.0,110.8284926051654,49.19758440924607,0.3821639770548024,57.652235589450854
42.0,112.04552293309165,48.31437924452267,0.37896365184703007,58.603604270277984
43.0,113.28883513890102,47.442060372345516,0.375779143882924,59.55317691261351
44.0,114.55670595023663,46.580393940748806,0.37261062753319835,60.5008100920937
45.0,115.84737669533256,45.7291437749657,0.36945827916839535,61.446360116512054
46.0,117.1589832328188,44.88808006977921,0.3663224051811717,62.389668260971355
47.0,118.48982705273605,44.05700258174055,0.363203472438973,63.33055766106749
48.0,119.8382085823555,43.23571167002532,0.36010195377518267,64.26885076563602
49.0,121.20230497674157,42.42400664959581,0.3570184263188876,65.2043567969062
50.0,122.58046316466174,41.62171667959553,0.35395368964125434,66.13685776102236
51.0,123.9710663725953,40.82867532287369,0.35090856512764496,67.06613304486773
52.0,125.37237018964166,40.044710563465785,0.3478839448237494,67.99195214150785
53.0,126.78277753101932,39.2696770065317,0.34488099845906645,68.91404788236713
54.0,128.20077037361497,38.50343819740177,0.3419009496104825,69.83214616258486
55.0,129.6247188549522,37.745850864518026,0.3389450605942237,70.74596676747764
56.0,131.05308286474624,36.996791265368216,0.33601490024623354,71.65518570229416
57.0,132.48445426646637,36.256150055703564,0.3331121442813012,72.55946417817147
58.0,133.9173448694433,35.52381239596498,0.33023848625267926,73.45846015675473
59.0,135.35027311181236,34.799673339570404,0.32739591226546577,74.35178600787778
60.0,136.7819480327687,34.08364816166961,0.3245865883278388,75.23902715341326
61.0,138.2110296250352,33.37564858806651,0.32181268710291333,76.11976758595198
62.0,139.63611025680723,32.67558760351527,0.31907662417208627,76.99354940138488
63.0,141.05601050272338,31.98340209420074,0.31638106311131897,77.859873813349
64.0,142.46953910296236,31.299028270878132,0.3137286763406068,78.71824047920788
65.0,143.8753778927679,30.62239674407552,0.3111223059030979,79.56811579167933
66.0,145.27244499637132,29.953462863673263,0.3085650717811526,80.4089139292324
67.0,146.6596917573728,29.292185036627345,0.3060601158920986,81.24004509634601
68.0,148.03590627461756,28.638511668238174,0.30361067497265815,82.06089737201248
69.0,149.40008128925476,27.992413238555184,0.30122021878358896,82.87080404804813
70.0,150.75129646422977,27.353867806993534,0.29889224987479934,83.66909068894876
71.0,152.08846513083853,26.722842193494206,0.2966303126945863,84.45507071463074
72.0,153.41062191722347,26.099318433103562,0.2944380470009395,85.22801422413012
73.0,154.71695265833424,25.483291542317364,0.2923191040288776,85.98718180920096
74.0,156.00651106084572,24.8747473478343,0.2902771513419953,86.73182836835441
75.0,157.27833646134002,24.27367604317673,0.28831575498264084,87.46119015150826
76.0,158.53169605726114,23.680087258790348,0.2864383837535714,88.17450116960258
77.0,159.76576644932842,23.093984253587653,0.2846485158308056,88.87099290749222
78.0,160.9795774193063,22.515364259239632,0.2829493433700712,89.54990731688915
79.0,162.17243258943782,21.944248286125866,0.28134371666850644,90.21050894263469
80.0,163.3435974193167,21.380654742454468,0.27983448603217104,90.85206175190552
81.0,164.49208231981075,20.824587569093506,0.27842411530889427,91.47386223121401
82.0,165.6171656364527,20.276075406783846,0.27711435412513935,92.07527367653108
83.0,166.71814885146352,19.735148861216718,0.2759069122826001,92.65566317121302
84.0,167.79398720388704,19.2018165539679,0.2748031798053011,93.21443199894362
85.0,168.84385634027487,18.676110994321,0.2738033086378058,93.75111389953311
86.0,169.86704329399095,18.15807382227391,0.2729072536502645,94.26526369893655
87.0,170.86261654294233,17.647731783651224,0.2721148922993484,94.75644653860374
88.0,171.82938835308425,17.14510266062426,0.2714248014042031,95.22437737410594
89.0,172.76649051089314,16.650232485022958,0.27083474897364157,95.66886102978907
90.0,173.6730050813469,16.163163922038283,0.2703424736484151,96.08970622104202
91.0,174.5475663679392,15.683914698372257,0.26994484143669695,96.48682599569462
92.0,175.38898759572538,15.212524899220336,0.2696376132847154,96.86025781857133
93.0,176.1960360086038,14.749032076821777,0.2694164259667122,97.21005363340322
94.0,176.96712881624285,14.293458275799061,0.26927595381955044,97.53637541096073
95.0,177.70085478676205,13.845847184819855,0.2692101249643118,97.83946577802008
96.0,178.3955966342775,13.406229297943936,0.269212655290046,98.11959128925346
97.0,179.04947161922595,12.974629440518894,0.269276321838174,98.37711814646595
98.0,179.66067322723467,12.551084444683719,0.2693935614901126,98.6124464402095
99.0,179.9076271955865,12.445302906318533,0.2792198493435156,94.73146337784087
100.0,172.60422896583538,18.933646452444002,0.3387201738739673,71.84907487985357
101.0,155.05951383940635,32.72828282015183,0.3960763377123557,54.11409640048572
102.0,138.5169571193094,44.114207944504244,0.43532356572441366,44.29511759844351
103.0,124.78506183485601,52.39281791995418,0.462370765685521,38.34323744800629
104.0,113.06041262613805,58.604473334070306,0.48196112690553566,34.31235005865992
105.0,102.71900186514495,63.436720630867505,0.4966413024813514,31.368557831797016
106.0,93.37940414640879,67.29720822560726,0.5078507412347761,29.10637799488671
107.0,84.80405111144208,70.43863173612252,0.5164707117378146,27.304427635237047
108.0,76.83795820019255,73.02672127863508,0.5230788265383087,25.830554882745673
109.0,69.3755169619156,75.17565933697355,0.5280748191315006,24.60033041834194
110.0,62.34207187990883,76.96739534257759,0.5317476990753212,23.55686782408974
111.0,55.68327080833764,78.46271477355423,0.5343139414268565,22.660194153065273
112.0,49.35857838237436,79.70794844009217,0.5359405194783715,21.8812419903069
113.0,43.33720497809699,80.73917221848754,0.5367593850861936,21.19827817280063
114.0,37.595398922933164,81.58499222194152,0.5368770117746497,20.594664833390162
115.0,32.11463081581965,82.26841253200939,0.5363808664043621,20.057409388257263
116.0,26.880314016053322,82.80814506304682,0.5353439258850614,19.576191403540964
117.0,21.880901351707134,83.21953178857274,0.5338278593383936,19.14270086954061
118.0,17.138473607265457,83.48398540566568,0.5318854263446405,18.750159118304396
119.0,14.08981625581244,82.16951160940535,0.5295622750052691,18.392968894990187
120.0,13.112319793936095,78.90700679590472,0.5268982117634622,18.066473715429744
121.0,12.489133279772643,75.41615975360774,0.5239282654046943,17.76676429414701
122.0,11.92812154703521,71.98874964666325,0.5206834881750568,17.490534709546576
123.0,11.391430587346552,68.66180881968809,0.5171915903801585,17.234971661236578
124.0,10.871456147031825,65.44198449595775,0.5134774577261112,16.997666472810444
125.0,10.366292059005934,62.33014839144629,0.5095635437860894,16.77654918599076
126.0,9.875526760088505,59.32562171439423,0.5054702379311531,16.569829284084687
127.0,9.39929166939476,56.4271923499424,0.5012161222854612,16.37595523449277
128.0,8.937990153583797,53.63337500321015,0.4968181663707974,16.193580717232983
129.0,8.49222199802682,50.94251760612941,0.49229201655124216,16.0215235406186
130.0,8.062819871512662,48.35290235322957,0.4876520869845414,15.858751493800254
131.0,7.650911411494949,45.86270584964091,0.4829116674824807,15.704363230093904
132.0,7.257955032511006,43.47002658546488,0.4780831413252829,15.557560322564575
133.0,6.8858799730994535,41.17289253946426,0.47317799966695023,15.417642523528176
134.0,6.5371992881254855,38.96928984034508,0.4682069669730265,15.283991405067392
135.0,6.215131793440629,36.857156075314826,0.463180064436045,15.156060757041967
136.0,5.9237638970356645,34.83439194013409,0.45810668181750236,15.033367119643092
137.0,5.668203969975392,32.89885269127169,0.4529956316657087,14.915482217722758
138.0,5.4547231675981696,31.048367861483108,0.4478551984164107,14.802026361778196
139.0,5.290863213752993,29.280751160660234,0.4426931842174228,14.69266243075696
140.0,5.185515720482751,27.59381439108876,0.4375169459905441,14.587090947747408
141.0,5.148926751723836,25.98538405701405,0.43233343083758247,14.485045555119216
142.0,5.192626524693163,24.453321963207898,0.427149204900005,14.386289247623449
143.0,5.3292465080856894,22.995551824318888,0.4219704804745298,14.290610951492306
144.0,5.572209311020257,21.61009160459046,0.4168031396396614,14.197822551936548
145.0,5.935278915748678,20.295093429463307,0.41165275524454115,14.107756281348632
146.0,6.4319608079709445,19.048891043206723,0.4065246096012591,14.020262417594218
147.0,7.074754402165175,17.870055021863845,0.40142371115965964,13.935207254122904
148.0,7.874261460204423,16.75745374539139,0.3963548094090581,13.852471304794829
149.0,8.838175404992057,15.710318385450984,0.39132240812822044,13.771947720325132
150.0,9.970208615998592,14.728303903666129,0.38633077839292107,13.693540836910287
151.0,11.268960063626567,13.811556967396317,0.38138396658600404,13.617165053976738
152.0,12.727526002482843,12.960787071282619,0.3764858098528882,13.542743593111691
153.0,14.331634363600903,12.177233858103781,0.3716399387394384,13.470207585094343
154.0,16.059939707092614,11.462706834553218,0.366849789773611,13.399495163540356
155.0,17.883823952358107,10.81954261707984,0.36211861088533887,13.330550746504075
156.0,19.767902663726694,10.250512118482144,0.3574494695270465,13.26332430706953
157.0,21.671164989868643,9.75868950218308,0.3528452589170325,13.197770782624099
158.0,23.548482618697083,9.347252654933353,0.3483087038773688,13.133849531237018
159.0,25.3526323953814,9.019240246812636,0.3438423673431085,13.07152383894927
160.0,27.03640395241844,8.777253185200843,0.3394486551746513,13.010760508473734
161.0,28.554542027287553,8.623113721528654,0.33512982198308977,12.951529462732767
162.0,29.865596192307347,8.557508918785393,0.33088797622258476,12.893803414020647
163.0,30.933301915437276,8.579614157278202,0.32672508481147483,12.837557563416969
164.0,31.727857868400218,8.686763510876085,0.3226429786702132,12.782769323859478
165.0,32.227314014978944,8.874152849545691,0.3186433566752404,12.729418097254113
166.0,32.418807609385254,9.134683838207726,0.3147277914505295,12.677485046235683
167.0,32.29985022795184,9.458913097544144,0.3108977331403318,12.626952914456206
168.0,31.879437275871258,9.835205908122791,0.30715451443100367,12.577805859227505
169.0,31.17821789580359,10.250076842266228,0.3034993552704681,12.530029296212875
170.0,30.227872164109655,10.688700721058696,0.2999333672265411,12.483609774537396
171.0,29.069234922913463,11.135556270701217,0.2964575583316573,12.438534853137543
172.0,27.749642087058074,11.57510007883199,0.2930728375990488,12.394792999415166
173.0,26.31991281668727,11.992396210738626,0.2897800194615832,12.35237349510201
174.0,24.83137418162667,12.373613317759425,0.2865798286661458,12.311266352895654
175.0,23.33344393733273,12.706400014615621,0.28347290436806394,12.271462245321237
176.0,21.87180220509784,12.980144993090834,0.2804598051871007,12.232952436490656
177.0,20.487146586968887,13.186244394987998,0.27754101318390706,12.195728727819345
178.0,19.21448394762404,13.318391059157594,0.2747169387953122,12.159783403430149
179.0,18.08259236832087,13.372924622196914,0.27198792489777035,12.12510918745229
180.0,17.113910411191487,13.34913531357343,0.26935425141584746,12.09169920179891
181.0,16.324490003578603,13.249408097470079,0.26681613953944805,12.059546931437609
182.0,15.72434964892102,13.079108085932397,0.26437375599312135,12.028646192444942
183.0,15.317894748515753,12.84615707101075,0.2620272171190558,11.998991104581041
184.0,15.104691010769171,12.560380637719911,0.25977659310610174,11.970576065508999
185.0,15.080130471542152,12.23274450014681,0.25762191194562,11.94339572910606
186.0,15.236026555749469,11.874615225380088,0.25556316324036604,11.91744498671208
187.0,15.561056440649939,11.497140461206119,0.2536003019519438,11.892718949867126
188.0,16.04109527624364,11.110820283669636,0.25173325210041353,11.86921293463965
189.0,16.659384239892717,10.7252608499805,0.24996191042894797,11.84692244801785
190.0,17.396679432593892,10.349054018490143,0.2482861495385888,11.825843177568713
191.0,18.23152731225701,9.989771484456533,0.24670582126215654,11.805970979288434
192.0,19.140517664886772,9.653992469472508,0.24522075977961078,11.787301869583613
193.0,20.098862261678644,9.347355665686333,0.24383078442877604,11.769832016534773
194.0,21.08091924544903,9.074595505874898,0.24253570267608396,11.753557732844726
195.0,22.061032955727953,8.839562497923254,0.24133531252184937,11.738475469870169
196.0,23.01425841677231,8.645224607277441,0.24022940511528718,11.724581811276389
197.0,23.917177020608193,8.49364197210675,0.23921776694120356,11.711873469164326
198.0,24.748616918869388,8.385948650756507,0.2383001818979579,11.700347278529927
199.0,25.490170090876283,8.322314121607441,0.2374764333653124,11.69000019461791
200.0,26.126739230875028,8.3019376040289,0.23674630573139063,11.680829288658046
201.0,26.646764482943578,8.323049123008415,0.23610958610379096,11.672831745144832
202.0,27.042486101886958,8.38294685717239,0.23556606549305922,11.666004859038056
203.0,27.309936334692445,8.478062398165067,0.23511554022623338,11.660346033751477
204.0,27.44897247657012,8.60407081634043,0.23475781285931838,11.655852778972365
205.0,27.463162921321373,8.756034320678259,0.2344926929846744,11.652522708812661
206.0,27.35955331773003,8.928573923762526,0.2343199978735647,11.650353540247686
207.0,27.148309671286142,9.116058440118673,0.2342395529268997,11.649343091751723
208.0,26.842240356165647,9.312796121488505,0.23425119194362937,11.649489282128743
209.0,26.456219769253696,9.513215550650786,0.2343547572082506,11.650790129528197
210.0,26.0065524318545,9.712024376184242,0.23455009939922808,11.65324375063955
211.0,25.510323084875377,9.904340246674817,0.23483707732045797,11.656848360063153
212.0,24.98477462380338,10.08579429960108,0.23521555745821984,11.661602269858525
213.0,24.446745246297343,10.252611326132422,0.2356854133663754,11.667503889274837
214.0,23.91218399740784,10.40167194706705,0.23624652488288533,11.674551724671948
215.0,23.39575107941545,10.530562058592494,0.23689877718101554,11.682744379643927
216.0,22.910504003872976,10.637609447313814,0.23764205965914303,11.692080555361246
217.0,22.467669851074742,10.721904256237204,0.23847626468379446,11.702559051179712
218.0,22.076491827879845,10.78329723687773,0.23940128615304634,11.714178765453838
219.0,21.744167278871128,10.82237284296968,0.24041701798695178,11.726938696852637
220.0,21.475829380283717,10.840391052959589,0.24152335235467015,11.740837945652432
221.0,21.27459864469961,10.839202434268719,0.24272017779958607,11.75587571503335
222.0,21.141644216596237,10.821146387978594,0.2440073769470312,11.772051313437851
223.0,21.076444718926215,10.78894665754016,0.24538482502814343,11.789364158591457
224.0,21.07687835310273,10.745587519614487,0.2468523872637079,11.807813779496882
225.0,21.139403255592057,10.694205280615005,0.2484099166498332,11.827399819041203
226.0,21.259240621586944,10.637993343697557,0.250057251471233,11.848122040958803
227.0,21.430549661705218,10.580110902145337,0.2517942126364026,11.86998033293975
228.0,21.64661725631677,10.523611525302456,0.2536206010875227,11.892974712957935
229.0,21.90004091156928,10.471382652032194,0.25553619505755226,11.917105335952177
230.0,22.18291198497025,10.426096385591999,0.25754074724729875,11.942372501477864
231.0,22.486999304861644,10.390170138093232,0.2596339819292428,11.968776662439792
232.0,22.803933157640476,10.365736058584053,0.26181559198104865,11.996318435045431
233.0,23.125381841316937,10.354618201484714,0.26408523587550836,12.02499861011325
234.0,23.443226553082173,10.358316497301232,0.26644253461182954,12.054818165822468
235.0,23.749727512801506,10.377997331826377,0.2688870686060434,12.085778282143835
236.0,24.03767945896419,10.414489174348049,0.27141837454835993,12.117880357116158
237.0,24.300552868677205,10.468283838024464,0.2740359422337757,12.151126025167805
238.0,24.53260895535648,10.539542061073766,0.27673921144438574,12.185517177246416
239.0,24.729028607301593,10.628103532765962,0.27952756851819643,12.221055985219875
240.0,24.885980141914885,10.733501817549948,0.2824003431634278,12.257744927705978
241.0,25.000638664657938,10.854984741861326,0.28535680579853734,12.295586814555373
242.0,25.07141703022408,10.991544788529914,0.28839616442158833,12.334584823261332
243.0,25.097704736622987,11.141926099513885,0.2915175589432681,12.374742545402752
244.0,25.079946197202624,11.304675980678837,0.29472006151375923,12.416064005166383
245.0,25.01966913280812,11.478175395141701,0.29800267309296524,12.458553708761478
246.0,24.919354808761224,11.660666819761495,0.30136431633328487,12.502216722187974
247.0,24.78230589453151,11.850302495881335,0.30480383561272123,12.547058699509737
248.0,24.612586124919986,12.045184239621744,0.30831999585688774,12.593085935797218
