Time,J,A,S,tau
0.0,100.0,100.0,0.9992081875666562,10.359931770000054
1.0,99.96784676714138,98.00877269224735,0.9989828240702212,10.103272935189798
2.0,99.93083301108017,95.9915455180173,0.9987109517558445,9.819751727122748
3.0,99.88830001698523,93.95178083279482,0.9983858936735173,9.509477847513558
4.0,99.8394780272579,91.89099382328381,0.9979999544209727,9.17222621779792
5.0,99.78346946713279,89.81084152946922,0.997544156153622,8.807765609861582
6.0,99.71927495865746,87.71306242770979,0.9970084995768973,8.415861254709187
7.0,99.64578193174742,85.5995050703217,0.9963818487317061,7.99627613806624
8.0,99.56171587439171,83.47213009214381,0.9957281357333971,7.639007797103115
9.0,99.46566384077651,81.33298733488162,0.9951640863400667,7.47588493926125
10.0,99.3560410947625,79.18422200718157,0.9945309227114323,7.3185820099790995
11.0,99.23106097681254,77.02807274676181,0.993821131151945,7.166782111422528
12.0,99.08876228170448,74.8668490778724,0.9930266343722776,7.020196856392719
13.0,98.92692756127374,72.70294811024473,0.9921385862907492,6.878572273480036
14.0,98.74314126948103,70.53881928838578,0.9911475398418362,6.741673241489667
15.0,98.53468533434608,68.37698678469287,0.9900432191156866,6.6092913831972
16.0,98.29862370283371,66.2200038749176,0.9888147302790388,6.481231287270987
17.0,98.03166877959121,64.07048401936382,0.9874502982677652,6.357318289222952
18.0,97.73029713286701,61.93104470121811,0.9859375300476517,6.23738718388077
19.0,97.39059587569062,59.80434564980705,0.984263144721825,6.121288811596354
20.0,97.00840794551493,57.693023421764714,0.9824132674791295,6.008881063023733
21.0,96.5791677769203,55.59973749524676,0.9803731788697047,5.900034440585825
22.0,96.09807660657036,53.52709547801271,0.9781276239844631,5.794624805807305
23.0,95.55994645476467,51.477708864425146,0.9756606118974088,5.692538103541701
24.0,94.9594000478688,49.45410879811264,0.9729557159965575,5.5936644438731395
25.0,94.29075833212009,47.45881537973721,0.9699959633141878,5.497902142051722
26.0,93.54824714009116,45.4942436824345,0.9667640921589051,5.405152830355486
27.0,92.72598191345145,43.56279586110407,0.9632425791478844,5.315324937590581
28.0,91.81814103947292,41.666755479363246,0.9594138101404258,5.22832960224687
29.0,90.81911047950301,39.808424180429164,0.9552603013734843,5.1440837059883835
30.0,89.72356256450762,37.990010174088866,0.9507647467940872,5.062506527430018
31.0,88.52672277459142,36.21378371658603,0.9459103787845279,4.983521758368975
32.0,87.22445532810484,34.48202323921073,0.9406810741516161,4.907055829067072
33.0,85.81336573930913,32.79719497658451,0.9350616101911102,4.83303847819642
34.0,84.29100158891424,31.16196440671846,0.9290380542764644,4.761402310752942
35.0,82.65566030365059,29.57931237152217,0.9225977382436028,4.692082471430651
36.0,80.90651288654237,28.05261345193151,0.9157298270583147,4.625016763257847
37.0,79.04335243350818,26.58569150657743,0.9084254423299541,4.560145360219927
38.0,77.06642229652762,25.1828154827244,0.900677904871213,4.497410694779006
39.0,74.97624466072794,23.84869133791635,0.8924831236439529,4.436757475418816
40.0,72.77343694868466,22.588186729224727,0.8838397460541444,4.378132430691066
41.0,70.45871623329796,21.406115458547067,0.8747494360883191,4.32148431139652
42.0,68.03307165772395,20.30683694683147,0.8652170686825896,4.266763787166205
43.0,65.49816446543966,19.293802747363998,0.8552509043002373,4.213923372280583
44.0,62.85693036181454,18.369076030238265,0.8448627231762902,4.162917353257325
45.0,60.114307677018374,17.532957342975052,0.8340678957239462,4.113701723455647
46.0,57.278228843059175,16.78359619793691,0.8228856628057184,4.06623422322813
47.0,54.35971494556212,16.11710734737743,0.8113386633534306,4.020474073317977
48.0,51.37354992098071,15.527541756643176,0.7994528409031435,3.9763936009597156
49.0,48.34103771230662,15.004417702360472,0.7870300074188067,3.93950671975764
50.0,45.286942932567555,14.535968978546991,0.773864339739819,3.9142074289963387
51.0,42.235629855419816,14.112603938609821,0.7599332009247771,3.8999675722226326
52.0,39.21215608693427,13.72530433974455,0.7452268977028564,3.8961725867910033
53.0,36.237289245395985,13.369990854637564,0.7300573913544904,3.8961763405298933
54.0,33.332008164501666,13.042336825643359,0.7146554903533382,3.8961763405298933
55.0,30.5182124032513,12.736612706284387,0.6990789835923124,3.8961763405298933
56.0,27.815813935870555,12.4479867983753,0.6833885511112829,3.8961763405298933
57.0,25.242293275609065,12.17240337273985,0.6676468894321708,3.8961763405298933
58.0,22.812310667337943,11.906470459483925,0.6519179977335136,3.8961763405298933
59.0,20.537358751744947,11.64748864986936,0.63626643356838,3.8961763405298933
60.0,18.42557731133426,11.39336817372945,0.6207565770959222,3.8961763405298933
61.0,16.481729668679222,11.142541466189467,0.605451918875797,3.8961763405298933
62.0,14.707271869567938,10.893881666513934,0.5904143875769845,3.8961763405298933
63.0,13.100643042078573,10.646628843872863,0.5757037526366721,3.8961763405298933
64.0,11.657948273065072,10.400328766437465,0.5613769866676495,3.8961763405298933
65.0,10.372592062683998,10.154769797771909,0.5474879926243007,3.8961763405298933
66.0,9.235923667361872,9.909950424154426,0.5340870484820686,3.8961763405298933
67.0,8.237983129797009,9.666031996382777,0.521220621266394,3.8961763405298933
68.0,7.367763594628483,9.423308324889424,0.5089311549667392,3.8961763405298933
69.0,6.613747120914344,9.1821751833758,0.49725701147416923,3.8961763405298933
70.0,5.96420181267064,8.94310742850562,0.48623244011825917,3.8961763405298933
71.0,5.407571981432951,8.706636518531813,0.4758876840177084,3.8961763405298933
72.0,4.932718051609255,8.473332903586769,0.4662491086215526,3.8961763405298933
73.0,4.529159697462464,8.243789478184334,0.4573394247785832,3.8961763405298933
74.0,4.187231990898326,8.018607899072887,0.44917794076750134,3.8961763405298933
75.0,3.8981743678343252,7.79838716117609,0.44178084614331387,3.8961763405298933
76.0,3.654165656622084,7.583714211836223,0.43516152809851927,3.8961763405298933
77.0,3.4483386267608163,7.37515607610225,0.429330889197532,3.8961763405298933
78.0,3.274751401534488,7.173253869376036,0.4242976574008609,3.8961763405298933
79.0,3.1283186921645814,6.978518726557018,0.42006869138283687,3.8961763405298933
80.0,3.004746061335024,6.791428914844334,0.4166492594819022,3.8961763405298933
81.0,2.9004593140074157,6.612428267939136,0.41404327919112327,3.8961763405298933
82.0,2.8125013204483778,6.441926248555891,0.41225353054378544,3.8961763405298933
83.0,2.738468141301377,6.280298781227261,0.4112818134210213,3.8961763405298933
84.0,2.676411515586604,6.127890253929836,0.41112906871370913,3.8961763405298933
85.0,2.624780168940623,5.985016198980213,0.41179543348062614,3.8961763405298933
86.0,2.5823518034323008,5.851966956914745,0.41328025435622867,3.8961763405298933
87.0,2.5481729160176125,5.7290116389204595,0.41558204604083554,3.8961763405298933
88.0,2.521512408067907,5.61640267730243,0.4186983947180843,3.8961763405298933
89.0,2.501820836151445,5.514380812340457,0.42262581060189514,3.8961763405298933
90.0,2.488692096759917,5.423180029874185,0.4273595301109362,3.8961763405298933
91.0,2.4818203537034362,5.343028823725651,0.4328933648472658,3.8961763405298933
92.0,2.481057182959173,5.274171644432954,0.4392192219188021,3.8961763405298933
93.0,2.4862419183620146,5.2168459496258315,0.4463270222495434,3.8961763405298933
94.0,2.4973524104497202,5.171321455407965,0.45420441773661874,3.8961763405298933
95.0,2.5143390604698372,5.137872201209388,0.46283609078698157,3.8961763405298933
96.0,2.5372236088036955,5.116798746425728,0.47220420564909427,3.8961763405298933
97.0,2.566024394991897,5.10843851344843,0.48228702098784504,3.8961763405298933
98.0,2.600777561708277,5.113135568028242,0.49305984859838015,3.8961763405298933
99.0,2.641500774348621,5.131302146090308,0.5044936743040564,3.8961763405298933
100.0,2.6882048382018655,5.163347532728568,0.5165558609724972,3.8961763405298933
101.0,2.7408618554683035,5.209730861961103,0.5292096691053312,3.8961763405298933
102.0,2.7993869290791293,5.270940002623325,0.5424140290867343,3.8961763405298933
103.0,2.8636444572165494,5.3474763348991035,0.5561240158310493,3.8961763405298933
104.0,2.933386062461046,5.439879939210723,0.5702908143679236,3.8961763405298933
105.0,3.0082727205285997,5.5486785719945635,0.5848618253422146,3.8961763405298933
106.0,3.0878261167697456,5.674396232393908,0.5997811716959675,3.8961763405298933
107.0,3.1714100313226714,5.817532649546172,0.61499011612586,3.8961763405298933
108.0,3.258210759312617,5.978532571196502,0.6304274896849791,3.8961763405298933
109.0,3.3472110978432044,6.15776292049582,0.6460303411142723,3.8961763405298933
110.0,3.4371753309735373,6.355478566700398,0.6617345782919175,3.8961763405298933
111.0,3.5266518664737005,6.571776668374667,0.6774756559508628,3.8961763405298933
112.0,3.6139688004761124,6.8065597397745865,0.6931893180074157,3.8961763405298933
113.0,3.6972580433249123,7.059487170152423,0.7088123325582544,3.8961763405298933
114.0,3.7744945058072883,7.329928251573591,0.7242832226916356,3.8961763405298933
115.0,3.843556013906416,7.616917464183398,0.7395429693646979,3.896176340898124
116.0,3.9033361984216985,7.918085622138105,0.7544601541963256,3.8973906491912964
117.0,3.9585522817501575,8.224996912611168,0.7685427691982024,3.907420779527439
118.0,4.009498771078356,8.533681320443451,0.7817331718736825,3.9278140505648045
119.0,4.0556652461393865,8.841182027415119,0.7940707812917052,3.958724564040558
120.0,4.09582400328346,9.145563467260777,0.8056591276931437,3.9991293656850906
121.0,4.123383422611993,9.450415627960219,0.8168728287987358,4.042103045940486
122.0,4.137090608417799,9.754106710509111,0.8277482575349255,4.086550335104257
123.0,4.13697813941519,10.054063220271518,0.8382651144906752,4.1324974516182955
124.0,4.1233356369970755,10.347875001304836,0.8484063294317331,4.179971381916717
125.0,4.09677181804804,10.633281033531402,0.8581580597777511,4.2289998878689525
126.0,4.058286576705974,10.908125014664654,0.8675096268170217,4.279611511893209
127.0,4.009147066603624,11.170488777848153,0.8764534289406711,4.331835584146538
128.0,3.950807876750749,11.41875130335511,0.8849848235394666,4.385702236447191
129.0,3.884843526318172,11.6516213958359,0.8931019440749846,4.441242396758544
130.0,3.8128712922493726,11.868157805847536,0.9008055417352913,4.4984878131324155
131.0,3.7364831154846514,12.067775481110896,0.9080987778153089,4.5574710625217865
132.0,3.657189305220212,12.250234360680308,0.9149870085447052,4.61822556558301
133.0,3.576376135217543,12.415614446863566,0.9214775605396174,4.680785604110881
134.0,3.495277456456849,12.564280758438896,0.9275795014359022,4.745186341507717
135.0,3.4149598100421263,12.69684140074763,0.9333034094941501,4.811463846160193
136.0,3.336319016973586,12.814102385761839,0.9386611482372421,4.8796551204159
137.0,3.2600857733685817,12.917021125968386,0.9436656445816392,4.949798134276011
138.0,3.186839437501441,13.006663377254919,0.9483306784539846,5.021931858581416
139.0,3.1170239756381024,13.084162626302225,0.9526706827981756,5.096096309488518
140.0,3.0509656088691868,13.150685804376128,0.9567005650644834,5.172332621834209
141.0,2.988893893594095,13.207402963502687,0.9604355273531148,5.250683120451331
142.0,2.9309635823751945,13.25546558774733,0.9638909063127858,5.3311913010359
143.0,2.877266000927529,13.295987716309527,0.9670820526386069,5.413902026831679
144.0,2.8278478521296373,13.330031425970272,0.9700241836531249,5.498861598916993
145.0,2.7827246101291805,13.358600694648,0.972732286256408,5.586117783845617
146.0,2.7418890991131106,13.382636339131778,0.9752210456781205,5.6757200324513315
147.0,2.7053222927374647,13.403008117575663,0.977504711714384,5.7677196962665205
148.0,2.6729995399009394,13.420523475747332,0.97959709931319,5.862169902710793
149.0,2.644896918500307,13.435921995990665,0.9815115005807366,5.959126185430026
150.0,2.6209949723124955,13.449878945954746,0.9832606233671608,6.058646418932188
151.0,2.6012808908060494,13.463016360303033,0.9848566633331742,6.1607908561225155
152.0,2.5857556671410036,13.475891346230728,0.9863110996612421,6.265623395223648
153.0,2.574428020933035,13.48902015341788,0.9876349252127492,6.373210334270817
154.0,2.567325786852397,13.502863333441498,0.9888384001105162,6.483622608689536
155.0,2.56448535325527,13.517844854111518,0.989931265421684,6.5969342249679634
156.0,2.565967552408273,13.534343942659058,0.9909225571135278,6.713225187402531
157.0,2.571839395878189,13.552710755642861,0.9918208432328762,6.832578817542716
158.0,2.5821983194352924,13.573255184445324,0.9926339444040538,6.955086920106099
159.0,2.597148064046398,13.596267468772178,0.9933693227784781,7.0808448777931146
160.0,2.6168195493487447,13.622003529630758,0.9940337413909884,7.209957890827547
161.0,2.641356515814356,13.65070019281092,0.9946335646709282,7.342537330723517
162.0,2.670930852562719,13.682569623039907,0.9951745949644036,7.47870575216602
163.0,2.7057292550435315,13.717805287273693,0.9956622265804559,7.618594465391676
164.0,2.745967619921498,13.756581792266621,0.996101391885946,7.7623477462215
165.0,2.791881172237199,13.799055770770249,0.9964966275786755,7.910122085935678
166.0,2.843730757711572,13.84536837463795,0.9968521015992668,8.062087991767806
167.0,2.9018067719195675,13.895643511681937,0.9971716000043696,8.218433526551907
168.0,2.9664251940963684,13.949989967486067,0.9974585950853363,8.379363774584377
169.0,3.037932422111658,14.008501594369577,0.9977162581118657,8.54510327185184
170.0,3.116708772199833,14.07125508580616,0.997947455958065,8.715900268009488
171.0,3.2031651483302133,14.138311643759689,0.9981548109649891,8.892025589567549
172.0,3.2977507773772907,14.209715303476136,0.99834069953671,9.073777328091962
173.0,3.400951777796075,14.285491226744435,0.9985072721896097,9.261482831536687
174.0,3.51329466437885,14.365645052843782,0.9986564788149962,9.45550081443774
175.0,3.6353481943870345,14.450161348303,0.998790084541164,9.656223690943131
176.0,3.7677272081428796,14.539001225302119,0.9989096825848583,9.8640809101869
177.0,3.9110945763153846,14.632099935712573,0.9990167091544412,10.079541422860274
178.0,4.066162790427908,14.729365036658278,0.999112460722805,10.303115023929854
179.0,4.233696267814023,14.830674084859814,0.9991981062663426,10.535354131317
180.0,4.414514922003964,14.93587147822089,0.9992746972359265,10.776856126629106
181.0,4.609495795116222,15.044765339926155,0.9993431777685468,11.028264466101303
182.0,4.819573008728852,15.15712578093731,0.9994043972466236,11.29026760762915
183.0,5.045738400944239,15.27268283638948,0.9994591191791419,11.563598154489386
184.0,5.289042654449142,15.39112389263928,0.9995080285227647,11.849031720370183
185.0,5.550593924389625,15.512091553268233,0.9995517384735761,12.147383818997717
186.0,5.83155308901771,15.635184077509933,0.9995907992129156,12.459503755775428
187.0,6.133129352395588,15.759955795598856,0.9996257041784327,12.786268370883054
188.0,6.456574805671244,15.885917829991634,0.9996568952312428,13.128574474986623
189.0,6.803175061581509,16.012540082239912,0.9996847670980569,13.487328277560742
190.0,7.174235597895468,16.13925655959129,0.9997096732263074,13.86343261198535
191.0,7.5710680662145675,16.26547100035999,0.9997319301305072,14.257774043063643
192.0,7.994974134464029,16.390563427549964,0.9997518209168818,14.671208423192146
193.0,8.447223454651809,16.513898895835876,0.9997695981692906,15.104542989193002
194.0,8.929029636693475,16.634838362662375,0.9997854877311989,15.558520014474698
195.0,9.441527045514023,16.7527493974039,0.9997996916749621,16.03380156261833
196.0,9.985745258107848,16.86701742001941,0.9998123906393517,16.53095393954924
197.0,10.5625781576005,16.97705858457708,0.9998237457634415,17.050430732071835
198.0,11.172752425522642,17.082332903580976,0.9998339007093536,17.59255861474594
199.0,11.816815965533864,17.182350678001992,0.9998429845100217,18.157538350057298
200.0,12.495101706614676,17.276686013105607,0.9998511120480722,18.7454269026158
201.0,13.207694395732064,17.364987288574593,0.9998583854576854,19.35613464712478
202.0,13.954444444904405,17.44697539477478,0.9998648965823448,19.989435242213734
203.0,14.734942108994098,17.5224486673823,0.9998707274165859,20.644971466854077
204.0,15.548502739265665,17.59128856006181,0.9998759509012914,21.322251126330745
205.0,16.394175046559937,17.653453788621228,0.9998806321437422,22.020668601054098
206.0,17.27075463668393,17.708975781266602,0.9998848294709841,22.73951672156768
207.0,18.176782985173865,17.757955687356006,0.9998885947154493,23.47800009892609
208.0,19.110585238822257,17.80055251353411,0.9998919744456338,24.23525581513843
209.0,20.070263786659396,17.836982028423147,0.9998950098126518,25.010363575029103
210.0,21.05375363123657,17.867500795149358,0.9998977377741921,25.8023689626812
211.0,22.058841617044166,17.89239990106586,0.9999001913514063,26.610295883916645
212.0,23.083189979489664,17.91199799762266,0.9999023997149705,27.433161714666948
213.0,24.124171740532738,17.926291109812297,0.9999043891846922,28.269989282842143
214.0,24.07007120757217,16.271605647707364,0.9999061830512841,29.1198188515451
215.0,23.9952030660044,14.737575795217259,0.9999078021194633,29.981716869387583
216.0,23.926092349985666,13.350766252975276,0.9999092649335966,30.854783678322814
217.0,23.862341611268263,12.096734514489283,0.9999105880181673,31.738159150574656
218.0,23.803564965518554,10.962486863151627,0.9999117861039616,32.631026579918434
219.0,23.74939128422517,9.936356816890507,0.9999128723176383,33.53261555237068
220.0,23.699466435466842,9.007836716495875,0.9999138583601496,34.44220323388628
221.0,23.65345491060768,8.167480531711512,0.999914754661473,35.35911486105505
222.0,23.611040775059497,7.406772791192123,0.9999155705196662,36.28272327927565
223.0,23.571928099122275,6.718048412463791,0.9999163142270859,37.21244777389001
224.0,23.53584102589071,6.094392886136301,0.9999169931784815,38.14775255221943
225.0,23.50252338319375,5.529573932682956,0.9999176139734864,39.088144564970705
226.0,23.471738205767544,5.017967238225845,0.9999181825006724,40.03317144915899
227.0,23.44326685618787,4.554496641243839,0.9999187040201868,40.98241886032639
228.0,23.41690824773239,4.134580282287052,0.9999191832293647,41.935508220641125
229.0,23.3924777306011,3.754077627291826,0.9999196243287276,42.89209394237172
230.0,23.369806178031048,3.4092508836059334,0.999920031073606,43.85186118458063
231.0,23.348738820254574,3.096718776779256,0.9999204068262532,44.8145232197606
232.0,23.329134294914873,2.8134282990152824,0.9999207545968617,45.77981930984055
233.0,23.310863541985448,2.55661559400838,0.9999210770842814,46.74751235466707
234.0,23.293808880869435,2.3237843551634434,0.9999213767088856,47.71738694628087
235.0,23.277863024137464,2.1126736288278907,0.9999216556441336,48.68924735211018
236.0,23.2629282184439,1.9212404811746346,0.999921915843058,49.6629157755283
237.0,23.24891539767216,1.7476341522074443,0.9999221590626107,50.63823067272313
238.0,23.235743407562055,1.5901814855569891,0.999922386885076,51.61504522752802
239.0,23.22333829635269,1.4473666817579431,0.9999226007368175,52.593225971377066
240.0,23.21163263152988,1.317818564670214,0.9999228019056006,53.57265146783783
241.0,23.20056491410679,1.2002951219137192,0.9999229915550564,54.553211191938246
242.0,23.190078988447386,1.0936720577596117,0.9999231707386698,55.53480441227216
243.0,23.180123561292454,0.9969313181835157,0.9999233404110095,56.517339283024235
244.0,23.17065170099907,0.9091506447667526,0.9999235014389765,57.500731907388044
245.0,23.161620441489333,0.8294952693825447,0.9999236546106217,58.48490559822236
246.0,23.15299036371067,0.7572083805836043,0.999923800644148,59.46979010310441
247.0,23.144725269531147,0.6916052268734746,0.9999239401948835,60.45532100122563
248.0,23.136791832125212,0.6320650473751561,0.9999240738625329,61.441439061423836
249.0,23.129159327413486,0.5780257137011272,0.9999242021967177,62.428089749572834
250.0,23.12179934586467,0.528978039132234,0.9999243257027794,63.415222702919166
