Time,J,A,S,tau
0.0,100.0,100.0,0.7531738539114642,9.433962264150944
1.0,94.42820482209143,95.81116921189528,0.7540920065932035,8.896748673841959
2.0,89.00535584350524,91.76773109788186,0.755021068747915,8.33226766601772
3.0,83.7351167749707,87.8714696868992,0.7559593367581982,7.740659531225527
4.0,78.61802920261718,84.12161246236013,0.7569056804681736,7.121749333967459
5.0,73.65481367034381,80.51770055631155,0.7578590434999893,6.475368566867017
6.0,69.00260817399086,76.90125970605459,0.7586977769679908,5.870296258576791
7.0,65.64853018430392,72.29315156919608,0.7586392220113815,5.7669639962823895
8.0,62.4066575975758,67.88295159319414,0.7585756116831472,5.666738799547811
9.0,59.27708700084558,63.668147498939796,0.7585077899704222,5.5695186044384855
10.0,56.25972201798333,59.64531501457155,0.7584364951509683,5.4752071598421015
11.0,53.35497247382033,55.81153915675347,0.7583623631098276,5.383715166350859
12.0,50.56288212590648,52.16280690301728,0.7582859533840445,5.2949573302529815
13.0,47.88418913872358,48.69608665871151,0.7582077457751771,5.208854188370823
14.0,45.3197434950856,45.40720335561296,0.7581281649351704,5.125329359582842
15.0,42.871511638128666,42.29251638898872,0.7580475782741963,5.044310791240054
16.0,40.54205552004579,39.34808362819498,0.7579663066204626,4.965729563484136
17.0,38.33485474704305,36.570272447786195,0.7578846326479675,4.889519720647582
18.0,36.25481101353725,33.956114796199614,0.7578028021125341,4.815618369910614
19.0,34.30744470196329,31.502980002043646,0.7577210318402884,4.743964968342943
20.0,32.49910661209989,29.209209957591643,0.7576395120903171,4.674501433905554
21.0,30.836289865188657,27.07428855934747,0.7575584104520372,4.607171907221531
22.0,29.3246725129911,25.099076922101432,0.7574778747320715,4.5419226134501525
23.0,27.967795801525412,23.286011088281693,0.7573980354835882,4.478701749109061
24.0,26.76525809374732,21.639121353363898,0.7573190082060677,4.417459372307407
25.0,25.710866105726822,20.163838628215284,0.7572408952671377,4.358147317776213
26.0,24.790806854858218,18.866330908719338,0.7571637877503423,4.30071906815102
27.0,23.98291583590991,17.75260531586278,0.7570877666058851,4.2451297385055735
28.0,23.25707776729821,16.826944881188375,0.7570129040137364,4.191335986967361
29.0,22.57787607803085,16.09008220898288,0.756939264472127,4.139295961158711
30.0,21.908629784952357,15.537109787926918,0.7568669056948915,4.088969245620712
31.0,21.21688006065884,15.155856751280222,0.7567958794524993,4.0403168116386325
32.0,20.479527936037314,14.926053652433033,0.7567262322521933,3.9933009756504454
33.0,19.686528826801236,14.820007690423868,0.7566580059734831,3.9478853551408455
34.0,18.841900496593652,14.804775517748435,0.7565912383840327,3.9040348348560494
35.0,17.961789647053404,14.845669559843225,0.7565259636144761,3.861715530429865
36.0,17.07018990663383,14.9102610823229,0.756462212563216,3.8208947557057047
37.0,16.193620339585763,14.971967833778411,0.7564000132504886,3.781540992196364
38.0,15.35617599879612,15.012415257956121,0.7563393911273366,3.743623860553816
39.0,14.576045617568656,15.022139417959275,0.7562803693452703,3.7071140937246816
40.0,13.863977427979394,14.999674450489145,0.7562229690011537,3.6719835065164985
41.0,13.22334907325808,14.9496029851159,0.7561672093290361,3.6382049812918935
42.0,12.651558288987424,14.880051753141368,0.7561131078978752,3.605752435893111
43.0,12.141907800000503,14.800396858464437,0.7560606807678666,3.574600800266765
44.0,11.685500243605324,14.719427491627497,0.7560099426272503,3.5447259984035258
45.0,11.272898548943685,14.644147685526116,0.7559609069186717,3.5161049262892394
46.0,10.895402678763354,14.579201719581013,0.7559135859443077,3.4887154351750214
47.0,10.545855414636625,14.526835650538775,0.7558679909654709,3.4625363091411994
48.0,10.218993298278471,14.487223040876092,0.7558241322879612,3.4375472458477825
49.0,9.911444274031094,14.459007013916928,0.7557820193342806,3.413728841364429
50.0,9.621444188602718,14.439929751798942,0.7557416607111312,3.391062571590871
51.0,9.348416137406709,14.427428117079979,0.755703064257695,3.36953078180112
52.0,9.092400292978061,14.41909871519631,0.7556662371098335,3.3491166643018215
53.0,8.85365417813938,14.412998461967483,0.7556311857436586,3.329804242912891
54.0,8.6323169763955,14.407786012765028,0.7555979160115168,3.3115783666012084
55.0,8.428236945111395,14.402701976928174,0.7555664332010558,3.2944246630237295
56.0,8.240869374497793,14.397515575862181,0.755536741968574,3.278329618204849
57.0,8.069338593515266,14.39229303824181,0.7555088465239435,3.2632804269991365
58.0,7.912508163784547,14.387302808311482,0.7554827505445403,3.2492650758733816
59.0,7.769113225469561,14.382855706094523,0.7554584572116522,3.2362723249862753
60.0,7.637861270570471,14.379209545844388,0.755435969258878,3.2242916701004254
61.0,7.517518835295083,14.376525665193313,0.7554152889795734,3.2133133265605935
62.0,7.406987296901227,14.374846927806514,0.7553964182124793,3.203328246633592
63.0,7.305297614816645,14.374112034966798,0.7553793583837728,3.194328108859335
64.0,7.211618488424365,14.3741876216545,0.7553641105226688,3.1863052827065745
65.0,7.125250830701343,14.374898354620745,0.7553506752576662,3.179252825203999
66.0,7.045603393127925,14.376058845436896,0.7553390527962379,3.173164511277182
67.0,6.972141848925541,14.377496251187178,0.7553292429963974,3.1680347910894784
68.0,6.9044034034546815,14.379064008375629,0.7553212453178304,3.1638587503390134
69.0,6.841951014222863,14.380650217433281,0.755315058826268,3.1606322079814535
70.0,6.784369618604194,14.382173115222164,0.7553106822759642,3.15835159073534
71.0,6.731282363728636,14.383580374110227,0.7553081139583127,3.1570140014035135
72.0,6.682317123268798,14.384841612356071,0.7553073518741547,3.1566172141277775
73.0,6.637135643827063,14.385941180886539,0.7553083936167797,3.1571595838289177
74.0,6.59542072979964,14.38687599583829,0.75531123639837,3.158640201774716
75.0,6.556879180716664,14.387649557225695,0.7553158771330318,3.1610586868451587
76.0,6.52125715389411,14.388271336706858,0.7553223122226531,3.1644154048647355
77.0,6.488316754756529,14.388756125071225,0.7553305378521611,3.1687112372030604
78.0,6.457861031796576,14.389124139398694,0.7553405496666715,3.1739477841388366
79.0,6.4297054609553745,14.38940225526485,0.7553523431042823,3.1801271962027293
80.0,6.4037104577531405,14.389625008214587,0.7553659129708842,3.187252331138493
81.0,6.379734172857733,14.389832990643773,0.7553812539757787,3.1953265100180426
82.0,6.357685461516901,14.390080786852838,0.7553983600718294,3.2043539285536498
83.0,6.33746876479735,14.39042463552859,0.7554172251088199,3.2143390230303988
84.0,6.319006309772974,14.3909364563446,0.7554378423765602,3.2252872339690533
85.0,6.3022865178585885,14.391701374495014,0.7554602044735194,3.2372044702710325
86.0,6.2872723843535026,14.392805825593705,0.7554843039056932,3.250097026400302
87.0,6.273929436704704,14.394348234296757,0.7555101326273442,3.263972086986438
88.0,6.262240979868065,14.396433088132824,0.7555376821364325,3.2788373141672187
89.0,6.252199526792495,14.399173389437166,0.7555669433675141,3.294701074806531
90.0,6.243899779681888,14.402708173621102,0.7555979065066647,3.311572346002966
91.0,6.237331337050183,14.407160130307583,0.7556305616723994,3.3294604338815557
92.0,6.232546254721565,14.412675965217733,0.7556648979549402,3.3483757022148906
93.0,6.22968344726874,14.419421530080777,0.755700904027643,3.3683287730443134
94.0,6.228739652933586,14.42754081320793,0.7557385680657639,3.3893309691182827
95.0,6.229858825037188,14.437216051150228,0.7557778773366419,3.4113943056432103
96.0,6.233078164724303,14.44861154548366,0.7558188186618959,3.4345312650381388
97.0,6.238575041445701,14.461926828143973,0.7558613778239447,3.458755109137856
98.0,6.246415004671668,14.477344523808563,0.7559055401475234,3.484079497431034
99.0,6.256782742042382,14.495079702462409,0.7559512897441315,3.5105189377082264
100.0,6.269790483589269,14.515337490575698,0.7559986102209385,3.538088286862958
101.0,6.285609879198245,14.538343631378057,0.7560474837995356,3.5668032765964424
102.0,6.304442211158551,14.564334332964448,0.7560978920452887,3.5966800092472657
103.0,6.32643698923035,14.593543338699297,0.7561498151035314,3.6277353742755527
104.0,6.351764600000118,14.626214397723846,0.7562032321579297,3.6599867335685796
105.0,6.380671211284171,14.662612956425235,0.7562581208271952,3.693452183412394
106.0,6.413316221646282,14.702992691866324,0.7563144575151163,3.728150321292898
107.0,6.449996939464372,14.74764163061728,0.7563722169230066,3.764100433345829
108.0,6.490886978047902,14.796831258892748,0.7564313720799074,3.801322375710261
109.0,6.536305641977601,14.850866875316541,0.7564918942482233,3.839836611373775
110.0,6.586478866323209,14.910044088656067,0.7565537523901648,3.8796642617731787
111.0,6.641711925189164,14.974679389452291,0.7566169135964157,3.920826971090767
112.0,6.702320755827158,15.045099607991682,0.7566813419721277,3.9633471159584026
113.0,6.768577696817987,15.121629628013004,0.7567469994012656,4.007247548317742
114.0,6.840900501264,15.204629654578635,0.756813844199797,4.052551878076369
115.0,6.9195860201263475,15.294444517111934,0.7568818316724653,4.099284216799906
116.0,7.00503853139481,15.391447481043608,0.756950913291639,4.147469340365395
117.0,7.097652228706856,15.4960175671114,0.7570210360896964,4.197132670001205
118.0,7.197816459207814,15.608542118735922,0.757092142736458,4.248300200607374
119.0,7.306027285636689,15.7294341429307,0.7571641705754182,4.300998606705085
120.0,7.422737990435052,15.859109974573526,0.7572370508441894,4.355255204967608
121.0,7.54842253410323,15.997998816345596,0.7573107087134797,4.411097913045841
122.0,7.683663295121171,16.146557677427598,0.7573850616772483,4.46855537816425
123.0,7.828986736839757,16.305245108106703,0.7574600188218796,4.527656901196742
124.0,7.984969989039544,16.47453786748075,0.7575354806356435,4.588432440816532
125.0,8.152288662196948,16.65494001903933,0.7576113364915799,4.650912756886698
126.0,8.331558245361746,16.846957095588547,0.7576874641133688,4.71512930648537
127.0,8.523478594437314,17.05111873414051,0.7577637288233442,4.781114308200979
128.0,8.72882305963508,17.267978776793345,0.7578399798676871,4.848900890931226
129.0,8.948312050503588,17.49809367453706,0.7579160502376325,4.918522979633951
130.0,9.182785226173976,17.742050240266966,0.7579917547516052,4.990015440128794
131.0,9.433114531396466,18.00045288013033,0.758066885123308,5.063414220178857
132.0,9.700140232027259,18.27391171736894,0.758141210170344,5.138756254607714
133.0,9.984844833953398,18.563070801021503,0.7582144718116653,5.216079711965178
134.0,10.288200305648795,18.868583872252753,0.7582863789855779,5.295424127633399
135.0,10.611172250769888,19.191113471268846,0.7583566080729727,5.376830353939345
136.0,10.954873853982903,19.53135524824417,0.7584247954897403,5.460340948694804
137.0,11.320369350433541,19.89000609803117,0.7584905308428069,5.546000305231485
138.0,11.708739553068058,20.267772959117046,0.7585533570602901,5.633854676892913
139.0,12.121196385282369,20.66538932096889,0.7586127577691018,5.723952776848329
140.0,12.558868865118589,21.08358053266647,0.7586681505158998,5.816345902223588
141.0,13.022918996035148,21.523079424733165,0.7587188854309745,5.911088087022688
142.0,13.514596229971804,21.984631955678314,0.7587642252029937,6.008237013859474
143.0,14.035037778272079,22.46896400359328,0.7588033397033866,6.107854113935737
144.0,14.58541697447222,22.97680053677124,0.7588353008499018,6.2100049564116135
145.0,15.166920518090635,23.508858102164705,0.7588590530841491,6.314760592825165
146.0,15.780597509493424,24.06581592239885,0.7588734110992711,6.422197598725195
147.0,16.427513444325196,24.648336690438338,0.7588770466909948,6.532398910901683
148.0,17.108646308738845,25.257041219471454,0.7588684489581774,6.645455695256239
149.0,17.82481135213013,25.892490238332527,0.7588459263896278,6.7614673129890415
150.0,18.57677347776648,26.555197761528138,0.7588075822898446,6.880542785224777
151.0,19.365117482064324,27.24559210494777,0.7587512528591411,7.002803936533423
152.0,20.19021071482852,27.96401089517011,0.7586745520205953,7.128383263941581
153.0,21.052336976569585,28.7107000390872,0.7585747392649937,7.2574313241318515
154.0,21.951361023833577,29.48575505491743,0.7584488217290747,7.390110961798402
155.0,22.887076415035093,30.28914130594543,0.7582932920044235,7.526612863326955
156.0,23.85895759339673,31.12069659818297,0.7581044509026206,7.667137256379491
157.0,24.8659680621289,31.97996633834409,0.7578778928314869,7.811923513942026
158.0,25.907029541614286,32.86641071103073,0.7576089213764585,7.961227841963625
159.0,26.98040721837288,33.77913585772495,0.757292176568306,8.115344186922314
160.0,28.084139959327594,34.71704717642018,0.7569217880462237,8.274597161794645
161.0,29.21578020831231,35.67870079910199,0.7564911298364584,8.439357945737969
162.0,30.372535428515036,36.66236764393344,0.7559929849200937,8.610035064927512
163.0,31.55117357184868,37.66594661322913,0.7554193430265411,8.787089019137875
164.0,32.748049120658294,38.68694104513737,0.7547613935900143,8.971034811415072
165.0,33.9591598880981,39.722467501138546,0.7540095486336201,9.16244245235097
166.0,35.18012646618541,40.76920988077864,0.753153347024914,9.361946701392815
167.0,36.40624349186201,41.823392281406136,0.7521814491916742,9.570251123454373
168.0,37.632551908024226,42.88081166748166,0.7510817110904237,9.788126162409805
169.0,38.8538560623133,43.936808592530994,0.7498411431597417,10.016418016470285
170.0,40.064815617329906,44.98627374812752,0.7484459843142155,10.256049819225849
171.0,41.26001699953408,46.02371349258713,0.7468818507132696,10.508015357456651
172.0,42.43403153142603,47.043259261431004,0.7451338114567064,10.773383346335633
173.0,43.581524623534904,48.038732168538466,0.7431866044894971,11.053291405799296
174.0,44.69731085490356,49.0037448540967,0.7410248768007347,11.348933039398528
175.0,45.77643589193293,49.93177375173753,0.7386334384937724,11.661552210286489
176.0,46.814271627504766,50.81629596607157,0.7359976672013777,11.992425016886965
177.0,47.80653651877954,51.65091235964965,0.7331038086559517,12.342839293685543
178.0,48.749374407353706,52.42948440787841,0.7299394175403864,12.714075593282478
179.0,49.63941061168572,53.146324586377084,0.726493914929609,13.107374392313044
180.0,50.473728686589176,53.79629713287391,0.7227588298334755,13.523912766087019
181.0,51.24992686236818,54.37497880947214,0.7187283179136731,13.964773795551864
182.0,51.966127507635406,54.87883858741832,0.7143996866692092,14.430905863203288
183.0,52.620923011322226,55.3052576290728,0.7097734017540355,14.923106559857436
184.0,53.21341484791113,55.65263404914025,0.7048534446594468,15.441993906053005
185.0,53.74319351874284,55.92053102242983,0.6996477111466533,15.987958628689812
186.0,54.2102499603253,56.109393978138534,0.6941670975968669,16.56121129910969
187.0,54.615068028289805,56.22091382878132,0.6884265919324366,17.1616817364593
188.0,54.95846778160332,56.25750590142141,0.6824435909601893,17.789126243903777
189.0,55.24168585682465,56.222587152461344,0.6762386490413383,18.44303784626481
190.0,55.466256775452145,56.12016981585903,0.6698341503199204,19.12273921742202
191.0,55.02578138685369,41.3463959413225,0.6632543311605693,19.827341803908364
192.0,53.29134445170198,15.722409591336728,0.6565242770199043,20.555824202449173
193.0,51.678497471520835,6.247253869773107,0.6496695928395515,21.307027474421854
194.0,50.17867143750728,2.7161712555234727,0.6427157587991674,22.079700310921048
195.0,48.783460433721714,1.3751627725853046,0.6356876580654806,22.872527316467163
196.0,47.4847215663022,0.8432206161507996,0.6286091597133072,23.684158160779415
197.0,46.274655579808346,0.6122385482489604,0.6215027825651647,24.513234040346042
198.0,45.14586777341659,0.4951786376036547,0.6143894423802565,25.358410733205993
199.0,44.09141006899046,0.42308015563198337,0.6072882795022158,26.218377859555925
200.0,43.10480596288846,0.3703908162500208,0.6002165601145176,27.09187424817204
201.0,42.18006064152815,0.32751226198344263,0.5931896416665968,27.977699539428585
202.0,41.31165885346356,0.2907100616052522,0.5862209914719865,28.874722332128933
203.0,40.494553131158575,0.2584112764423501,0.5793222473268855,29.78188528853307
204.0,39.724144160369896,0.2298098836674014,0.5725033114490554,30.698207534667358
205.0,38.996256997440454,0.20443429677529099,0.5657724632552262,31.622785120786485
206.0,38.30711303516792,0.1819197868006596,0.5591364889739571,32.55478962099746
207.0,37.65330062434739,0.16195680811728827,0.5526008166894404,33.49346554406645
208.0,37.03174506788715,0.14427096629962158,0.5461696530705533,34.43812682458115
209.0,36.43967894373545,0.12861431418250227,0.5398461174602778,35.38815270386738
210.0,35.87461344436842,0.1147620623064057,0.5336323702767088,36.34298325355193
211.0,35.33431119215849,0.10251091543959621,0.5275297336924619,37.302114739457615
212.0,34.816760822419006,0.09167779626355749,0.5215388033365717,38.2650949782038
213.0,34.32015349279018,0.0820985661918677,0.5156595503800518,39.23151879952393
214.0,33.842861376914584,0.07362666698830357,0.5098914138337413,40.201023694556774
215.0,33.383418126588204,0.06613170469909509,0.5042333832282951,41.17328570377932
216.0,32.940501234808536,0.059498019486749286,0.49868407208374116,42.148015577213314
217.0,32.51291619782891,0.05362328209281233,0.49324178273097613,43.12495522331569
218.0,32.09958235350201,0.048417148081859006,0.4879045631385696,44.10387445079471
219.0,31.699520262510067,0.04379999101415777,0.4826702564411273,45.08456799874896
220.0,31.31184049580291,0.039701727197809,0.4775365438732984,46.06685284434894
221.0,30.935733693516905,0.03606073806382562,0.4725009817967529,47.05056577319729
222.0,30.570461766131036,0.03282289134284043,0.46756103347428535,48.03556119503041
223.0,30.215350116336285,0.029940658804594317,0.46271409620185444,49.02170918616159
224.0,29.86978076908728,0.02737232604448887,0.4579575243604944,50.008893739692994
225.0,29.533186307060106,0.025081301006515302,0.45328864889927123,50.997011204826165
226.0,29.20504451786707,0.023035476065623967,0.4487047937090003,51.98596889717823
227.0,28.884873668662543,0.021206655443535904,0.4442032892973597,52.975683862962114
228.0,28.57222833434756,0.019570091691946317,0.43978148413142204,53.96608178141885
229.0,28.266695711825868,0.018104057404639322,0.4354367539689059,54.957095990643566
230.0,27.967892358508355,0.016789390982805324,0.43116650945455975,55.94866662280012
231.0,27.675461317539245,0.015609423915131548,0.42696820226256715,56.94073983972055
232.0,27.38906955495368,0.014549447363302194,0.42283932994520307,57.933267151461486
233.0,27.10840569066403,0.013596410762723277,0.4187774396999331,58.92620481308805
234.0,26.83317798986898,0.012738906545074914,0.41478013124993807,59.919513290893
235.0,26.563112577695538,0.011966977132778979,0.4108450589648486,60.91315678877547
236.0,26.29795183688387,0.011271727081848147,0.40696993328769976,61.907102825195416
237.0,26.03745298146028,0.010645317586870503,0.403152521631604,62.90132185777276
238.0,25.78138678355006,0.01008084548242184,0.3993906488279595,63.89578694956681
239.0,25.529536430683855,0.00957217086514725,0.3956821971883481,64.8904734711635
240.0,25.281696508751565,0.009114117903797759,0.3920251063154436,65.88535883589616
241.0,25.03767207752262,0.008701919351841659,0.38841737260299036,66.88042226122118
242.0,24.797277823076517,0.008331298266067672,0.3848570484468186,67.87564455231171
243.0,24.56033732245447,0.007998697853305805,0.3813422414898588,68.87100791213074
244.0,24.326682363311665,0.00770085098921627,0.37787111365254666,69.86649576740747
245.0,24.096152309384493,0.007434830093345253,0.3744418799510917,70.86209260839745
246.0,23.868593546505764,0.007198206791312638,0.3710528074213355,71.85778384619384
247.0,23.643858973927685,0.0069888027084511195,0.3677022139830709,72.85355568112884
248.0,23.42180751717028,0.006804596869226381,0.364388467100176,73.8493949788609
