Time,J,A,S,tau
0.0,100.0,100.0,0.6583019305664292,17.543859649122805
1.0,97.5388977835121,97.91133174328657,0.6581136028459716,17.50901329453169
2.0,95.12986547597946,95.86210094549007,0.6579149564318035,17.472290935479958
3.0,92.7749036921881,93.85407659443281,0.6577063577497769,17.43376256679292
4.0,90.47299625735796,91.88649224607056,0.6574878432133674,17.393437103153982
5.0,88.2231139050181,89.95857640979182,0.6572594505519889,17.351323647284445
6.0,86.02421243832562,88.06955748135827,0.6570212236897092,17.30743218712426
7.0,83.87534583406904,86.21872077602443,0.6567732109437405,17.26177335361776
8.0,81.77552209800643,84.40532876127318,0.6565154615289645,17.21435789865304
9.0,79.72374764232107,82.62865152940904,0.6562480320583817,17.16519762408114
10.0,77.71912352050983,80.88801237982283,0.6559709826618417,17.11430484447443
11.0,75.76069517269437,79.18270719052802,0.6556843746795998,17.06169203684923
12.0,73.84753029138142,77.51205114958759,0.6553882772030247,17.007372773865775
13.0,71.97877539265892,75.8754028880003,0.6550827621194422,16.951361033777697
14.0,70.15351399589593,74.27209029622236,0.6547679029607728,16.8936710160292
15.0,68.37087588909239,72.7014714343839,0.6544437811374626,16.834318031734554
16.0,66.63005307134627,71.16293788296933,0.6541104802262906,16.77331770506782
17.0,64.93020165769349,69.65586469313156,0.6538191165933487,16.720195967848056
18.0,63.270486732333104,68.17963490195496,0.6536632511233733,16.69237762379215
19.0,61.65011226555341,66.7336540562047,0.6535087850738913,16.664864199488836
20.0,60.06829667851603,65.31733549648065,0.6533557661315699,16.637662527788738
21.0,58.52427600431896,63.93010209412151,0.653204241305621,16.610779263902366
22.0,57.01734475966452,62.57140608146479,0.6530542571810378,16.58422095197452
23.0,55.54674737975687,61.24067513706486,0.6529058600317322,16.557994059313362
24.0,54.111812411883136,59.9373751379566,0.652759095129714,16.532104810066446
25.0,52.711897666505855,58.66098574121471,0.6526140075718081,16.506559386070144
26.0,51.346314975102274,57.41096243537307,0.6524706419281339,16.48136384871267
27.0,50.01448472377742,56.186804572641236,0.6523290417401693,16.45652402866143
28.0,48.715840531584256,54.98801720010083,0.652189250431083,16.432045730180267
29.0,47.449790392773586,53.8140874032725,0.6520513106999148,16.40793460377936
30.0,46.21586780469049,52.664547332829464,0.6519152642617543,16.384196095211525
31.0,45.0135993840337,51.53892619365369,0.6517811527518176,16.36083563332022
32.0,43.84251430337123,50.43674280053816,0.6516490168733691,16.337858462511846
33.0,42.70229316678819,49.35756410509244,0.6515188963394184,16.315269635578648
34.0,41.59260721633281,48.30095352137281,0.6513908308130546,16.293074195333805
35.0,40.51311915302237,47.26645918675427,0.6512648590436126,16.271277014805467
36.0,39.46367961340458,46.25368061395057,0.651141018607765,16.24988275478564
37.0,38.44414369698739,45.26221874309259,0.6510193470154019,16.228896063870565
38.0,37.454343634284825,44.29165821068336,0.6508998809723118,16.20832145002786
39.0,36.49433510905965,43.34163739556338,0.6507826558259603,16.18816319018829
40.0,35.564196800850716,42.411801082043816,0.6506677068147855,16.168425542872875
41.0,34.663961920719494,41.501778228990254,0.6505550684991788,16.149112654582098
42.0,33.79391908480986,40.61125611302039,0.6504447739142777,16.130228427014078
43.0,32.95440792336922,39.739934608951515,0.6503368559117237,16.111776732884845
44.0,32.14572070926768,38.88750544996559,0.650231346705283,16.093761345709293
45.0,31.368372410079488,38.0537144831218,0.6501282770890653,16.076185822439264
46.0,30.622913056226412,37.23831795642916,0.650027677624247,16.059053684962077
47.0,29.909923510917537,36.44109463638223,0.6499295777839157,16.042368295422204
48.0,29.23019867408639,35.66187700913574,0.6498340060764639,16.026132875914065
49.0,28.58448057706086,34.90050079007179,0.6497409906172259,16.010350592864512
50.0,27.973644688961244,34.15685913464484,0.6496505582108667,15.995024428785076
51.0,27.39860013084857,33.430867230299086,0.6495627351994256,15.980157302220364
52.0,26.860316405481413,32.72249732168201,0.6494775467302245,15.96575196965625
53.0,26.35981834842745,32.03175423249515,0.6493950173891152,15.951811111991416
54.0,25.898100786372005,31.35870018435443,0.6493151706412259,15.938337262755994
55.0,25.476237218688965,30.703444205187434,0.6492380292701593,15.925332866175395
56.0,25.095170025129946,30.066150507753477,0.6491636150501746,15.912800237654832
57.0,24.75591997037434,29.44704651038609,0.6490919489278436,15.9007415869807
58.0,24.45927665429373,28.84641013919784,0.6490230509720806,15.88915901506011
59.0,24.206068436550435,28.264599563303893,0.6489569402690226,15.878054500576711
60.0,23.996807320321093,27.702016912518857,0.6488936351614873,15.86742993241306
61.0,23.831949904254834,27.159159559418487,0.6488331528679505,15.8572870630148
62.0,23.71156367768755,26.636558230738853,0.648775510012423,15.847627574759263
63.0,23.63550565596701,26.134860914971362,0.6487207218468591,15.838452987474975
64.0,23.603375296550254,25.654742504094777,0.6486688032078428,15.829764772756986
65.0,23.614128624229394,25.19697000848687,0.648619767631012,15.821564252098323
66.0,23.66650354963993,24.762363659137666,0.6485736279850103,15.813852670161673
67.0,23.758559874889556,24.351811563579176,0.6485303960535679,15.806631148760824
68.0,23.88786080183167,23.96625047716289,0.6484900828031409,15.799900717742199
69.0,24.051439174078045,23.606674332724243,0.6484526981982266,15.793662294717942
70.0,24.245629179476992,23.274108420508252,0.6484182513148375,15.787916699187655
71.0,24.466153084255563,22.969605927923094,0.6483867502959645,15.782664647865449
72.0,24.708106985296734,22.694233145220434,0.6483582023618775,15.777906756527706
73.0,24.96597439430794,22.449051958264356,0.6483326137820251,15.773643537551754
74.0,25.23362723862433,22.235098128041628,0.6483099899167919,15.769875405159732
75.0,25.504422728429873,22.05336021034465,0.6482903351923474,15.766602673041321
76.0,25.77127641230894,21.90475427866577,0.6482736531083512,15.763825555665443
77.0,26.026769607748076,21.79009470938526,0.6482599462386515,15.761544168742127
78.0,26.26327951190955,21.7100645595323,0.6482492162326836,15.759758529702667
79.0,26.47313399652473,21.665180892910456,0.6482414638171761,15.758468558157881
80.0,26.648784283349155,21.655760892954508,0.6482366887975609,15.757674076266847
81.0,26.78299150160138,21.68188547598493,0.648234890059225,15.75737480903954
82.0,26.86901775507247,21.74336315485475,0.6482360655719431,15.75757038492911
83.0,26.90082222663283,21.839695455130798,0.6482402123927027,15.758260336183362
84.0,26.873247288292376,21.970044161732265,0.6482473266689107,15.759444099189427
85.0,26.782183646957023,22.13320294346512,0.6482574036442083,15.761121015048184
86.0,26.624724660454877,22.327569753423212,0.6482704376540435,15.763290329016797
87.0,26.399241706967032,22.551143664535278,0.6482864221573941,15.765951193701312
88.0,26.105562783245077,22.801487863102327,0.6483053496748572,15.769102662132543
89.0,25.74486392336152,23.075757788990053,0.6483272118615034,15.772743695562006
90.0,25.31968575534592,23.37071819044747,0.6483519995077403,15.776873162967492
91.0,24.83391377188206,23.682746705838728,0.6483797025007523,15.78148983673513
92.0,24.292636093028054,24.007886588892962,0.6484103098499585,15.786592394878447
93.0,23.70197096047072,24.341907143023338,0.6484438097163165,15.792179423780755
94.0,23.068918698110593,24.68036093475415,0.6484801893881393,15.798249415039889
95.0,22.401142700923792,25.018667446437828,0.6485194352992052,15.804800766848754
96.0,21.706753618651337,25.352202257145287,0.6485615330341018,15.811831783969595
97.0,20.994088405007748,25.67639402651644,0.6486064673349949,15.819340677805348
98.0,20.27149463276841,25.98682558770614,0.6486542221086428,15.8273255664526
99.0,19.547128367698157,26.279334951537933,0.6487047804336514,15.835784474736762
100.0,18.82877225759454,26.550111982483788,0.6487581245678826,15.84471533421948
101.0,18.12367935113245,26.795786285460558,0.6488142359559181,15.854115983168299
102.0,17.438447893292754,27.01350161610914,0.6488730952374404,15.863984166593713
103.0,16.778928081006995,27.200973058384257,0.6489346822553603,15.874317536212102
104.0,16.15016087539346,27.356525884068056,0.6489989760642025,15.885113650400061
105.0,15.55635173612066,27.47911066878378,0.6490659549387153,15.896369974136814
106.0,15.00087278676396,27.568298680212525,0.6491355963826922,15.908083878933809
107.0,14.486296503344397,27.62425387050024,0.6492078771404712,15.920252643070155
108.0,14.0144387634491,27.647694419297213,0.6492827731974795,15.932873450397967
109.0,13.586448088051267,27.63982334728041,0.6493602598072096,15.945943392483496
110.0,13.202857610996785,27.602265748053238,0.64944031148991,15.959459467114375
111.0,12.863670539836399,27.537008117587238,0.649522901994722,15.97341857183054
112.0,12.568514340090685,27.44627544957849,0.6496080044467254,15.987817522023656
113.0,12.3166145185987,27.332509313817813,0.6496955911735331,16.002653026243987
114.0,12.106984411594052,27.19825890048447,0.6497856338698261,16.017921706837743
115.0,11.938399211429806,27.04613713575096,0.6498781035315672,16.033620089498665
116.0,11.80951077490564,26.878762112249063,0.6499729704701385,16.049744603499185
117.0,11.71886415269837,26.6987145227159,0.6500702043534525,16.0662915858312
118.0,11.664926695984942,26.5085059679988,0.650169774200265,16.083257278810514
119.0,11.64611427698307,26.310548323395157,0.6502716483662948,16.10063782607296
120.0,11.660800779618114,26.107143131049753,0.6503757945936757,16.118429278099683
121.0,11.707317840282633,25.900472977939287,0.6504821800208862,16.13662759209311
122.0,11.783953971230082,25.692590000227643,0.6505907711595132,16.155228626315587
123.0,11.88894188809533,25.4854187713813,0.6507015339281246,16.174228143316
124.0,12.020447423524576,25.28076289952582,0.6508144336802449,16.193621812615984
125.0,12.176563217412635,25.08030451880317,0.6509294351926285,16.21340520677717
126.0,12.355285809719657,24.88560681333468,0.6510465026685974,16.233573799565306
127.0,12.554504303617547,24.698125403058683,0.6511655997802663,16.254122971092087
128.0,12.771998900053024,24.51921183660334,0.6512866896731982,16.27504800668106
129.0,13.005431741191954,24.35011276131316,0.651409734947077,16.296344090783663
130.0,13.252329887846097,24.191979187755173,0.6515346977099421,16.3180063146781
131.0,13.510098766843798,24.04586602312778,0.6516615395684686,16.34002967233649
132.0,13.776025695182193,23.912734082605457,0.6517902216464151,16.362409061536344
133.0,14.04729224938105,23.79344965304178,0.6519207045939521,16.38513928318438
134.0,14.32098645531166,23.688782843505294,0.6520529485989814,16.40821504097526
135.0,14.594123678905683,23.59940618811974,0.6521869134039375,16.43163094225966
136.0,14.863674671382475,23.525891913527122,0.6523225583184692,16.455381498105
137.0,15.126596242156563,23.468708303240383,0.6524598422320081,16.47946112335027
138.0,15.3798680515898,23.42821524268355,0.6525987236255224,16.503864136456432
139.0,15.62053280213465,23.404658481186654,0.6527391605813299,16.52858475880457
140.0,15.845732459279995,23.398165346163598,0.6528811107995559,16.553617115664636
141.0,16.052754592501675,23.408740270562443,0.653024531611788,16.57895523655783
142.0,16.239075677138665,23.436260261664234,0.6531693799938119,16.60459305543589
143.0,16.40240420503925,23.48047085026457,0.6533156125782075,16.630524410833992
144.0,16.540722546413733,23.54098215063573,0.6534631856661947,16.65674304577313
145.0,16.65233014773673,23.617264966563358,0.6536120552372028,16.683242606890403
146.0,16.735864687612214,23.70865200860713,0.6537621769674857,16.710016646365826
147.0,16.790316591565393,23.8143452370726,0.653913506254938,16.737058626625945
148.0,16.815117273252344,23.9333996109758,0.6540659981932966,16.764361907078793
149.0,16.810037088521288,24.064751008199444,0.6542196076350918,16.791919762294253
150.0,16.775323646642004,24.20720421109705,0.6543742891627727,16.81972536676325
151.0,16.71156547531731,24.35945537796185,0.654529997130261,16.84777180695052
152.0,16.619785917135264,24.520095677947317,0.6546866856608274,16.876052074802466
153.0,16.501348807273672,24.687629306043043,0.6548443086646659,16.90455907147606
154.0,16.35795984439198,24.86049001382187,0.6550028198581891,16.933285610380253
155.0,16.191648360996663,25.037054143126266,0.6551621727605207,16.962224409603657
156.0,16.004702425637642,25.215666983842922,0.6553223207191334,16.991368099108364
157.0,15.799627719659982,25.394660439195018,0.6554832169258323,17.020709223319578
158.0,15.579111451512976,25.572376039182597,0.6556448144185392,17.050240235989435
159.0,15.345966326604097,25.747188362480664,0.6558070660999873,17.07995350394417
160.0,15.10308238586147,25.91752720723571,0.6559699247508851,17.109841308399215
161.0,14.853380708225291,26.08189878623054,0.6561333430423664,17.139895845903002
162.0,14.599767849042525,26.238906342492147,0.6562972735483096,17.17010922907645
163.0,14.345091507501083,26.38727102212161,0.6564616687572806,17.200473486605834
164.0,14.09210585857854,26.525847773694604,0.6566264810860071,17.23098056540019
165.0,13.843438147748408,26.653638270667535,0.6567916628923801,17.261622332144572
166.0,13.601561647937848,26.7698013537724,0.6569571664876471,17.29239057450627
167.0,13.368769348940516,26.873662495237678,0.6571229441488606,17.323277001902568
168.0,13.147157730226066,26.964718959222438,0.6572889481312228,17.354273246213523
169.0,12.938618120146387,27.042639418433843,0.6574551306807219,17.385370864298192
170.0,12.744829519201703,27.10726061543853,0.6576214440464125,17.416561339606062
171.0,12.567257434369038,27.158582367240395,0.6577878404920726,17.447836083761725
172.0,12.407143578353898,27.19676219900167,0.6579542723102698,17.479186436941028
173.0,12.265524301464906,27.222104655101766,0.658120691832876,17.51060366990216
174.0,12.143237223953486,27.23504694725229,0.658287051443153,17.542078986613873
175.0,12.040924917897433,27.236142774792345,0.6584533035856147,17.573603528285407
176.0,11.95902861222118,27.226063596863252,0.6586194007910815,17.60516836498438
177.0,11.897862922152749,27.205555325011787,0.6587852956545261,17.636764517841247
178.0,11.857507539396785,27.17546266491787,0.6589509409118279,17.66838292941553
179.0,11.837966510788506,27.13666927491667,0.6591162893580121,17.70001450774316
180.0,11.83904797307169,27.09012719278271,0.6592812939658764,17.73165008211001
181.0,11.86047031839277,27.036810352795538,0.6594459077885996,17.763280449895475
182.0,11.901802588591368,26.97772507071133,0.6596100840767903,17.794896338587723
183.0,11.962513308574849,26.913886525230286,0.6597737761985732,17.82648844169348
184.0,12.041958613388314,26.84631424083934,0.6599369377175824,17.858047396622013
185.0,12.139398781796427,26.776023824201083,0.6600995223500682,17.889563804424746
186.0,12.25398148607245,26.70401574925906,0.6602614840413366,17.92102821700612
187.0,12.384773283445057,26.631274816530958,0.6604227768969031,17.952431155081033
188.0,12.53073976598372,26.55875755298963,0.660583355278376,17.983763096921493
189.0,12.690762158782206,26.487394062750496,0.6607431737396812,18.01501449174454
190.0,12.86363810719224,26.41808074778229,0.660902187079721,18.046175756921368
191.0,13.048077885280408,26.351674919657754,0.661060350356122,18.077237280879192
192.0,13.242715619619549,26.28899678121258,0.6612176188635153,18.108189429147085
193.0,13.446117300323412,26.23082277667771,0.6613739481761355,18.139022544517207
194.0,13.656772571941147,26.177882389209937,0.6615292941526102,18.169726950764222
195.0,13.873112843938786,26.130861122372504,0.6616836129187531,18.20029295710899
196.0,14.093521645263296,26.090391969576906,0.6618368609204747,18.230710859531243
197.0,14.316327866637799,26.05705543519256,0.6619889949092536,18.26097094517514
198.0,14.539831168139635,26.031381840309013,0.6621399719370599,18.291063495507554
199.0,14.762313600525971,26.013840694739955,0.662289749413048,18.32097878943988
200.0,14.982036138457287,26.004844769441895,0.6624382850710481,18.350707107084087
201.0,15.197273159612315,26.00474898484812,0.6625855369828835,18.380238732684795
202.0,15.406319985309578,26.013840490708883,0.6627314636080828,18.40956395938296
203.0,15.607496662800337,26.032345292897105,0.662876023750596,18.438673091473426
204.0,15.799187977973002,26.060423608128723,0.6630191765931507,18.467556448441872
205.0,15.979845286758685,26.098162514672726,0.6631608817292658,18.496204370341186
206.0,16.147996157080005,26.145584168642753,0.6633010991191656,18.524607218528924
207.0,16.302286794125518,26.20263775199015,0.6634397891435396,18.55275538193402
208.0,16.44147610371862,26.269197229070812,0.6635769126109259,18.580639281514618
209.0,16.56444857236687,26.345069348126668,0.6637124307221203,18.60824937024603
210.0,16.670252433708008,26.42998433572589,0.6638463051347804,18.635576141782554
211.0,16.758089662681247,26.523598006947505,0.6639784979581694,18.662610134020586
212.0,16.827322504694866,26.6255038592702,0.6641089716967927,18.689341925474828
213.0,16.87752642354864,26.73521072860073,0.6642376894149323,18.715762157545015
214.0,16.90840247751752,26.85218183078526,0.6643646144890579,18.741861507739355
215.0,16.91991808570071,26.975789672225496,0.6644897109810456,18.767630740305098
216.0,16.912177905222634,27.105371048648664,0.6646129432422646,18.793060657139275
217.0,16.88547057610981,27.24019672771715,0.6647342762085393,18.81814214126648
218.0,16.84031478933094,27.379484150591978,0.6648536753618697,18.842866154963396
219.0,16.77733637286197,27.522420780195674,0.6649711065452362,18.867223715196392
220.0,16.69737636647519,27.66814605866952,0.6650865362616941,18.891205942442927
221.0,16.601401235118058,27.81577817047074,0.6651999314455824,18.91480402817687
222.0,16.4905308539133,27.964411323772094,0.6653112596169084,18.93800926307905
223.0,16.366002220415183,28.113131367573597,0.6654204888070414,18.960813028004
224.0,16.229154547850136,28.261019838774295,0.6655275875971162,18.98320680351854
225.0,16.081420021646885,28.407167402185884,0.6656325251324882,19.005182176068647
226.0,15.924295305070968,28.550679197073475,0.6657352710833051,19.026730833227866
227.0,15.75932578357161,28.69068797657301,0.6658357957320068,19.047844584345533
228.0,15.588089588008428,28.82636126049097,0.6659340699131907,19.068515351691197
229.0,15.41217288391727,28.95690717726773,0.6660300650194375,19.088735174293298
230.0,15.23315296896259,29.081589982080807,0.6661237530792046,19.10849622800217
231.0,15.052589445738104,29.199729607289576,0.6662151066746569,19.127790810608143
232.0,14.87199504796306,29.310710444220984,0.6663040989890083,19.146611355234242
233.0,14.692828558369948,29.413992841572302,0.6663907038483027,19.164950443170476
234.0,14.516489800671465,29.509106553595966,0.6664748956421822,19.182800788207082
235.0,14.344287236134582,29.59566400642948,0.6665566494050601,19.200155259006166
236.0,14.17744801294325,29.673360587311343,0.6666359408108475,19.217006880785682
237.0,14.0171089348754,29.741968464766416,0.6667127461162264,19.233348823964313
238.0,13.864290693566328,29.801348209946685,0.6667870422612161,19.249174432647518
239.0,13.719919124771682,29.851440645687656,0.6668588068168649,19.264477213793896
240.0,13.584813613890256,29.892261375117158,0.6669280179603114,19.27925083327946
241.0,13.459663937781771,29.92391161900908,0.6669946546012979,19.293489152766263
242.0,13.345076516997127,29.946556576413695,0.6670586962263337,19.307186189335535
243.0,13.241516406006417,29.960435999904224,0.6671201230467529,19.320336159963095
244.0,13.149373026020433,29.965849578858077,0.667178915908472,19.33293345689901
245.0,13.068893389423357,29.963156995854455,0.6672350563581118,19.344972671596114
246.0,13.000273612952556,29.95276505376348,0.6672885265513357,19.356448566406765
247.0,12.943532242366198,29.935139188845294,0.6673393095554334,19.36735617096142
248.0,12.898678816295883,29.910762646387774,0.6673873887063612,19.377690589799474
