Time,J,A,S,tau
0.0,100.0,100.0,0.1953876164847181,25.0
1.0,90.9523689264966,97.55587839306692,0.1929281305867087,24.741596567613506
2.0,82.66612581378865,95.16646643302144,0.19043951846213442,24.477751097389273
3.0,75.08599466392732,92.83149731073736,0.18792527282393698,24.20865375820687
4.0,68.15715086169492,90.5498990634677,0.18538768579268644,23.934373405130675
5.0,61.82847199690911,88.32061584516723,0.18282906294266688,23.654981315760118
6.0,56.05234144035111,86.14260773152259,0.18025171808564464,23.370551191865623
7.0,50.7845557123048,84.01485114657234,0.17765796788692867,23.081159140080352
8.0,45.984033163327226,81.93633810503002,0.17505012669452452,22.786883643877946
9.0,41.612657848004154,79.90607613649894,0.17243050131319115,22.487805559794634
10.0,37.635176618755956,77.92308860117052,0.16980138587588692,22.184008088969456
11.0,34.01895090906762,75.98641395010097,0.16716505694017791,21.87557674525727
12.0,30.73383653012082,74.0951057669913,0.16452376844917593,21.56259934530786
13.0,27.752077412782462,72.24823296125254,0.16187974707471442,21.24516597135463
14.0,25.048099389318338,70.4448790580365,0.1592351877152985,20.923368935603033
15.0,22.598420060683793,68.68414235066861,0.156592248840736,20.597302763567047
16.0,20.38154385836868,66.96513596253912,0.15395304848152594,20.2670641487197
17.0,18.377793696631073,65.28698717925707,0.15131966023831664,19.932751913264397
18.0,16.569243598313918,63.64883769894735,0.1486941091949639,19.594466984187395
19.0,14.939617312135574,62.04984356270704,0.14607836867330748,19.252312340647617
20.0,13.474169638555981,60.48918149004343,0.14507693638745703,19.133037890337345
21.0,12.159556176182729,58.96603409924653,0.1444424551060984,19.064761469446648
22.0,10.983839658604586,57.47960066795522,0.14382483306195443,18.9984112611973
23.0,9.936329121227892,56.029096220387224,0.14322412880057978,18.9339835140746
24.0,9.007521367663008,54.61375107787058,0.14264039551133545,18.871474281339378
25.0,8.18899955664706,53.232811067178595,0.1420736812688531,18.810879438273744
26.0,7.473381030042271,51.88553865041249,0.14152402918492543,18.752194695580275
27.0,6.854212226037675,50.571213385182816,0.14099147764437292,18.695415615518012
28.0,6.3258926824444925,49.289133080357495,0.14047606045392344,18.640537624759705
29.0,5.883607896813051,48.03861527754428,0.13997780705022328,18.58755602837134
30.0,5.523235256970686,46.81899855454617,0.13949674266895656,18.536466022632403
31.0,5.241278266688894,45.62964457731613,0.1390328885069793,18.487262706976733
32.0,5.03479096299794,44.46994011335857,0.1385862619005049,18.439941095978693
33.0,4.90128314426865,43.33929892511389,0.1381568764959433,18.39449613097684
34.0,4.838661871057992,42.23716451709736,0.13774474238800194,18.35092269018494
35.0,4.845153585314217,41.16301254379666,0.1373498662798513,18.309215599075507
36.0,4.919233015961698,40.116353300976186,0.13697225163346374,18.2693696400394
37.0,5.059565308130963,39.096734411539565,0.13661189880068328,18.231379561142397
38.0,5.264942056997526,38.10374361317168,0.13626880512972672,18.195240084563267
39.0,5.53410347889738,37.13700916070055,0.1359429651725032,18.16094591807441
40.0,5.865820114347779,36.19619981354016,0.1356343709568298,18.12849175871424
41.0,6.258951201303902,35.281041184205804,0.13534301127747753,18.097872297592392
42.0,6.712044825033158,34.39128500841576,0.13506887348294358,18.06908223265832
43.0,7.223144138568235,33.526746984041864,0.1348119415613174,18.042116285952194
44.0,7.792279597041708,32.687304837575226,0.13457219667194129,18.016969137517293
45.0,8.416704124214823,31.87284364160085,0.13434961939028375,17.99363554834236
46.0,9.094204695444681,31.083311613683605,0.13414418728296834,17.972110288564565
47.0,9.822161631233378,30.31869286639159,0.13395587615719484,17.952388162240947
48.0,10.597800030537568,29.579011285949726,0.1337846598005135,17.93446400404217
49.0,11.418100088997338,28.864325736692276,0.13363051009935759,17.918332684351036
50.0,12.279763905006703,28.174726058394324,0.13349339706844984,17.90398911394365
51.0,13.179118947559155,27.510325950424573,0.13337328901466955,17.89142824893816
52.0,14.112215940374512,26.87125845635313,0.1332701525684966,17.880645089727746
53.0,15.074796356371404,26.25767010173704,0.13318395270556965,17.871634685559307
54.0,16.062364849325117,25.669714957752323,0.13311465278432036,17.864392134052213
55.0,17.07020306672498,25.107547998790206,0.1330622145835428,17.858912582821283
56.0,18.093384153637867,24.571318097101432,0.13302659834664118,17.85519123085151
57.0,19.12681055724729,24.061161193385878,0.1330077628124878,17.853223328876535
58.0,20.165261779162954,23.577193572461,0.13300566523311008,17.853004179298466
59.0,21.203438988364145,23.1195050664142,0.13302026139077316,17.854529135967656
60.0,22.236011932274938,22.68815243442142,0.13305150561022364,17.85779360363842
61.0,23.257666968043413,22.28315315462752,0.13309935076619986,17.862793037108506
62.0,24.263157197245544,21.904478711123748,0.13316374828548636,17.869522940021216
63.0,25.247358603502473,21.552049416300655,0.13324464813468082,17.877978863123626
64.0,26.205299142779253,21.22572878863962,0.13334199882997447,17.88815640313995
65.0,27.132199739183676,20.925318980390745,0.1334557474367223,17.900051200745267
66.0,28.023544068371955,20.650556438811115,0.1335858395157186,17.913658937462525
67.0,28.87508755419883,20.401109049309532,0.13373221914958044,17.928975333563706
68.0,29.68288052103222,20.176573022625096,0.1338948289310019,17.945996146149433
69.0,30.44339719411983,19.976472116249433,0.1340736098079728,17.964717161122234
70.0,31.153414669356927,19.80025376984033,0.13426850121503545,17.985134197249327
71.0,31.810090031355845,19.64729049992274,0.1344794409946869,18.007243099868784
72.0,32.411004618829715,19.516885416956697,0.13470636539095482,18.03103973364351
73.0,32.95424242196004,19.408264133727656,0.13494920870230706,18.056519977543147
74.0,33.43810970182294,19.320585805326125,0.1352079039498725,18.08367973670879
75.0,33.86164068024697,19.25294538595318,0.13548238176562444,18.112514901813213
76.0,34.223992471650035,19.20437212701644,0.13577257156558473,18.14302139415763
77.0,34.524977246951025,19.173845447613562,0.1360784004325334,18.17519510977738
78.0,34.76466281789351,19.16028610582573,0.13639979381230388,18.209031960052595
79.0,34.943622183636336,19.162579799364448,0.13673667506061263,18.24452782829062
80.0,35.06278442920644,19.17956610104328,0.13708896539872223,18.28167859126024
81.0,35.123452199808575,19.210062013392704,0.1374565842372186,18.320480100599152
82.0,35.12731715228062,19.252855954490084,0.13783944835342773,18.36092817384974
83.0,35.076374661424936,19.3067244392113,0.13823747290575364,18.403018607754007
84.0,34.972948225275616,19.37043468659394,0.13865057007189238,18.446747138413368
85.0,34.81965646259103,19.442752974079767,0.13907865038060527,18.49210947953587
86.0,34.61931998155243,19.522453582282218,0.13952162124642672,18.53910126409631
87.0,34.375045342343796,19.608322794961005,0.13997938813956992,18.587718089045197
88.0,34.090079452803884,19.69916684947386,0.14045185377013292,18.63795547440035
89.0,33.76784404608961,19.79382029160235,0.14093891811628537,18.6898088657073
90.0,33.41189210844549,19.891147676528927,0.14144047869057755,18.74327363659136
91.0,33.02579882437413,19.990052213894874,0.14195643004714273,18.798345063681737
92.0,32.61324128409845,20.08948184971786,0.14248666390812734,18.855018333123905
93.0,32.177899078464435,20.18842826405335,0.14303106928874115,18.913288536376726
94.0,31.723380057987477,20.285938557053676,0.14358953196978702,18.973150644135355
95.0,31.253309782847857,20.381115154197985,0.14416193480243145,19.034599519605838
96.0,30.771192313891675,20.47311600063614,0.14474815764965066,19.097629905655186
97.0,30.280410329806696,20.561166406984025,0.145348076920569,19.162236402790597
98.0,29.784276360395708,20.644553043042816,0.1459615659848309,19.228413485877166
99.0,29.285889671938985,20.722627466360315,0.1465884949060541,19.29615548084342
100.0,28.7882124970368,20.794814366048747,0.14722873015045168,19.365456553127252
101.0,28.294058882447647,20.86060193309275,0.1478821350037837,19.436310721976056
102.0,27.805990448775038,20.919549401177434,0.14854856912225206,19.508711828282962
103.0,27.326425759761715,20.97128779777489,0.14922788848052482,19.58265353649511
104.0,26.857586450283023,21.015511025068704,0.1499199457003575,19.65812934195377
105.0,26.401448781731535,21.051984626107714,0.1506245894711952,19.73513253306524
106.0,25.95984624651704,21.080539018430517,0.15134166476561167,19.81365620771421
107.0,25.534403744746527,21.101063657820703,0.15207101301198941,19.893693270497625
108.0,25.126521280035533,21.113515491948583,0.15281247135238163,19.975236385593735
109.0,24.73748435573979,21.11790262317503,0.15356587342822717,20.058278028567386
110.0,24.368343080604873,21.114289856245147,0.15433104879927464,20.142810430379942
111.0,24.020047354954,21.102794782803475,0.15510782277209764,20.22882558608929
112.0,23.69333074940672,21.083575381835804,0.1558960172329394,20.31631526905582
113.0,23.388858193107755,21.05684013323994,0.15669544912347938,20.40527097467381
114.0,23.10707992082985,21.02282796655216,0.15750593222554995,20.49568397153216
115.0,22.848444505386638,20.981817169011155,0.15832727542653666,20.587545266011748
116.0,22.613151023982965,20.934116944915758,0.15915928330372162,20.680845526139812
117.0,22.401431085244788,20.88005284325021,0.1600017578684812,20.775575309080324
118.0,22.21337244002187,20.819986749487104,0.16085449396113358,20.871724677395857
119.0,22.048963930688704,20.754285744726786,0.16171728495498663,20.969283548216016
120.0,21.908200136657776,20.68333661754605,0.1625899189885751,21.068241573332873
121.0,21.7909649147305,20.607538698110435,0.1634721783504837,21.16858791901284
122.0,21.697112478984582,20.52729317476798,0.1643638442004549,21.27031167539768
123.0,21.626446097096512,20.443011761306,0.165264690380422,21.373401480929168
124.0,21.578756310064623,20.355103426318024,0.16617448729047737,21.47784561710698
125.0,21.553776361412606,20.26397936658947,0.167093002878741,21.583632250494592
126.0,21.551209818818805,20.17004628401319,0.16801999724788924,21.69074896219186
127.0,21.570806404992364,20.073705332537248,0.1689552290503281,21.799183138739
128.0,21.612182316723153,19.97535530545487,0.16989845205373966,21.908921898785174
129.0,21.67503227017973,19.87538013157832,0.17084941372358375,22.019951781056857
130.0,21.75905731320858,19.774160616941522,0.1718078605554195,22.132259228317434
131.0,21.863801016967557,19.67206552418575,0.17277353202605403,22.24583020988646
132.0,21.988985553650135,19.569448536344616,0.17374616378592106,22.360650249404518
133.0,22.13422660089307,19.466659916603184,0.17472548952143918,22.47670475955336
134.0,22.299066677458317,19.36402938883309,0.17571123515824352,22.593978516232003
135.0,22.483246387183762,19.261877525066577,0.17670312502531807,22.712456035597146
136.0,22.686255469174647,19.160516083338052,0.17770087929967007,22.83212158297148
137.0,22.9077086821835,19.060234996602613,0.17870421176060935,22.952958759374425
138.0,23.147301101280075,18.961320111484397,0.179712835385105,23.074951042905354
139.0,23.40443771759341,18.864040805605402,0.1807264569670028,23.198081442331187
140.0,23.67879773784951,18.76865068317995,0.18174477932476082,23.322332427496182
141.0,23.969964121554913,18.675399328927245,0.18276750386138713,23.447686362462235
142.0,24.277330999629925,18.584515316087828,0.18379432498355205,23.574124946194495
143.0,24.600603409789976,18.49621947648801,0.18482493543125808,23.701629538910733
144.0,24.939161660823732,18.410724290191062,0.18585902483066163,23.830181294569503
145.0,25.292473835947817,18.3282223576371,0.1868962767220786,23.9597605897408
146.0,25.660230618448836,18.248903470972326,0.18793637412278938,24.090347622220253
147.0,26.041695959661947,18.172945887610453,0.1889789960502769,24.221922278427552
148.0,26.436316522588022,18.100510979269625,0.19002381640183508,24.354463642949135
149.0,26.8437229062098,18.031758927395703,0.1910705088852909,24.487950671522437
150.0,27.263079098274478,17.966836584245986,0.19211874293991632,24.622361919996834
151.0,27.69381967618742,17.905877766772875,0.1931681841593988,24.757675154368066
152.0,28.135499514118624,17.849015579388194,0.19421849800032925,24.893868040973143
153.0,28.58719207997934,17.796368461139,0.19526934565578563,25.03091774784301
154.0,29.0483139870307,17.74804546366787,0.19632038578449143,25.16880067754761
155.0,29.51833327977082,17.704154787197748,0.19737127686013065,25.30749315096121
156.0,29.996248889028177,17.664789117412106,0.19842167343209613,25.44697088292346
157.0,30.481456070650342,17.630034914861643,0.19947122878912396,25.5872088570142
158.0,30.97333059324888,17.599977181578918,0.20051959592397936,25.728181981117388
159.0,31.470818794157775,17.57468501797649,0.20156642462479124,25.869864440182667
160.0,31.97329431232862,17.55422385217176,0.20261136458275833,26.012229730038843
161.0,32.48004147308856,17.538656708912463,0.2036540650675949,26.15525126363109
162.0,32.98998075740365,17.528030740926184,0.20469417326977823,26.298901604932137
163.0,33.50246724372528,17.522391352691013,0.20573133726951273,26.443152677773725
164.0,34.01670105407083,17.521780359284755,0.20676520464608436,26.58797630074253
165.0,34.531606678191416,17.526224110603255,0.20779542242690868,26.73334330877275
166.0,35.046526803925886,17.53574854916749,0.2088216392822092,26.879223952006996
167.0,35.56059065373255,17.55037466309217,0.2098435034211923,27.02558833481076
168.0,36.07275769347107,17.570108743002415,0.21086066438878645,27.17240543631501
169.0,36.58236701332401,17.594957503799293,0.21187277385312336,27.319643712369537
170.0,37.088495537787345,17.62492119980967,0.212879483265409,27.46727141016011
171.0,37.590167576016896,17.659986533035397,0.21388044757211164,27.615255507074995
172.0,38.086728705844585,17.700141009630745,0.21487532403422582,27.76356252455299
173.0,38.577228286363564,17.745364120055008,0.2158637702481739,27.912158683975623
174.0,39.06078008031112,17.795623311056726,0.21684544957984386,28.061008797583384
175.0,39.53674474604803,17.85088676794849,0.2178200276308851,28.2100772930964
176.0,40.00418160762006,17.911113239873224,0.2187871713385883,28.359328169548455
177.0,40.46230346747865,17.9762510760887,0.21974655553308692,28.508723897506677
178.0,40.910499036979736,18.04624917662765,0.22069785704967135,28.65822663133793
179.0,41.34787418551898,18.121045717952967,0.2216407555380335,28.807797929417138
180.0,41.77374595685937,18.200570217952013,0.22257494033825315,28.95739773051705
181.0,42.187544626357486,18.28475245262148,0.22350010249354857,29.106985719159663
182.0,42.588454225577166,18.373510441779295,0.22441593780628596,29.256520778089087
183.0,42.97589853032819,18.466755335185994,0.22532215310179704,29.405960115228034
184.0,43.34936205834378,18.56439811488324,0.2262184566174689,29.555260735969245
185.0,43.70813204576116,18.66633746491256,0.22710456369514287,29.704378603076506
186.0,44.05173873616721,18.77246690076685,0.22798020146284093,29.853267992522873
187.0,44.37972862084808,18.882679232377114,0.22884509812958784,30.00188303370365
188.0,44.691495598174946,18.996854892451555,0.2296989914317158,30.150176575017344
189.0,44.98668240757103,19.114870357663044,0.23054163228826505,30.298099642003763
190.0,45.264948392481124,19.236601871818443,0.23137277237550785,30.44560316046891
191.0,45.52578560178712,19.361914416264785,0.23219217182836782,30.59263701775349
192.0,45.76890960391277,19.490667279420386,0.23299960886708782,30.739148664761537
193.0,45.99410050083175,19.62272037844281,0.23379486371374256,30.88508526791628
194.0,46.20104014493963,19.757928213127567,0.23457771963155197,31.030393691420915
195.0,46.38944022871705,19.896134107161426,0.23534798077295518,31.175018150119367
196.0,46.55917224064944,20.037182496083414,0.23610545944250602,31.318901704373566
197.0,46.71008947202189,20.180916756648887,0.23684996830547686,31.46198740275275
198.0,46.84198123285902,20.32717007945501,0.23758133437481724,31.604216658714638
199.0,46.95478321316234,20.47577379419415,0.23829940258083301,31.745528450179723
200.0,47.048454337542225,20.62655981384452,0.23900401891876638,31.885861585320384
201.0,47.122920682007894,20.779355021491057,0.23969503487541757,32.02515437886407
202.0,47.178169896964405,20.933980723196388,0.24037232487305227,32.16334223087593
203.0,47.214240378161215,21.090259546630435,0.2410357691309255,32.30035965360988
204.0,47.23117037354313,21.248012962183235,0.24168524888194673,32.43614111238677
205.0,47.229028048718845,21.407056461333834,0.24232066287820583,32.57061911319846
206.0,47.20792013712237,21.56720642546521,0.24294192448625515,32.70372404631636
207.0,47.16795597080444,21.728279494566372,0.2435489475262759,32.835386219809536
208.0,47.10929224338838,21.890089070372834,0.24414165381331268,32.96553525118088
209.0,47.03210965031236,22.052448097943625,0.24471998563231087,33.09409805230935
210.0,46.936577400606495,22.21517067999217,0.24528388849003419,33.22100096209623
211.0,46.82289640669261,22.378070119622723,0.24583330984004334,33.34617022314563
212.0,46.69134511960852,22.54095867499529,0.2463682145397252,33.46953016212757
213.0,46.54214829710309,22.703650854956834,0.24688857659406738,33.591003614668125
214.0,46.3755334770755,22.865961209000297,0.2473943702454727,33.71051339108391
215.0,46.19184637314757,23.027703949459706,0.24788557896237445,33.827981581155065
216.0,45.99138905931779,23.18869624662168,0.2483622000070012,33.94332837322591
217.0,45.774426709574804,23.348756029643248,0.24882423172849452,34.05647368064399
218.0,45.541298239488285,23.50770135262689,0.249271675329457,34.16733730614113
219.0,45.29242081082319,23.66535356459142,0.24970454490935018,34.27583782082033
220.0,45.02810021274398,23.82153621430226,0.250122857711959,34.38189312127262
221.0,44.748658851641984,23.976072926732403,0.25052663141614867,34.485421097460964
222.0,44.454583557753494,24.128790261785998,0.2509158915179395,34.58633932314256
223.0,44.14625115370231,24.279518979243594,0.25129066807195294,34.68456483224451
224.0,43.82399914853108,24.428090157787626,0.25165099088468634,34.78001460987265
225.0,43.4882866576743,24.574336439253834,0.25199689297036915,34.872605661677504
226.0,43.13961215846657,24.718096409807476,0.25232841145332624,34.96225528819247
227.0,42.77834460182837,24.859210025212658,0.2526455817552773,35.048880928899585
228.0,42.404890140700985,24.9975176538245,0.25294844011012424,35.1324000279091
229.0,42.01983561851681,25.13286528865333,0.2532370257627908,35.21273084291178
230.0,41.623609882260624,25.26510260356787,0.25351137311640315,35.28979279592522
231.0,41.216612126638395,25.394079303438843,0.25377151583755125,35.363505382425366
232.0,40.79940834266387,25.519648520318917,0.2540174898898669,35.43378858728644
233.0,40.37254103230603,25.641669868946067,0.2542493240064715,35.50056504417943
234.0,39.936436653485515,25.7600033617302,0.2544670425636206,35.563758131782066
235.0,39.491581561381125,25.874510077880622,0.2546706709310325,35.62329131666055
236.0,39.03862939446735,25.985058644688188,0.2548602296687597,35.67909092688982
237.0,38.578051899548434,26.091519877612182,0.25503572730964424,35.731086131605906
238.0,38.110307078498536,26.193764569839185,0.2551971717995427,35.77920620318283
239.0,37.63602686314461,26.29166891996978,0.25534456919274284,35.823382270122096
240.0,37.15577866705209,26.385114410865224,0.25547791007537657,35.86355025115641
241.0,36.6700542524593,26.47398224779409,0.25559718127953623,35.89964680858019
242.0,36.179489721506734,26.5581584251583,0.25570236727194195,35.9316104722994
243.0,35.68465784119186,26.637534148271477,0.25579343465791815,35.959385521744046
244.0,35.18606886800836,26.71200058116686,0.2558703458292511,35.982917247703824
245.0,34.68437494034833,26.781454004666397,0.2559330598632193,36.002153226736816
246.0,34.180161351209506,26.845796161204095,0.25598151577492523,36.017047846358864
247.0,33.67395295960505,26.90492875270761,0.25601564812763844,36.027556658732145
