Time,J,A,S,tau
0.0,100.0,100.0,0.48822269298937576,23.809523809523807
1.0,96.95162021986917,93.11466844861677,0.4883752705330123,23.770625929001053
2.0,93.99191658632928,86.69416881965653,0.48853356766349615,23.730302556417527
3.0,91.11983615976042,80.7105788472776,0.4886974479606052,23.68859098321873
4.0,88.33297355584324,75.13462573898327,0.48886687873686985,23.645502101340455
5.0,85.62908936366226,69.93895668067317,0.48904182551393577,23.60104725260225
6.0,83.00621038114966,65.09802361634007,0.48922225201945607,23.555238226273488
7.0,80.46280522585927,60.58796627264469,0.4894081201839476,23.508087256646665
8.0,77.99806917660564,56.38650263154745,0.48959939013832754,23.459607020423533
9.0,75.61235174841373,52.4728254633897,0.4897960202122074,23.409810633901156
10.0,73.30775279843425,48.82750676455234,0.4899979669325531,23.35871165005097
11.0,71.08889350312178,45.43241048733001,0.49020518502323535,23.306324055362737
12.0,68.96383309877628,42.270606228376536,0.4904176274058142,23.25266226639468
13.0,66.94506854525123,39.32629045064883,0.4906352452007432,23.197741126214652
14.0,65.05051270760656,36.58471281212938,0.4908579877293487,23.1415759006538
15.0,63.30431631276938,34.0321072225472,0.49108580251660716,23.084182274371287
16.0,61.73741406339552,31.655634052927066,0.4913186352918278,23.02557634737918
17.0,60.3875324902345,29.443304549170435,0.491556430001646,22.965774628797167
18.0,59.298740791121595,27.383929021291877,0.491799128808706,22.904794033870004
19.0,58.52037009192688,25.467069306445516,0.49204667209661596,22.842651879521696
20.0,58.105378499939754,23.682995312372682,0.4922989984764707,22.779365879551975
21.0,58.10814066058232,22.022630212011467,0.4925560448000726,22.714954138405005
22.0,58.5818985614707,20.47750612440353,0.4928177461676495,22.649435146182718
23.0,59.57610476247767,19.03973308717998,0.49302369836892596,22.59806408898719
24.0,61.13339541696222,17.70193386616885,0.49313367336046837,22.570965240138563
25.0,63.287542318430866,16.45725612568202,0.493242125147573,22.544270830113685
26.0,66.0612149121431,15.2993226812339,0.4933490224000151,22.517987314317722
27.0,69.46441884589206,14.222227649753167,0.4934543343247436,22.492121003174454
28.0,73.49340433023336,13.220538830299896,0.49355803067269066,22.466678062377028
29.0,78.13031644318409,12.289347377361212,0.4936600817469821,22.441664512741838
30.0,83.3432612208636,11.424361971852486,0.4937604584103499,22.41708623026637
31.0,89.08676136489369,10.622071788528077,0.4938591320924588,22.39294894619591
32.0,95.30249202123704,9.879996215562967,0.493956074797888,22.36925824691701
33.0,101.92017355682715,9.1970056652806,0.49405125911031517,22.346019574780172
34.0,108.8586685926165,8.573730851704306,0.49414465820092823,22.323238227852027
35.0,116.02760317828758,8.013024320921192,0.4942362458362252,22.300919359820483
36.0,123.32976794208503,7.520408227141991,0.49432599638339286,22.279067980471243
37.0,130.66427628702237,7.104404696751226,0.4944138848125311,22.257688956882653
38.0,137.9307770021066,6.776776974339432,0.4944998867077989,22.236787012485664
39.0,145.03345207067443,6.55248080045832,0.4945839782692649,22.2163667283
40.0,151.88286754739067,6.449365707785687,0.49466613631922846,22.19643254308689
41.0,158.39268431692517,6.4875465375701795,0.49474633830715353,22.17698875381441
42.0,164.46918514126696,6.68849257493945,0.49482456231429,22.158039516157274
43.0,169.99423701695824,7.073866285085782,0.4949007870581447,22.139588845008085
44.0,174.80759481068748,7.664204635184827,0.49497499189672906,22.121640615009074
45.0,178.69906393280374,8.477546176790593,0.4950471568324991,22.10419856112228
46.0,181.42125248103306,9.528118875552634,0.49511726251633503,22.087266279162904
47.0,182.7267101942213,10.825203542473364,0.4951852902509522,22.070847226420366
48.0,182.42018244859673,12.372243207416949,0.4952512219934981,22.05494472242123
49.0,180.40806722658502,14.16624253597418,0.4953150403611633,22.039561949034535
50.0,176.7236715447534,16.197577352375017,0.49537672863206905,22.024701951510746
51.0,171.5192844376797,18.450064364881733,0.4954362707469859,22.01036763933217
52.0,165.03188570118454,20.901295236402106,0.4954936513143413,21.9965617863606
53.0,157.536492396368,23.523288370810207,0.495548855609648,21.98328703204682
54.0,149.30423119103773,26.283195943177265,0.4956018695809428,21.97054588141856
55.0,140.5749801147278,29.144179195881094,0.4956526798474564,21.958340706395063
56.0,131.54592052531925,32.0663928949534,0.49570127370287814,21.94667374611783
57.0,122.37195806928258,35.0081783572205,0.49574763911712677,21.935547107577154
58.0,113.17229682322852,37.92759494604391,0.4957917647352837,21.924962766720853
59.0,104.03802833778282,40.784358895049174,0.4958336398820881,21.914922568459346
60.0,95.03871172769507,43.54201806656605,0.49587325455885733,21.90542822810115
61.0,86.22697405038862,46.1697882727441,0.4959105994480059,21.896481331257956
62.0,77.64269763981727,48.64288040947112,0.4959456659091386,21.888083335354676
63.0,69.31837074993678,50.93995987197945,0.4959784459838871,21.88023556940772
64.0,61.28739657860298,53.03674220817028,0.49600893239349375,21.872939235155208
65.0,53.59484117837374,54.89667302541974,0.49603711853901833,21.86619540762752
66.0,46.3073477177036,56.46239328781946,0.4960629984981723,21.86000503635526
67.0,39.51726553157699,57.65287552056307,0.4960865670297051,21.854368945054997
68.0,33.335143662648214,58.37194469699947,0.4961078195697015,21.84928783282979
69.0,27.870096132710014,58.52819505982985,0.4961267522314826,21.844762274633286
70.0,23.203421093529702,58.060653940934756,0.4961433618043021,21.840792721925627
71.0,19.365722725861772,56.959960314983086,0.4961576457524049,21.837379503216507
72.0,16.327213218566836,55.275828977736985,0.49616960221323986,21.834522824710575
73.0,14.004577566589411,53.10818736833177,0.49617922999607994,21.832222770862224
74.0,12.280604274301838,50.586334352206485,0.4961865285799217,21.830479304988987
75.0,11.028121129784017,47.84500656562701,0.49619149811195473,21.829292269751452
76.0,10.13047017248468,45.00506515265134,0.4961941394053055,21.82866138772095
77.0,9.494328150223584,42.162673803654535,0.49619445393676775,21.828586261907855
78.0,9.05475714079518,39.38664341602344,0.4961924438442646,21.829066376296588
79.0,8.774737773137321,36.72127360322903,0.4961881119243395,21.830101096332537
80.0,8.641876559581085,34.19168218323743,0.49618146162991744,21.83168966931456
81.0,8.66423265022036,31.80942634391528,0.4961724970666779,21.833831224993403
82.0,8.86631809915769,29.57719160127591,0.496161222990229,21.83652477600874
83.0,9.285519528195872,27.492280422430802,0.4961476448029699,21.83976921831769
84.0,9.968840851039884,25.548971370160384,0.4961317685507801,21.843563331614803
85.0,10.969721377897798,23.74001079339357,0.49611360091940426,21.847905779777413
86.0,12.344806316011217,22.057513647819952,0.4960931492310255,21.85279511123369
87.0,14.150641025721413,20.493485263739014,0.4960704214404982,21.858229759351193
88.0,16.44035398017952,19.04010854427736,0.4960454261312463,21.86420804285114
89.0,19.260483183478655,17.68989490596648,0.4960181725111957,21.87072816617946
90.0,22.648126070314603,16.43575948972341,0.4959886704086933,21.87778821984304
91.0,26.628640504674927,15.27105991405932,0.49595693026802146,21.8853861807763
92.0,31.213810777170462,14.189611517171516,0.4959229631452706,21.893519912626918
93.0,36.40100766306691,13.18572314937453,0.4958867807053358,21.902187165743868
94.0,42.17270629325701,12.25422358665975,0.4958483952139124,21.911385578129348
95.0,48.49675308966049,11.3905446430693,0.49580781953510766,21.92111267526653
96.0,55.32685397081485,10.59084055872097,0.4957650671240478,21.931365870913428
97.0,62.6039125673129,9.85223049882926,0.4957201520260075,21.942142466521588
98.0,70.2571766181005,9.173090526813919,0.495673088866172,21.953439652498975
99.0,78.20556972780192,8.553463238877677,0.4956238928490132,21.965254507572563
100.0,86.35958056783049,7.995507449699329,0.4955725797502923,21.97758399951986
101.0,94.62349924334777,7.503928024557721,0.49551916591074086,21.990424985598345
102.0,102.89878111322813,7.086368517163342,0.4954636682346323,22.003774211927766
103.0,111.08802083940958,6.753569565460187,0.49540610417806985,22.017628314929194
104.0,119.0991376179576,6.5193790639540214,0.4953464917484167,22.031983820488918
105.0,126.84758050269059,6.400429085885315,0.49528484949521845,22.04683714481604
106.0,134.25416844373558,6.415559199903645,0.49522119650557866,22.062184594369413
107.0,141.2360941485787,6.584950762083624,0.49515555239764886,22.0780223661503
108.0,147.69129945657195,6.929042359293512,0.49508793731442907,22.094346547908845
109.0,153.4807567842211,7.467301452705335,0.49501837191745207,22.1111531183537
110.0,158.41772771513845,8.216949740033765,0.4949468773803555,22.12843794736576
111.0,162.27420006751979,9.191743977632605,0.49487347538243565,22.1461967961975
112.0,164.80976575897722,10.400920664980225,0.4947981881018289,22.16442531773424
113.0,165.81768024375967,11.84836310174594,0.4947210382092526,22.18311905661835
114.0,165.17260180709638,13.532051263979604,0.49464204886054697,22.20227344962886
115.0,162.86323789931217,15.44386390191165,0.4945612436925034,22.221883825275253
116.0,158.99376584541892,17.569647272171107,0.49447864681047804,22.24194540529758
117.0,153.7616466983811,19.889531259506633,0.49439428278731623,22.2624533035305
118.0,147.41707288649025,22.378538252983276,0.49430817665184235,22.28340252717387
119.0,140.22247139224828,25.007291867983444,0.4942203538846399,22.304787976351914
120.0,132.42148326777902,27.742841796691327,0.4941308404094196,22.326604444706078
121.0,124.22223746072623,30.549566703009496,0.49403966258553583,22.34884661971476
122.0,115.79269112700469,33.390168020749336,0.49394684720202775,22.371509082625863
123.0,107.26404747576157,36.22686096958245,0.4938524214685831,22.394586309149137
124.0,98.73713615887307,39.02281828484055,0.49375641300865697,22.418072669614265
125.0,90.28887171926954,41.74390578653795,0.49365884985280145,22.441962429057465
126.0,81.97747826182903,44.360414481701966,0.4935597604292834,22.46624974802091
127.0,73.84633342012614,46.84827927694473,0.49345917355764213,22.49092868258621
128.0,65.92780153135548,49.188708259268076,0.4933571184416763,22.515993184537166
129.0,58.24845342024058,51.365265210444825,0.49325362465985767,22.54143710224276
130.0,50.83645742250464,53.358026119144135,0.49314872215823746,22.56725418086705
131.0,43.7306400658824,55.13574660162441,0.49304244124283836,22.593438062718484
132.0,36.98850535664499,56.64903654083125,0.492934812571593,22.619982287731617
133.0,30.68908643049678,57.82856266633952,0.49282586714569115,22.64688029414281
134.0,24.927206359603137,58.591633069611156,0.49271563630255477,22.67412541868938
135.0,19.798365547699024,58.857618586685845,0.49260415170720395,22.70171089729832
136.0,15.378296532226589,58.567925429947316,0.4924914453442333,22.729629865608032
137.0,11.70426748430047,57.70349309037111,0.49237754950959683,22.757875359562977
138.0,8.765145544136146,56.293040653646734,0.49226249680263956,22.78644031594285
139.0,6.503699206541217,54.40919789183677,0.4921463201173533,22.815317573165235
140.0,4.82924110873064,52.15474072042707,0.49202905263445235,22.844499871836238
141.0,3.63557760081902,49.64440569772252,0.4919107278129832,22.873979855474282
142.0,2.8183424163471016,46.98822956845164,0.4917913793819168,22.90375007126317
143.0,2.2877860988179166,44.280177091780196,0.4916710413317914,22.9338029708098
144.0,1.9757852657637427,41.593000208278006,0.4915497479062701,22.96413091095606
145.0,1.837912478592233,38.97815564992364,0.49142753359368,22.99472615462349
146.0,1.8522890661777203,36.468762200487845,0.4913044331185147,23.025580871698327
147.0,2.016867913153379,34.083731942040956,0.49118048143302495,23.056687139906394
148.0,2.346195187585006,31.831836230261914,0.4910557137085046,23.08803694584323
149.0,2.8682272061200296,29.71507178857568,0.49093016532684103,23.119622185924865
150.0,3.6213010137317347,27.73118626401505,0.49080387187189706,23.151434667439037
151.0,4.651210662073532,25.875431901921736,0.4906768691208995,23.183466109627208
152.0,6.008304103839152,24.141720663513492,0.4905491930358043,23.21570814481011
153.0,7.74455828064149,22.523352746966058,0.490420879754642,23.24815231955745
154.0,9.9106588850994,21.013459147539105,0.49029196558283766,23.28079009590577
155.0,12.553175922799817,19.605260933602548,0.49016248698452164,23.313612852617627
156.0,15.71196319406157,18.29221527521837,0.49003248057382753,23.34661188648396
157.0,19.417898195417727,17.068092544458658,0.4899019831061094,23.3797784137138
158.0,23.691083516993807,15.927017238732326,0.4897710314693506,23.413103571244466
159.0,28.539567483974945,14.863484568348449,0.4896396626750308,23.446578418449622
160.0,33.95876028161988,13.872390466903653,0.4895079138501416,23.48019393807443
161.0,39.93131781789087,12.949044985272034,0.48937582222747367,23.513941038431806
162.0,46.427280621514754,12.089205738200524,0.48924342513735986,23.54781055466738
163.0,53.40511555858777,11.289162215776647,0.48911075999860953,23.581793250557688
164.0,60.81255075462785,10.54584177619014,0.4889778643097951,23.615879820229303
165.0,68.58797861016242,9.857006053953665,0.4888447756406242,23.65006088961276
166.0,76.66174767993833,9.221484824776546,0.4887115316226289,23.684327018797877
167.0,84.95755962919664,8.639496867813524,0.4885781699408081,23.718668703348484
168.0,93.39425525683288,8.112992486643126,0.4884447283243861,23.753076376637427
169.0,101.88785435202858,7.645989626497861,0.4883112445381282,23.787540411711774
170.0,110.3543940365898,7.244875049652244,0.488177756373439,23.822051123144707
171.0,118.71317118045054,6.918554537866782,0.4880443016393799,23.856598769506324
172.0,126.89003862767028,6.678473641171979,0.4879109181539099,23.891173555162414
173.0,134.81948183052612,6.538428461123603,0.48777764373487836,23.92576563269547
174.0,142.44362821121794,6.514172196942167,0.4876445161911539,23.960365105114512
175.0,149.7064131047292,6.6228168887688605,0.4875115733136989,23.99496202816121
176.0,156.5422537204466,6.882063775063301,0.4873788528666325,24.029546412715796
177.0,162.86104260849623,7.309305236543277,0.4872463925783032,24.06410822723654
178.0,168.53446554880983,7.920663086852083,0.48711423013234867,24.098637400261627
179.0,173.39077032531907,8.730030621769206,0.4869824031587796,24.133123822977964
180.0,177.224442118079,9.748186452713325,0.4868509492249129,24.16755735179848
181.0,179.82223923710524,10.98204845717872,0.4867199058266239,24.2019278111169
182.0,181.0005846389513,12.434101275352807,0.48658931037915415,24.236224995963013
183.0,180.64237349480717,14.102029392920418,0.48645920020845823,24.270438674849547
184.0,178.72300296946491,15.978595743873734,0.48632961254134494,24.3045585925183
185.0,175.31355846985565,18.051744669945474,0.4862005844978624,24.338574473056983
186.0,170.56661250615156,20.304840434840518,0.48607215308142476,24.37247602267089
187.0,164.68791780564703,22.71714106361052,0.4859443551696542,24.406252932763163
188.0,157.9045585539909,25.264362283540464,0.4858172275062753,24.43989488305348
189.0,150.4383075483208,27.919315039739974,0.4856908066910197,24.4733915446592
190.0,142.4880624397834,30.652607228338457,0.48556512917152506,24.50673258331894
191.0,134.22166970909183,33.43337145819031,0.48544023123368324,24.53990766262698
192.0,125.77513151018215,36.23006312413802,0.4853161489929462,24.57290644732882
193.0,117.25592773069502,39.01136596521791,0.4851929183852464,24.60571860668144
194.0,108.74785276411637,41.74727629599956,0.4850705751578661,24.63833381785071
195.0,100.31562361177295,44.410361961283904,0.48494915486020346,24.670741769399484
196.0,92.00855109794051,46.97708371830119,0.4848286928357925,24.70293216469467
197.0,83.86309963982919,49.42890602168063,0.48470922421158774,24.734894725608026
198.0,75.90532188401987,51.752550834987666,0.4845907838899007,24.766619196047078
199.0,68.15387914654946,53.938748321916634,0.48447340653896637,24.798095345648445
200.0,60.624602960992505,55.97889472684773,0.48435712658420027,24.82931297343965
201.0,53.3367910307058,57.85968345283615,0.48424197819917075,24.860261911567203
202.0,46.32049325286438,59.556674609643956,0.4841279952963035,24.8909320291167
203.0,39.62266315575437,61.02897797721863,0.4840152115180074,24.921313235915942
204.0,33.309396398461196,62.21787931253958,0.48390366022729,24.951395486452824
205.0,27.46189436154571,63.051534169087674,0.4837933744989301,24.981168783745055
206.0,22.165689740685437,63.45609291947195,0.4836843871101842,25.010623183325336
207.0,17.49537935104674,63.37076258245269,0.4835767305318042,25.03974879720878
208.0,13.499338742697773,62.762353905273834,0.48347043691896685,25.068535797908417
209.0,10.189273186667071,61.63457074147912,0.4833655381021241,25.09697442249849
210.0,7.537809446435421,60.02915362492393,0.4832620655779492,25.125054976690233
211.0,5.484325553603888,58.0190033789349,0.4831600505003965,25.152767838911927
212.0,3.946499520947316,55.696056692517544,0.48305952367149546,25.180103464469646
213.0,2.8338430901853835,53.15781252660921,0.482960515532274,25.207052389708387
214.0,2.0597813639949796,50.49591998646339,0.4828630561537722,25.233605236175
215.0,1.5502741949197503,47.78869293332272,0.4827671752279496,25.259752714826284
216.0,1.2485358897353762,45.09779720129366,0.482672902058664,25.285485630239954
217.0,1.11649881130749,42.46825048805682,0.48258026555265787,25.31079488484044
218.0,1.1341016966451054,39.93046171080353,0.48248929421059655,25.33567148312685
219.0,1.2974297671071966,37.50314032399917,0.48240001611789335,25.36010653596837
220.0,1.6163866345961797,35.19627094266712,0.4823124589360149,25.38409126478699
221.0,2.112306864730886,33.01369028201172,0.4822266498933446,25.407617005864413
222.0,2.8156300935827403,30.9551255725199,0.48214261577635953,25.430675214571895
223.0,3.7636386528488077,29.017691750676665,0.4820603829206781,25.453257469640093
224.0,4.998221217050854,27.196940497852736,0.4819799772022009,25.475355477406193
225.0,6.563628686814017,25.487565608277322,0.481901424028349,25.49696107603376
226.0,8.504233024301167,23.88386272142292,0.4818247483292162,25.5180662397547
227.0,10.862335216563714,22.380020879450594,0.48174997454880714,25.538663083083044
228.0,13.676071515129593,20.970300069548337,0.48167712663637424,25.558743864994792
229.0,16.977537393443892,19.649137674820846,0.4816062280377479,25.57830099309968
230.0,20.791169771806736,18.411207719316074,0.4815373016865564,25.597327027837732
231.0,25.13246750229056,17.251450592876473,0.48147036999695336,25.615814686205173
232.0,30.007124103544403,16.165096462150863,0.4814054548525764,25.63375684660869
233.0,35.410636402133484,15.147682236636873,0.4813425775988359,25.65114655270236
234.0,41.328170239492074,14.195063739047846,0.4812817590354118,25.66797701713373
235.0,47.734755064324396,13.303435511273738,0.48122301941011814,25.684241624825393
236.0,54.59586951050261,12.469384155566784,0.4811663784070594,25.69993393802342
237.0,61.868263938537055,11.68996425406129,0.4811118551397763,25.715047699765297
238.0,69.50089177568417,10.962818246135003,0.481059468142329,25.729576837971916
239.0,77.43588757074922,10.286342295068776,0.4810092353626081,25.743515468798606
240.0,85.60959368860816,9.659908166634754,0.48096117415457684,25.75685790029042
241.0,93.95366710079298,9.084131827659906,0.48091530127048715,25.769598636013768
242.0,102.39638256993383,8.561173441178891,0.48087163285192014,25.781732379041724
243.0,110.86433480149836,8.09503292162145,0.48083018442242065,25.79325403538626
244.0,119.2845761738333,7.691795341147331,0.4807909708804263,25.80415871729317
245.0,127.5870583470409,7.359763561041618,0.48075400649535294,25.81444174544436
246.0,135.70724435090108,7.109517319247485,0.48071930489356623,25.824098654479673
247.0,143.58762510698847,6.953759176232163,0.48068687905765484,25.833125194053526
248.0,151.1770702525554,6.907029998441952,0.4806567413158565,25.841517333126788
