Time,J,A,S,tau
0.0,100.0,100.0,0.7890153953351416,15.905143351175768
1.0,98.53070735855918,97.54087927195498,0.788885104284913,15.921494299555883
2.0,97.0786337793626,95.13271483577924,0.7887985621988154,15.932346800050802
3.0,95.64540211238807,92.7775399879585,0.7887563779021277,15.937632548677174
4.0,94.23080926288918,90.4743749123534,0.7887588702014672,15.937321059841207
5.0,92.83465188968769,88.22223702938646,0.7888063568543923,15.931382343013025
6.0,91.45672340771125,86.02011319081029,0.7888991509672278,15.919788556599038
7.0,90.09683098470558,83.86709552681228,0.7890375584119145,15.90251389656958
8.0,88.75477782963516,81.76224498598356,0.7892218852077343,15.879532776449176
9.0,87.43036431732824,79.70459256901033,0.7894524307826075,15.850822327859634
10.0,86.12340537499684,77.69327664199935,0.7897294869230299,15.816361628576347
11.0,84.83371112368204,75.7273992020917,0.7900533455727498,15.776130015286196
12.0,83.561091645043,73.80604349192828,0.7904242903343413,15.730109855074744
13.0,82.3053720919307,71.9283915998274,0.7908425969481283,15.678285385750376
14.0,81.0663758858729,70.09360424511522,0.7913085395687756,15.620641524055234
15.0,79.84392821113403,68.30081838484693,0.7918223848544902,15.557165778962716
16.0,78.63786515263847,66.54921233895409,0.7924602478846107,15.478366736071896
17.0,77.44803152929519,64.83797493658906,0.7931864898163565,15.388753292160535
18.0,76.27428662741588,63.16630648413649,0.7939087409877137,15.299878570842397
19.0,75.1165085893299,61.53344005576007,0.7946267851331967,15.211764786360915
20.0,73.97459202820123,59.93858105017097,0.7953404104166146,15.124433372987694
21.0,72.84849279370258,58.38100442741861,0.7960494108267419,15.037904701912542
22.0,71.73816780442151,56.85996682294564,0.7967535816851032,14.952198919364621
23.0,70.64366838205227,55.37471302260918,0.797452725807143,14.867334896716521
24.0,69.56513729412012,53.92455821778192,0.7981466495276601,14.783330882439662
25.0,68.50273457974535,52.5087711156198,0.7988351617445617,14.700204719258618
26.0,67.45688761167291,51.12666037449516,0.7995180792905318,14.617972944002174
27.0,66.42810492962926,49.777568592853534,0.8001952206456644,14.536651815750737
28.0,65.41705646739302,48.46079322733355,0.8008664091208167,14.456256849542381
29.0,64.42489824893028,47.175703591280154,0.8015314745671016,14.376802523214467
30.0,63.45287172080386,45.92167114753825,0.802190248130693,14.298303117001488
31.0,62.502750304253645,44.69805774655613,0.8028425675312842,14.22077192996581
32.0,61.57673771699231,43.5042746825923,0.8034882738270736,14.144221753715009
33.0,60.67762990990081,42.339740123921736,0.8041272129608448,14.068664675747312
34.0,59.80891577320166,41.203929318249855,0.8047592348050131,13.99411221039741
35.0,58.974779302862146,40.09633838446418,0.8053841935672753,13.920575266818233
36.0,58.180258309943596,39.01652407616445,0.8060019475169579,13.848064186183153
37.0,57.43145419641274,37.96412386664051,0.8066130326712473,13.776534845889552
38.0,56.73540114175201,36.93884935161385,0.8071908199267547,13.708120398978256
39.0,56.10030332112681,35.94051788960032,0.8077001026239714,13.645619687425496
40.0,55.53555412014029,34.969093021964206,0.8081416632526297,13.588933960177085
41.0,55.051729863249506,34.02470876365779,0.8085164235777451,13.537955945173637
42.0,54.660571453078724,33.1077095221881,0.8088253269195214,13.492579250288037
43.0,54.37489452095248,32.218694431410775,0.8090693369293341,13.452698390313005
44.0,54.20842392537076,31.35856867468087,0.8092494364841666,13.418208813669894
45.0,54.175508989102276,30.528597271350826,0.809366626556285,13.389006920968269
46.0,54.29072381879328,29.730463102023805,0.8094219250768516,13.364990080653476
47.0,54.56832281093228,28.966327613111815,0.8094163658727614,13.346056642997516
48.0,55.02153028312174,28.23889199804931,0.8093509976317779,13.332105951213697
49.0,55.66165076698127,27.551457001528497,0.8092268828984966,13.323038349601246
50.0,56.49699707100898,26.9079785860827,0.809045097101328,13.318755189022623
51.0,57.531471856419905,26.31327900409063,0.8088188829815729,13.318206526568972
52.0,58.762473908038196,25.773566404263185,0.808588660833489,13.31822273250116
53.0,60.179932813931714,25.29578387506623,0.8083619140477977,13.318222732501159
54.0,61.76467356372311,24.88778341190027,0.8081385111456556,13.318222732501159
55.0,63.486780955984514,24.55843982753274,0.8079185262891089,13.318222732501159
56.0,65.30461330156447,24.317596670924377,0.807702032651866,13.318222732501159
57.0,67.16424248797212,24.1759900565946,0.8074891023782301,13.318222732501159
58.0,68.99995010111077,24.145091230861265,0.8072798065516547,13.318222732501159
59.0,70.73583791456474,24.236856633597544,0.8070742151714517,13.318222732501159
60.0,72.28862441766216,24.463378913893052,0.8068723971180765,13.318222732501159
61.0,73.57203730780327,24.83641648706802,0.8066744201209826,13.318222732501159
62.0,74.50220395990091,25.366784446245425,0.8064803507348192,13.318222732501159
63.0,75.00401536772361,26.063598551902672,0.8062902543029985,13.318222732501159
64.0,75.0173260462497,26.933399691061304,0.806104194938311,13.318222732501159
65.0,74.50278349317287,27.979044233377763,0.8059222354845811,13.318222732501159
66.0,73.445852789718,29.198445940259106,0.8057444374934339,13.318222732501159
67.0,71.85840438492411,30.58341159938211,0.8055708611942254,13.318222732501159
68.0,69.77752155621258,32.118598119958655,0.8054015654771866,13.318222732501159
69.0,67.26237133213844,33.7805575673435,0.8052366078554097,13.318222732501159
70.0,64.38920564687979,35.53725804715691,0.8050760444410814,13.318222732501159
71.0,61.24574757254074,37.34823433858177,0.8049199299274685,13.318222732501159
72.0,57.92585776012557,39.16542089427795,0.8047683175527744,13.318222732501159
73.0,54.52466385580281,40.935024777976786,0.8046212590869172,13.318222732501159
74.0,51.134329026149686,42.600299699359915,0.8044788048002692,13.318222732501159
75.0,47.84020115722604,44.10523132689127,0.8043410034452518,13.318222732501159
76.0,44.71718549668623,45.398786961504605,0.8042079022325334,13.318222732501159
77.0,41.82636273414319,46.439288877481,0.8040795468075235,13.318222732501159
78.0,39.21228319859184,47.19816877273822,0.8039559812333367,13.318222732501159
79.0,36.9012888485923,47.66253348304979,0.8038372479665987,13.318222732501159
80.0,34.90154372429102,47.835857525373285,0.8037233878426823,13.318222732501159
81.0,33.204815360970464,47.73669734251317,0.8036144400478188,13.318222732501159
82.0,31.790177474042203,47.39541579766524,0.8035104421085967,13.318222732501159
83.0,30.628619073173258,46.849840747315106,0.8034114298748175,13.318222732501159
84.0,29.687879654992397,46.14067593470702,0.8033174375038534,13.318222732501159
85.0,28.93666604408154,45.30746810120708,0.8032284974339184,13.318222732501159
86.0,28.347648112422455,44.38577951880822,0.8031446403840342,13.318222732501159
87.0,27.899140422704935,43.40564149182894,0.8030658953279651,13.318222732501159
88.0,27.575547667304072,42.39120581852883,0.8029922894849404,13.318222732501159
89.0,27.36697605008085,41.36119873800982,0.8029238483096908,13.318222732501159
90.0,27.268391003459076,40.32978363359949,0.8028605954774587,13.318222732501159
91.0,27.278583837202476,39.30756967074826,0.8028025528697228,13.318222732501159
92.0,27.399121405289627,38.302577582742956,0.8027497405698845,13.318222732501159
93.0,27.633388907295974,37.32105230036838,0.8027021768568884,13.318222732501159
94.0,27.985740103668505,36.36810961725787,0.8026598781777812,13.318222732501159
95.0,28.460647804460706,35.44825147314941,0.8026228591554267,13.318222732501159
96.0,29.061948306632736,34.5657336224586,0.8025911325860854,13.318222732501159
97.0,29.792063270414076,33.724831853225844,0.8025647094213078,13.318222732501159
98.0,30.651320119181857,32.930019941240886,0.8025435987927876,13.318222732501159
99.0,31.637064903170415,32.18610237627121,0.8025278079313799,13.318222732501159
100.0,32.74286138349404,31.498250525990684,0.8025173422522303,13.318222732501159
101.0,33.95778081213385,30.87203769185347,0.8025122053171161,13.318222732501159
102.0,35.26565560305777,30.313436927277333,0.8025123988169734,13.318222732501159
103.0,36.64454060743118,29.828781101348266,0.8025179225967402,13.318222732501159
104.0,38.06632589203828,29.424708664232842,0.8025287746397876,13.318222732501159
105.0,39.49672667759667,29.10807511257259,0.8025449510677365,13.318222732501159
106.0,40.89569732903674,28.885825054040794,0.8025664461513947,13.318222732501159
107.0,42.21828385231424,28.764819080753966,0.8025932523139107,13.318222732501159
108.0,43.41612370056244,28.751605019876514,0.8026253601215583,13.318222732501159
109.0,44.43950152473353,28.852128922198947,0.8026627583046938,13.318222732501159
110.0,45.23991007908166,29.07136551429687,0.8027054337485736,13.318222732501159
111.0,45.773014192349,29.412892505830857,0.8027533715100568,13.318222732501159
112.0,46.001697154451925,29.87838806365837,0.802806554820187,13.318222732501159
113.0,45.89900228104028,30.46708266065222,0.8028649650896179,13.318222732501159
114.0,45.45039440335084,31.17520956844956,0.8029285819268895,13.318222732501159
115.0,44.65537091026681,31.995434070142274,0.8029973831317561,13.318222732501159
116.0,43.527763838735424,32.91639196645334,0.8030713447147875,13.318222732501159
117.0,42.094929464743245,33.92238767886643,0.8031504409209389,13.318222732501159
118.0,40.39614524128394,34.993215479284856,0.8032346442186419,13.318222732501159
119.0,38.479989443212524,36.10435466330424,0.8033239253305133,13.318222732501159
120.0,36.40145937636174,37.227445044830596,0.8034182532361887,13.318222732501159
121.0,34.21889091577329,38.33118967331007,0.8035175951918572,13.318222732501159
122.0,31.991018152448216,39.38265241497252,0.8036219167444344,13.318222732501159
123.0,29.774256057988694,40.34891560387819,0.8037311817487172,13.318222732501159
124.0,27.62026761130066,41.19900635539261,0.8038453523816499,13.318222732501159
125.0,25.573869828411315,41.905920712282494,0.8039643891607046,13.318222732501159
126.0,23.671369686486113,42.44849471252229,0.8040882509643645,13.318222732501159
127.0,21.93941418456716,42.81289427613944,0.8042168950500933,13.318222732501159
128.0,20.394489809131787,42.99349530828695,0.8043502770707317,13.318222732501159
129.0,19.043272585610573,42.99290463974276,0.8044883511063369,13.318222732501159
130.0,17.883497368000384,42.82134276738274,0.8046310696491732,13.318222732501159
131.0,16.90597950013049,42.49496097079448,0.8047783836858858,13.318222732501159
132.0,16.096472650601,42.034134062997154,0.8049302426722597,13.318222732501159
133.0,15.437952643191677,41.46134510882484,0.8050865945685136,13.318222732501159
134.0,14.912627270228565,40.79932017198502,0.8052473858707493,13.318222732501159
135.0,14.503522938391077,40.06954818864886,0.8054125616256457,13.318222732501159
136.0,14.195554224550975,39.29130479352761,0.8055820654615364,13.318222732501159
137.0,13.97609761022239,38.481155917240635,0.8057558396101526,13.318222732501159
138.0,13.835133207305105,37.652872973269425,0.805933824933454,13.318222732501159
139.0,13.765086637940716,36.81763211477004,0.8061159609542977,13.318222732501159
140.0,13.760513347256364,35.984350163438585,0.8063021858747645,13.318222732501159
141.0,13.817676588441422,35.160107310641735,0.8064924366106289,13.318222732501159
142.0,13.934125377199681,34.35054589524686,0.806686648815164,13.318222732501159
143.0,14.108281317024263,33.56023327757325,0.806884756909983,13.318222732501159
144.0,14.33907281432843,32.79296299897634,0.8070866941277555,13.318222732501159
145.0,14.625619923972412,32.051981608657954,0.8072923924987314,13.318222732501159
146.0,14.966873702720502,31.340183852809258,0.8075017829189239,13.318222732501159
147.0,15.361359222595498,30.660238398265456,0.807714795188385,13.318222732501159
148.0,15.807007028245907,30.0146834879616,0.8079313580025476,13.318222732501159
149.0,16.3007395524601,29.40597965290205,0.8081513990115355,13.318222732501159
150.0,16.838358634778526,28.836556486406202,0.808374844838627,13.318222732501159
151.0,17.414334186422256,28.308831116071683,0.8086016211274796,13.318222732501159
152.0,18.021595250487564,27.82521346102465,0.8088316166409051,13.318225496988743
153.0,18.65160679179029,27.387936847759153,0.8090583047944371,13.318727772262502
154.0,19.295506250758653,26.998019025684968,0.8092364574224166,13.323211627843492
155.0,19.94247076887495,26.65700516748875,0.8093570135017261,13.332382737190477
156.0,20.5801988711168,26.366446238753138,0.8094197463128568,13.346268552570352
157.0,21.195361187611,26.127642385307972,0.8094244676325334,13.364895021157311
158.0,21.77393839573146,25.941578087748095,0.8093710332413352,13.388286143050625
159.0,22.301672425526313,25.80884900134749,0.8092593424300877,13.416463982523295
160.0,22.76458640246586,25.729581066757728,0.8090893374082856,13.449448683089361
161.0,23.149561256778632,25.703344762189705,0.8088610027157401,13.487258480815347
162.0,23.444931785088407,25.729068718067094,0.8085743645821575,13.529909718684275
163.0,23.64105704705062,25.804957470704124,0.8082294902665732,13.577416861198463
164.0,23.730844094392058,25.928418705088617,0.807826487369067,13.629792507254948
165.0,23.710132660123737,26.096008953628516,0.8073655029993327,13.68704740990185
166.0,23.57795677264338,26.30340374493165,0.8068467274348625,13.749190137138479
167.0,23.335416789607002,26.546532888017406,0.8062843977376946,13.815124774179623
168.0,22.984358506011965,26.82240948346376,0.8057119770323886,13.882229833668562
169.0,22.531362835625565,27.125185077930304,0.805133891517829,13.950157761646642
170.0,21.98605831914475,27.447910276170035,0.8045501482685566,14.018907878842434
171.0,21.360317162627172,27.783017643132165,0.8039608732561494,14.088470003768697
172.0,20.667750710303814,28.122476190366292,0.8033661945155675,14.158833622444869
173.0,19.923119557922305,28.45800285574983,0.8027662421421347,14.229987882734932
174.0,19.141739219635685,28.781304567086302,0.8021611482888095,14.30192158866672
175.0,18.338912693267154,29.084340070653493,0.8015510471644393,14.374623194526134
176.0,17.529414883747133,29.359587727528368,0.8009360750312005,14.448080799020204
177.0,16.727050382265816,29.600302570787566,0.800316370201239,14.522282139532592
178.0,15.944296718696272,29.800746826075137,0.7996920730350087,14.597214585985359
179.0,15.19204609078802,29.9563734047625,0.799063325933939,14.67286513555917
180.0,14.47945337658585,30.063948705705364,0.7984302733312514,14.749220407835873
181.0,13.813880578885769,30.121609519960163,0.7977930616836839,14.826266639703116
182.0,13.201009101267264,30.1287769523795,0.7971518394616858,14.903989680576853
183.0,12.645193702281853,30.085852092099582,0.7965067571425041,14.9823749867306
184.0,12.149473625361109,29.994276584039977,0.7958579671953797,15.061407617728543
185.0,11.715631615113875,29.8565147531473,0.7952056240633472,15.141072232785003
186.0,11.344408719438118,29.675874947605795,0.7945498841643573,15.221353082928426
187.0,11.03577902379733,29.45629381941545,0.7938909058856221,15.3022340057097
188.0,10.789198890676877,29.20212333539615,0.793228849510633,15.383698433614635
189.0,10.603802490978607,28.917954036405995,0.7925638772324527,15.465729383208298
190.0,10.478618549754565,28.608437891119284,0.7918961531887309,15.54830944034973
191.0,10.412733256082417,28.278148471519213,0.7912258433796494,15.631420771395785
192.0,10.405387188465156,27.931486344918895,0.7905531156314854,15.715045123662836
193.0,10.456056496454327,27.57260123336581,0.7898781396108717,15.799163813519446
194.0,10.564503611532583,27.205344776464884,0.7892010868334496,15.883757717788937
195.0,10.730760847458031,26.833264599138776,0.7885221305776184,15.968807286240283
196.0,10.955102852059015,26.459605874298422,0.7878414458546827,16.054292540846593
197.0,11.238008739215537,26.087318043441186,0.7871592094294639,16.1401930614356
198.0,11.580075812261523,25.719084372388206,0.7864755997959736,16.2264879854259
199.0,11.981914208605632,25.35736605092191,0.7857907970970005,16.31315601946973
200.0,12.44403949455309,25.004441145974607,0.7851049830943164,16.40017543943825
201.0,12.966763891871269,24.66243396582132,0.7844183412098644,16.487524067514464
202.0,13.550014826070624,24.333351750956528,0.783731056448901,16.575179289531818
203.0,14.193253079775662,24.019112763866357,0.7830433152979827,16.663118071905693
204.0,14.895316008616682,23.721567275566045,0.7823553058103156,16.751316926523895
205.0,15.654211397564296,23.44252075954737,0.7816672175319146,16.839751926872893
206.0,16.467085632560174,23.183752993732853,0.7809792413789054,16.928398731691413
207.0,17.32997915430799,22.947028428448387,0.7802915697140406,17.01723255565422
208.0,18.23778105487746,22.7341088011612,0.7796043962533391,17.106228184718088
209.0,19.18409014041501,22.54675594510146,0.7789179160296766,17.19535998058272
210.0,20.16117357879281,22.386734805208317,0.7782323253548317,17.284601880978876
211.0,21.15993129294162,22.25580954689024,0.7775478217762671,17.37392740401068
212.0,22.16991424420004,22.15573627072509,0.776864604033543,17.46330965213715
213.0,23.179404225100658,22.08825183352875,0.7761828720139698,17.552721316129617
214.0,24.175523507257502,22.05505609827579,0.7755028267045811,17.642134681726894
215.0,25.144450273465928,22.057792067985694,0.7748246701490489,17.731521632483553
216.0,26.07167234360252,22.098019906405025,0.7741486053970226,17.82085365678301
217.0,26.94230426914208,22.17718556478688,0.7734748364550185,17.91010185408402
218.0,27.741457339051955,22.29658427537531,0.7728035682362454,17.999236941578797
219.0,28.454649910475947,22.457318730219406,0.7721350065093244,18.088229261319764
220.0,29.06824045374959,22.6602518201657,0.7714693578462504,18.177048787706063
221.0,29.56987003340213,22.90595595879183,0.7708068295691847,18.265665135261443
222.0,29.948881487088524,23.194658653542092,0.7701476296953457,18.35404756733335
223.0,30.19668649219277,23.526187868940774,0.7694919668791833,18.442165006256726
224.0,30.307080629401188,23.899913086139378,0.7688400503583525,18.529986041369472
225.0,30.276471499301632,24.31468904536477,0.7681920898945584,18.617478939199312
226.0,30.103928507854373,24.76881876239037,0.7675482957050409,18.704611661344536
227.0,29.791450657386406,25.25996166654667,0.7669088784307833,18.791351852050678
228.0,29.34350537754481,25.78516344349216,0.7662740490330333,18.877666884407606
229.0,28.767117356384144,26.340782170295768,0.7656440187599992,18.963523847449505
230.0,28.071518431371352,26.922500061952352,0.7650189990719277,19.048889568492736
231.0,27.26785189599501,27.525323757869728,0.7643992015769463,19.133730623291548
232.0,26.368801635754345,28.14361952009641,0.7637848379634616,19.21801335137967
233.0,25.388219360027758,28.77116594833521,0.7631761199316236,19.30170386994474
234.0,24.340747820637812,29.401235087858307,0.7625732591235515,19.384768089535584
235.0,23.241463237835013,30.02669567638924,0.7619764670511368,19.467171728953648
236.0,22.10553798646061,30.640143304646895,0.7613859550242454,19.54888033180025
237.0,20.94793636845131,31.234051633545945,0.7608019340754872,19.62985928297387
238.0,19.783138467276107,31.800943228395315,0.7602246148840354,19.710073825763295
239.0,18.624900612145193,32.33357267682156,0.759654207698649,19.789489080090934
240.0,17.486048216726463,32.82511442749084,0.7590909222588058,19.8680700609818
241.0,16.378300935834393,33.26934753682816,0.7585349677141753,19.945781697569814
242.0,15.3121303444783,33.660829437650435,0.7579865525411574,20.02258885271725
243.0,14.296651162591761,33.995048993380614,0.7574458844581777,20.098456343127268
244.0,13.339558192450273,34.268545116731836,0.7569131703411649,20.17334896033399
245.0,12.447103071500171,34.47898819452153,0.7563886161362774,20.24723149208507
246.0,11.624116005512375,34.625218098276434,0.7558724267704897,20.320068744407052
247.0,10.874062778088426,34.70724193033392,0.755364806058591,20.3918255640431
248.0,10.199156907796057,34.72617723605757,0.7548659566125772,20.462466861600593
