Time,J,A,S,tau
0.0,100.0,100.0,0.9685055773488649,8.547008547008547
1.0,98.96516497813288,98.64773767305292,0.9686631293803837,8.472525609225997
2.0,97.87029823324788,97.31103854461105,0.968849230140805,8.38440289895262
3.0,96.7259702699291,95.99331056015562,0.9690632359024601,8.282909885901665
4.0,95.53868614059992,94.69459545558442,0.9693050289486563,8.168070831720303
5.0,94.31407408643773,93.41493113200139,0.9695744974759786,8.039910808770443
6.0,93.05702305985433,92.15435537641784,0.9698715348700563,7.8984556626060325
7.0,91.77159862555317,90.9129053079778,0.970196040870336,7.743732334459532
8.0,90.71711912958465,89.43602360043793,0.9704885344861753,7.603770967584781
9.0,90.14009340276618,87.49369134123187,0.970680911223006,7.510759692772452
10.0,89.60608779837393,85.52726863158419,0.9708674710260362,7.420293677789041
11.0,89.10766973739659,83.54692893678362,0.9710484821154212,7.332273780831829
12.0,88.638465876749,81.5613264667173,0.9712241968134167,7.246606755485962
13.0,88.19311069450248,79.57771897021281,0.9713948518523169,7.163205092253779
14.0,87.76719351338303,77.60209130053713,0.9715606691825942,7.081986658615821
15.0,87.3567288517027,75.63975641929999,0.9717218578543051,7.002873979391504
16.0,86.95603798175301,73.69746129660743,0.9718786132705581,6.925794485262731
17.0,86.56239896819783,71.7787772353628,0.9720311186376193,6.850679921158048
18.0,86.17441209774145,69.88582632033054,0.9721795469124388,6.777465652325135
19.0,85.7910506185764,68.02024578906871,0.9723240574966872,6.7060917983322685
20.0,85.41145324473051,66.18343267462744,0.9724648033755846,6.636500692923653
21.0,85.03504108835344,64.37641977929792,0.9726019234159181,6.5686395497241845
22.0,84.66131731452616,62.600127446450585,0.9727355519720846,6.5024571396585475
23.0,84.28995915188928,60.85521109475914,0.9728658116904536,6.437906183527402
24.0,83.92074909075114,59.1422550354967,0.9729928171972069,6.3749421773519686
25.0,83.55349435857897,57.461716529364374,0.973116680111217,6.313521572810977
26.0,83.18814323471577,55.81393427555208,0.9732374982381882,6.253605474077536
27.0,82.82467901215523,54.199261255156934,0.9733553661735065,6.195156091088266
28.0,82.46308204421506,52.61791162516651,0.9734703762479541,6.138136326022832
29.0,82.10346645185658,51.070059639062556,0.973582607675546,6.082513447091926
30.0,81.74599404379472,49.5559327646487,0.9736921362265867,6.028255898488643
31.0,81.39080764840938,48.07569987710136,0.9737990375533722,5.975332142476216
32.0,81.0380984454593,46.62938017204406,0.9739033793987736,5.923713194074311
33.0,80.68822342049573,45.21716235353488,0.9740052211346798,5.873372886490881
34.0,80.34154882243868,43.83925080651537,0.9741046218358712,5.824285156391494
35.0,79.99839351556857,42.49573576393747,0.9742016398346385,5.776424155188714
36.0,79.65918677643623,41.186684448879866,0.9742963251940366,5.729766742887025
37.0,79.32454313199044,39.91239751400951,0.9743887235153607,5.684291303356085
38.0,78.99507907667177,38.67317881920489,0.9744788803732984,5.639976230048221
39.0,78.67135625283335,37.46922518306159,0.9745668393628063,5.596800554674174
40.0,78.35408341701162,36.300881966855826,0.9746526381201406,5.5547453115641465
41.0,78.04406494856093,35.16862804904965,0.9747363131846392,5.5137919225975205
42.0,77.74201032879982,34.07288350474704,0.9748178994416226,5.473922365719755
43.0,77.44877004034359,33.01433097861705,0.9748974277303486,5.435120022166783
44.0,77.16522337647785,31.993714866337495,0.9749749282238339,5.397368508068796
45.0,76.89207101110107,31.011811007603615,0.9750504288781808,5.360652221976009
46.0,76.63006414610093,30.06961659183043,0.9751239554985899,5.324956333816025
47.0,76.37973539746936,29.16815839119581,0.975195532623892,5.290266478641314
48.0,76.14153071805339,28.308674179437244,0.9752651827818587,5.2565690361019355
49.0,75.91558558518564,27.492402254560965,0.9753329275246686,5.223850757869775
50.0,75.70176892354785,26.720739514561753,0.9753987865396776,5.192099114134124
51.0,75.49959821752846,25.9950635927573,0.9754627787167144,5.16130189246829
52.0,75.30812403352488,25.316763435469575,0.9755249214129467,5.131447498872582
53.0,75.12593386802196,24.687134126985846,0.9755852311274834,5.102524697930804
54.0,74.95120382351288,24.10734640695721,0.9756437231665327,5.074522760256872
55.0,74.78154187931915,23.578297035988445,0.9757004119942154,5.047431329953071
56.0,74.61428582089393,23.100599470961043,0.975755311144822,5.021240467853006
57.0,74.44628876529111,22.674350499753736,0.97580843330769,4.995940634093141
58.0,74.27448694646364,22.29921537050646,0.9758597904304406,4.971522643425822
59.0,74.09556192870917,21.97417402358575,0.975909393734679,4.947977677281439
60.0,73.90650812583286,21.697601302191586,0.9759572537916087,4.925297251979021
61.0,73.70463645523849,21.467124776110943,0.9760033805135275,4.903473239513102
62.0,73.48780844425328,21.27972384896544,0.9760477832500236,4.882497827346615
63.0,73.2545823417318,21.131772059954407,0.976090470812479,4.862363516006819
64.0,73.00427219871084,21.0191140729358,0.9761314514941648,4.843063120245015
65.0,72.7369757927345,20.93723290289797,0.9761707331164248,4.824589753663164
66.0,72.4535204295336,20.881418652419672,0.9762083230585,4.8069368218154365
67.0,72.15535613231215,20.846953032974497,0.9762442282858292,4.790098015465094
68.0,71.84440738733839,20.829289944321136,0.9762784553762544,4.77406730435041
69.0,71.52290007406792,20.824219841833386,0.9763110105442568,4.758838931617121
70.0,71.19318024512047,20.828005557900386,0.9763418996620375,4.744407409847927
71.0,70.85755014634196,20.837468423695046,0.9763711282810923,4.73076751513901
72.0,70.51813928701165,20.850028407876835,0.9763987016528601,4.717914281260081
73.0,70.17680647839998,20.86370987733437,0.9764246247428369,4.705842998478816
74.0,69.83509784184737,20.877086395297393,0.9764489022570723,4.694549199570258
75.0,69.4941901576927,20.889259689267327,0.9764715386429813,4.684028674539025
76.0,69.1549483382726,20.899721887205963,0.9764925380997558,4.6742774562479275
77.0,68.81792779291378,20.908299779954245,0.9765119046368955,4.665291792592669
78.0,68.48344869371635,20.91504703984733,0.9765296419774778,4.657068203385767
79.0,68.15153000892778,20.920215756986348,0.9765457536782768,4.649603493248431
80.0,67.82216124710735,20.92408108182599,0.9765602432299382,4.6428945168357325
81.0,67.49519328248839,20.926976362121874,0.9765731137123226,4.636938528580558
82.0,67.17039814828235,20.92920303653453,0.9765843681350296,4.631733017543648
83.0,66.84754291664079,20.931056275351402,0.9765940094426786,4.62727552008506
84.0,66.52640734373423,20.932745413325705,0.976602040193629,4.623563976647334
85.0,66.20680796888044,20.934394996136547,0.9766084629183182,4.620596534756612
86.0,65.88856170694768,20.93612129888738,0.9766132800688079,4.618371384384926
87.0,65.5715552291843,20.93794865351632,0.9766164937133923,4.616887132836843
88.0,65.25575217458467,20.93983280719427,0.9766181059134418,4.616142629502238
89.0,64.9411187453724,20.941727881232577,0.9766181187335912,4.616136729931457
90.0,64.62765892095896,20.94356405228677,0.9766165339349104,4.616868573492711
91.0,64.31543273934574,20.945242712466467,0.9766133530803859,4.618337610231514
92.0,64.00452130070865,20.946668361032465,0.9766085776492496,4.620543449642217
93.0,63.69502408282992,20.947748518757397,0.976602208984712,4.623485865267963
94.0,63.38705973506395,20.948415788704374,0.9765942482278448,4.627164963672274
95.0,63.08075115820906,20.94861811486982,0.9765846965013875,4.631580993129978
96.0,62.77622777974775,20.948301691523326,0.9765735548379113,4.636734228325324
97.0,62.473632192017305,20.94745353023478,0.9765608238289214,4.6426253810661615
98.0,62.173089967713686,20.946111652026527,0.9765465040296812,4.649255496303306
99.0,61.87472549201039,20.94431578840718,0.9765305960037285,4.656625626231254
100.0,61.57866329486828,20.942106193475922,0.9765131003058316,4.664736829695874
101.0,61.285032512373036,20.939558626513836,0.9764940170216332,4.673590572896035
102.0,60.99395699864362,20.936782910330887,0.9764733460133529,4.683188635263464
103.0,60.70555845174036,20.933896486874154,0.9764510870764087,4.693532906542048
104.0,60.41995747869526,20.931031161299416,0.9764272398548318,4.704625456631141
105.0,60.13727237643814,20.928338756497162,0.9764018037179644,4.716468626750608
106.0,59.85762743939089,20.92599147676981,0.9763747778911681,4.729064968797308
107.0,59.58114144100091,20.924161138915082,0.9763461615293877,4.742417079568551
108.0,59.307929378982145,20.923037625215123,0.9763159533092909,4.756527953784265
109.0,59.0381280451416,20.9228331126985,0.9762841517267197,4.771400810382902
110.0,58.77187106965128,20.92375926936167,0.9762507552585822,4.787038882059073
111.0,58.509268851073855,20.926032169492856,0.9762157619289574,4.803445722535349
112.0,58.25047063808537,20.929898173189752,0.976179169336981,4.820625243960767
113.0,57.995633332123376,20.93560748146642,0.9761409750668107,4.838581377618977
114.0,57.744874175461874,20.943403866064074,0.9761011764107214,4.85731824067692
115.0,57.49834635471834,20.953561655987194,0.976059769946191,4.876840425781941
116.0,57.256232354010166,20.96636808142578,0.9760167521435076,4.897152600525628
117.0,57.01868423771531,20.982104345958668,0.9759721193145421,4.918259526035464
118.0,56.785848564411474,21.001067467874773,0.9759258669346215,4.9401664413972295
119.0,56.55792958073895,21.02357787539538,0.9758779902071291,4.962878734959111
120.0,56.33508419028367,21.04994717127777,0.9758284841218778,4.986401911427671
121.0,56.1174967086302,21.080510780059956,0.9757773427145819,5.0107419505477155
122.0,55.90539879300473,21.115621161963663,0.9757245597669207,5.035904951183249
123.0,55.698952511327946,21.15562015986123,0.9756701286728563,5.061897200506478
124.0,55.49838482405757,21.200883080875926,0.9756140416908418,5.088725483513012
125.0,55.30395335107598,21.25179576893964,0.9755562908852423,5.116396666137323
126.0,55.115833549606315,21.3087343562685,0.9754968676541659,5.1449179004840015
127.0,54.934303729102325,21.372115907031393,0.9754357621236428,5.17429683825371
128.0,54.75964677874544,21.442360802184112,0.9753729642725605,5.204541188780693
129.0,54.59206532577781,21.51988503162371,0.9753084630109353,5.235659072862879
130.0,54.43189709542083,21.60515036985763,0.9752422459141225,5.267659090930157
131.0,54.2794549967348,21.698615840441406,0.9751743003672975,5.300549913351933
132.0,54.13499982902062,21.80074731957589,0.9751046121887016,5.334340763046944
133.0,53.9989178171067,21.912048698181895,0.9750331661372902,5.369041219969999
134.0,53.8715035048155,22.033013034823405,0.9749599462454533,5.404661111148182
135.0,53.753157602324066,22.16417724290262,0.9748849345149391,5.441210930408784
136.0,53.64427679149574,22.306081990242877,0.9748081124848285,5.478701321803922
137.0,53.54522767038314,22.45928227590191,0.9747294596245274,5.517143591043169
138.0,53.45651009352494,22.62437462675564,0.9746489540639174,5.556549466642223
139.0,53.37850709249079,22.80194268812351,0.9745665727852716,5.5969310335529014
140.0,53.31175100212465,22.99262610178326,0.9744822900746086,5.638301212255057
141.0,53.25674522020111,23.197064598804577,0.974396079614318,5.680673106786423
142.0,53.21398313401215,23.415922685090834,0.9743079121182369,5.724060723433898
143.0,53.1841060830211,23.64990886220445,0.9742177566999726,5.768478557789599
144.0,53.167614672828094,23.899719510470522,0.9741255806897084,5.813941634634315
145.0,53.165206204579576,24.166118921568724,0.9740313479353886,5.860466033795381
146.0,53.17751432942709,24.44986623765852,0.9739350214693466,5.908068073950417
147.0,53.20519499573963,24.751758086455986,0.9738365601680319,5.956765317212927
148.0,53.24905987614062,25.072635889214745,0.973735921012906,6.006575902020886
149.0,53.309777586645254,25.41333496658928,0.9736330582069869,6.057518785457059
150.0,53.38820650433739,25.774754075817796,0.9735279222058192,6.109614061114267
151.0,53.48510332114339,26.157789888728004,0.9734204611729184,6.162882499897745
152.0,53.60139599023658,26.563400471985464,0.9733106186698929,6.217346272688347
153.0,53.737922155002195,26.99254349586583,0.9731983361160639,6.2730281866468
154.0,53.895657557327915,27.4462335165235,0.9730835494885739,6.329952713586293
155.0,54.075534268084155,27.925490545762578,0.9729661926028276,6.388144976745961
156.0,54.27855480351834,28.4313811066156,0.9728461932185907,6.447631963880708
157.0,54.505749035199756,28.96498963702281,0.972723476563502,6.508441443296057
158.0,54.75812933621301,29.527428005896233,0.9725979615576738,6.570603140064513
159.0,55.03680725155669,30.119840173572445,0.9724695638187186,6.634147820343565
160.0,55.342797082132655,30.743377162513365,0.9723381927444972,6.699108197988096
161.0,55.67725987862079,31.39923263820513,0.9722037533174537,6.765518405316006
162.0,56.04120042755938,32.08858852313218,0.9720661446763393,6.833414424928164
163.0,56.435784236892204,32.81267297626557,0.9719252601676199,6.902834132606213
164.0,56.86198860913613,33.572687385536085,0.9717809878732764,6.973817092146763
165.0,57.32092546064418,34.36987281935405,0.971633208568473,7.046405296840489
166.0,57.81351661944853,35.20543464500117,0.9714817984122167,7.120642241961985
167.0,58.340749754518235,36.080598625616624,0.9713266247866056,7.196574393320888
168.0,58.90344891934706,36.996553032679856,0.9711675509897985,7.274249570732335
169.0,59.50239662325783,37.95447357885319,0.9710044303540861,7.353719029985257
170.0,60.13825749374486,38.95550267695699,0.9708371123129229,7.4350353545786305
171.0,60.811522648249394,40.00072584471581,0.9706654356997625,7.518254853187247
172.0,61.52260930223688,41.091200167474256,0.9704892350578845,7.603435348313186
173.0,62.27163392502604,42.22787777754966,0.9703083344520852,7.6906384189800185
174.0,63.05864787899743,43.41167800283784,0.9701225528568261,7.779927502034801
175.0,63.883305336385604,44.64337041842238,0.9699316992800837,7.871369689947344
176.0,64.74515956317065,45.92367287053814,0.9697355757183643,7.965034739236844
177.0,65.64337743449914,47.253144479504485,0.9695339778252247,8.060994744324724
178.0,66.5767545214894,48.63217967756492,0.969326688891296,8.159326659175543
179.0,67.54395507716406,50.061109165144224,0.9691134897535175,8.26010837443974
180.0,68.5430240482879,51.53997282719692,0.9688941497974984,8.363422333025003
181.0,69.57178769922268,53.068705986236886,0.9686684323560923,8.46935349375174
182.0,70.62757496669035,54.64697931131215,0.9684360930143132,8.57799001830302
183.0,71.70730291943963,56.274259744271376,0.9681968791396083,8.68942363979639
184.0,72.80750888808568,57.94978314453214,0.9679505328008037,8.803748394478538
185.0,73.92423412854873,59.672507273007064,0.9676967880146682,8.921061990716808
186.0,75.05312213087075,61.44112088299996,0.9674353733484641,9.041464715772246
187.0,76.18939029931353,63.25404620121566,0.9671660112015349,9.165059889668932
188.0,77.32784566779519,65.10937927775448,0.9668884188162374,9.291953540078323
189.0,78.46295877026643,67.0049584121971,0.9666023089584005,9.422254144556831
190.0,79.58882859831691,68.93825897437584,0.9663073900843554,9.556072844323912
191.0,80.69932180158195,70.90651443480314,0.9660033678783941,9.69352261883237
192.0,81.78803853966271,72.90657916400257,0.9656899451402244,9.834718852200293
193.0,82.84845902407142,74.93508061561934,0.9653668236141256,9.979778164588257
194.0,83.87396064920843,76.98828504302483,0.9650337040975895,10.128819069661088
195.0,84.85792920284149,79.06224250570239,0.9646902882056344,10.28196071857689
196.0,85.79383899019973,81.15269417242425,0.9643362788192182,10.439323431096122
197.0,86.6753305915965,83.2551812686971,0.9639713819225328,10.601027485417788
198.0,87.49631468466194,85.36500966787264,0.9635953069485664,10.767193501922542
199.0,88.25106183158101,87.47731859899059,0.9632077693247296,10.937941200164884
200.0,88.93425307786973,89.58709477193214,0.9628084899062653,11.113389799224526
201.0,89.5411449705468,91.68921600372607,0.9623971990186657,11.293656543398447
202.0,90.06749220330651,93.77848914575321,0.9619736342298663,11.478857335570774
203.0,90.50982833228686,95.84969454555608,0.9615375463504686,11.669104872455206
204.0,90.86522852243709,97.89761787056592,0.9610886953814487,11.86450959740766
205.0,91.13169075902518,99.91711523655046,0.9606268580732529,12.065177515207901
206.0,91.30778072366199,101.90312280989717,0.9601518229320296,12.271211264191926
207.0,91.39302458454209,103.85074076249707,0.9596633978216124,12.48270798978193
208.0,91.38754222699119,105.75522931230904,0.9591614058541466,12.699760062872912
209.0,91.29234091927346,107.61208555848683,0.9586456909315368,12.922453597708323
210.0,91.10903484215689,109.41705392839675,0.958116116533946,13.150868226633312
211.0,90.83996856358543,111.16615712184145,0.957572567118868,13.38507691982416
212.0,90.48807539916105,112.85575838476541,0.9570149518476793,13.625144121432108
213.0,90.05685598003826,114.48251957673871,0.9564432006163993,13.871127408461973
214.0,89.55026840928966,116.04349558267192,0.9558572711223584,14.123074338892124
215.0,88.9727053302595,117.53607286168422,0.9552571434531588,14.381024710610783
216.0,88.3288614305476,118.958049022196,0.9546428271030307,14.645007344466107
217.0,87.62371594279595,120.30756855546466,0.9540143552738017,14.915042476027732
218.0,86.86239704256764,121.58318585217835,0.9533717917528743,15.191138533466438
219.0,86.05016970789039,122.78379996449837,0.9527152249280193,15.473294658735256
220.0,85.19230912460054,123.90870050030195,0.9520447744370006,15.761497527477283
221.0,84.29409377917482,124.95750409464404,0.9513605849711319,16.055723967939603
222.0,83.36069697460199,125.93018393675652,0.95066283262408,16.355937865367412
223.0,82.3971845218546,126.82700999495789,0.9499517185648061,16.662092843862148
224.0,81.4084293908534,127.64856451564143,0.9492274750326538,16.974129291384514
225.0,80.39911335557139,128.3956870409902,0.9484903589634671,17.291977067740046
226.0,79.37366631952463,129.06947898241367,0.9477406575980476,17.61555267898197
227.0,78.33627053021578,129.67125443247255,0.9469786821459357,17.944761973772877
228.0,77.29082423189733,130.2025362959711,0.9462047729931027,18.279497488296425
229.0,76.24094661952343,130.66501384040365,0.9454192934863445,18.619641093331673
230.0,75.18996310796679,131.06053320833516,0.9446226347422946,18.965061523373084
231.0,74.1409105297941,131.39106107092925,0.9438152096320346,19.315616937711006
232.0,73.09653913575431,131.65867308455415,0.9429974572061625,19.67115264086058
233.0,72.0593178176911,131.86552269045706,0.9421698369546186,20.031503522549404
234.0,71.03144903977496,132.01382913169232,0.9413328328710174,20.39649197118188
235.0,70.01487456333966,132.1058522068494,0.9404869479316774,20.765930237057713
236.0,69.01129653967881,132.14388092858917,0.9396327082119534,21.13961833080627
237.0,68.0221670621319,132.13021057720758,0.9387706581294506,21.51734590444968
238.0,67.04877358324178,132.06714005440764,0.9379013606450746,21.898892576535307
239.0,66.09212083547702,131.9569384970562,0.9370254018871889,22.284024293717692
240.0,65.1531411571252,131.8018691583056,0.9361433771309741,22.67250195961962
241.0,64.23249561004138,131.60413342697473,0.9352559108789503,23.06406911557561
242.0,63.33075066598013,131.36590139871393,0.934363635256143,23.45846429750924
243.0,62.448351818208714,131.08930136145068,0.9334672020368577,23.855414675491183
244.0,61.58555823931212,130.77636882191064,0.9325672849000815,24.25463330656889
245.0,60.74259671395297,130.4291221213796,0.9316645631541539,24.655829868524194
246.0,59.91954700494564,130.04947646464774,0.9307597438254961,25.05869690625722
247.0,59.11641719748477,129.6392859952716,0.9298535445593769,25.462919742695068
248.0,58.33316921353788,129.20036062981566,0.9289466969458983,25.868175380267534
249.0,57.56966187855197,128.73438710140192,0.92803995944639,26.274123657684544
250.0,56.825736828489674,128.24303001240204,0.9271340952282263,26.68042139083689
251.0,56.10117764029748,127.7278538651914,0.9262298943738153,27.086708978584745
252.0,55.39572341730431,127.19033167066162,0.9253281675354476,27.4926138519152
