Time,J,A,S,tau
0.0,100.0,100.0,0.8095851530963546,10.1010101010101
1.0,99.41806019680983,36.788887059652,0.805032348414465,11.091630458042234
2.0,98.84570591621589,13.533798194170204,0.8005483104830504,12.082689613135654
3.0,98.28253522682735,4.978818991606054,0.7961304686566966,13.07413565510747
4.0,97.72815236478176,1.8316491429932065,0.7917762668441928,14.065938403226378
5.0,97.18217527534482,0.6738797569971183,0.7874832058612169,15.058069957991515
6.0,96.64423494430598,0.24796217344193103,0.7832488431652881,16.050504492976156
7.0,96.11397476146429,0.09127510932661756,0.7790707923462687,17.04321806524078
8.0,95.59104991442432,0.033631538118724456,0.7749467224106118,18.036188442504614
9.0,95.07512681103243,0.012423817057489975,0.7708743568929441,19.029394945432706
10.0,94.56588252888739,0.004620116569412881,0.7668514728244811,20.022818303547503
11.0,94.06300429045525,0.001747579204625907,0.7628758995841541,21.016440523411283
12.0,93.5661889624126,0.0006892404436848721,0.758945517655153,22.010244767850384
13.0,93.07514257792137,0.0002984356259420613,0.7550582573067393,23.004215245103413
14.0,92.58957988062232,0.00015332437348134593,0.7512120972187347,23.99833710687648
15.0,92.10922388920179,9.871414873367771e-05,0.7474050630638588,24.992596354378588
16.0,91.63380548147943,7.750623444939699e-05,0.7436352260613218,25.986979751493102
17.0,91.16306299697752,6.868869498438034e-05,0.7399007015130897,26.981474744308628
18.0,90.69674185703731,6.452575131916741e-05,0.7361996473330173,27.976069386301884
19.0,90.23459420175385,6.21662987154346e-05,0.7325302625787218,28.970752268531776
20.0,89.77637854158489,6.055647015189419e-05,0.7288907859856107,29.965512454156034
21.0,89.32185942352989,5.9303965382863044e-05,0.725279494513458,30.960339416804743
22.0,88.87080712736595,5.8261695279464736e-05,0.7216947020192922,31.955222983081562
23.0,88.42299733588683,5.737284004134436e-05,0.7181347576978533,32.9501532757889
24.0,87.9782108641082,5.661234329672027e-05,0.714598044855381,33.94512066201535
25.0,87.53623338198834,5.596883414682974e-05,0.7110829796003406,34.940115701890804
26.0,87.09685513144217,5.543654749235757e-05,0.7075880094515645,35.93512909848178
27.0,86.65987067278166,5.501140172693431e-05,0.7041116121102251,36.930151649751835
28.0,86.2250786562513,5.468980586485313e-05,0.7006522943845191,37.92517420113738
29.0,85.79228158096889,5.447025246816593e-05,0.6972085910049736,38.920187597909056
30.0,85.36128556100547,5.435186772010101e-05,0.6937790634656809,39.915182638086506
31.0,84.93190011497396,5.433334066363146e-05,0.6903622990216096,40.910150025092726
32.0,84.50393797376373,5.4413939216989374e-05,0.6869569098207967,41.90508031865469
33.0,84.07721487328475,5.459437878598442e-05,0.6835615319145678,42.89996388550169
34.0,83.65154936320637,5.487583655102896e-05,0.6801748243821928,43.894790848916365
35.0,83.22676263361839,5.525873447373705e-05,0.6767954686011072,44.88955103559776
36.0,82.80267835134543,5.574477728910134e-05,0.6734221676139129,45.88423391879185
37.0,82.37912248698498,5.633678356579973e-05,0.6700536454163986,46.87882856137086
38.0,81.95592315950825,5.703792326880427e-05,0.6666886464020814,47.87332355503903
39.0,81.53291049553637,5.785057544577758e-05,0.6633259349605197,48.86770695379336
40.0,81.10991649088197,5.87789913940938e-05,0.6599642951293725,49.86196620263853
41.0,80.68677487151511,5.982839832586872e-05,0.6566025302421107,50.85608806522271
42.0,80.26332096988203,6.100480391313647e-05,0.6532394627534506,51.85005854379871
43.0,79.83939161462392,6.23120890374405e-05,0.6498739342474937,52.843862789175766
44.0,79.41482501180012,6.375832652974932e-05,0.6465048053795411,53.837485010377925
45.0,78.98946064829353,6.534991948437013e-05,0.6431309561017564,54.830908369973066
46.0,78.56313919254617,6.709661280431467e-05,0.6397512859115657,55.824114874142865
47.0,78.13570240777216,6.90062187733153e-05,0.6363647142604987,56.817085253592005
48.0,77.70699307163152,7.109041433852121e-05,0.6329701811657841,57.80979882696831
49.0,77.27685490068217,7.335909914869797e-05,0.629566647829861,58.802233364946375
50.0,76.8451324880355,7.582586664489497e-05,0.6261530976559049,59.794364920803375
51.0,76.41167124070175,7.8503501177363e-05,0.6227285371293373,60.78616767269467
52.0,75.97631733463398,8.140738935803709e-05,0.6192919972681257,61.777613716095125
53.0,75.53891766643528,8.455419704688332e-05,0.6158425348478006,62.7686728754848
54.0,75.09931982573283,8.796110468347826e-05,0.6123792342996456,63.75931245526713
55.0,74.65737206269847,9.164935443782707e-05,0.6089012093955964,64.74949700759126
56.0,74.21292327777279,9.56385051377215e-05,0.6054076055976865,65.73918803914707
57.0,73.76582300625614,9.99558364335324e-05,0.6018976023492016,66.72834371744992
58.0,73.31592142658734,0.00010462397069376019,0.5983704158805477,67.71691853102219
59.0,72.86306936551746,0.00010967113927025092,0.5948253021789132,68.70486292486905
60.0,72.40711831939204,0.00011512997306459863,0.5912615604465817,69.69212288567782
61.0,71.94792048576264,0.00012103386099129892,0.58767853683129,70.67863949601644
62.0,71.48532880196682,0.0001274188861490178,0.5840756284853372,71.66434844840643
63.0,71.01919699602962,0.00013432847536561557,0.5804522882365581,72.64917948837073
64.0,70.54945203198923,0.00021719659657930995,0.5768080295490771,73.63305582131244
65.0,70.07602310554347,0.000367008793961983,0.5731424319547807,74.61589346125834
66.0,69.59873950227275,0.0005237063571563533,0.5694551472242314,75.59760048228162
67.0,69.11746750304714,0.0006878972453729894,0.565745905811324,76.57807623387178
68.0,68.63207547405553,0.000860240900085383,0.5620145240022313,77.55721045990502
69.0,68.14243408871944,0.001041452981122764,0.5582609119436823,78.5348823041263
70.0,67.64841653684391,0.0012323101959535216,0.5544850816488455,79.51095929295418
71.0,67.1498988073286,0.0014336558302624582,0.5506871565414156,80.48529612629967
72.0,66.64675994694085,0.0016464057859656143,0.5468673814044849,81.45773338221751
73.0,66.13888236825285,0.0018715543342803377,0.5430261323615089,82.42809619710123
74.0,65.62615220801447,0.00211018136693932,0.5391639291957497,83.3961926283241
75.0,65.10845967174214,0.0023634596504431508,0.5352814474962746,84.3618119897086
76.0,64.58569942205297,0.0026326621224912606,0.5313795311904341,85.32472309912164
77.0,64.05777103141017,0.0029191702440567783,0.5274592069360035,86.28467224511024
78.0,63.524579447699864,0.0032244832112287456,0.5235216996503104,87.24138094320647
79.0,62.98603547946288,0.003550226787644889,0.5195684476366365,88.19454367497967
80.0,62.44205633408931,0.003898162839685794,0.515601118976659,89.14382539206179
81.0,61.89256621786374,0.004270199510653331,0.5116216291589467,90.08885877324798
82.0,61.33749696838773,0.004668402438431856,0.5076321601832463,91.02924118523424
83.0,60.77678869813602,0.005095005136480943,0.5036351785385091,91.96453168527037
84.0,60.21039050510848,0.005552419882928166,0.499633454231058,92.89424776973624
85.0,59.63826125887758,0.006043248977667694,0.49563008071199,93.81786186815333
86.0,59.06037042763666,0.006570296868377311,0.4916284960128643,94.73479752021895
87.0,58.476698904267195,0.007136580356438324,0.4876325011681419,95.6444257814025
88.0,57.88723992348992,0.00774533958011663,0.48364628007779087,96.5460612607402
89.0,57.29200002114061,0.008400047543965193,0.4796744175189922,97.43895824686479
90.0,56.69100008285342,0.009104419247273806,0.47572191696463284,98.3223066675166
91.0,56.084276396549136,0.009862419751137741,0.47179421662807,99.19522811247582
92.0,55.471881747190665,0.010678269574819139,0.467897201961535,100.05677218615699
93.0,54.85388656959191,0.011556448090348882,0.464037215508465,100.90591305610701
94.0,54.230380138556825,0.012501694218469939,0.46022106299540516,101.74154637313288
95.0,53.60147179175247,0.013519003742918222,0.4564560146951686,102.5624867250651
96.0,52.967292207468674,0.014613622542034375,0.45274980125617564,103.36746576136329
97.0,52.32799466542068,0.01579103564146632,0.44911060325432267,104.15513113809253
98.0,51.68375631325673,0.017056950325588037,0.44554703237475923,104.92404666015342
99.0,51.03477933106843,0.018417273372959644,0.4420681035563119,105.67269383019361
100.0,50.38129224832251,0.019878081380054237,0.43868319839561726,106.39947469299096
101.0,49.72355107891518,0.021445584364248926,0.4354020177602332,107.10271649123241
102.0,49.0618404231962,0.023126081280734404,0.4322345229879702,107.78067830029562
103.0,48.39647445101547,0.024925908751421554,0.42919086633852566,108.43155943947075
104.0,47.727797730840436,0.026851380172657015,0.42628130775362105,109.05351061306231
105.0,47.05618599413128,0.02890871804700422,0.42351612153172324,109.64464693393475
106.0,46.3820466191159,0.031103978458968846,0.42090548982792103,110.20306328685109
107.0,45.70581884846822,0.03344297029455389,0.4184593885638114,110.72685197287758
108.0,45.027974014781655,0.035931165132514674,0.4161874592391381,111.21412245799355
109.0,44.34901488545327,0.03857361149132261,0.4140988831044887,111.66302211953003
110.0,43.66947558437488,0.04137484149135605,0.41220224808029066,112.07175824588653
111.0,42.989919646250016,0.044338778090025295,0.41050540437623645,112.43862170161565
112.0,42.31094035456075,0.04746861152247215,0.409015291184179,112.76201548616928
113.0,41.633156416302924,0.05076679627645159,0.4077379115331949,113.04046360808826
114.0,40.95311415092856,0.05586386384537981,0.6135836670983704,39.33532351481525
115.0,40.27805496177811,0.09502141872992828,0.6786675295737089,27.120698550168434
116.0,39.67500211727908,0.1470965220713421,0.7144227810407425,21.73028899332935
117.0,39.16841379969879,0.20739503305404242,0.7389441811522947,18.424494767695464
118.0,38.774439501726874,0.27481269970394295,0.7573147881875913,16.116262818436425
119.0,38.506844430050315,0.3489984499041913,0.7717365393330075,14.387660849865227
120.0,38.37823951870274,0.4298709893562876,0.7833799793091872,13.03512815077338
121.0,38.400444224987176,0.51747035132227,0.792948640468402,11.944612603074532
122.0,38.584567185228714,0.6118967128038747,0.8009017424286317,11.045960343845802
123.0,38.94096425215328,0.7132796882846983,0.8075574894544829,10.29302501548062
124.0,39.476343974954595,0.8231708114971648,0.8131464982842844,9.653892718843835
125.0,40.17500335945435,1.044124142456743,0.8178420777161769,9.105591227139458
126.0,41.232780069437226,1.447256071137836,0.8217781493493804,8.631070378166813
127.0,42.89705315978921,2.047682796436675,0.8250606940147391,8.21734316751247
128.0,45.3272769056261,2.8526472705315853,0.8277752501730985,7.85430544874313
129.0,48.54786230478385,3.8665309939783414,0.8299920203681957,7.533954790139072
130.0,52.432193333003305,5.092031098278127,0.8317694607222068,7.249855774659432
131.0,56.716579260559854,6.529266037455484,0.8331568568680386,6.996765387334836
132.0,60.928011219054916,8.28932249084686,0.8341962060057014,6.770365518448483
133.0,64.24219965806431,10.742933978986875,0.8349236440857792,6.567064376255471
134.0,65.7002362941607,14.186500696744382,0.8353705242490607,6.3838495438842795
135.0,64.49058378597616,18.70522963607796,0.8355642554239437,6.21817579403672
136.0,60.404687850801466,24.154005584471175,0.8355289600905439,6.067878742339979
137.0,53.998586019162786,30.1946470957335,0.8352859975761454,5.931107327681847
138.0,46.26187188770827,36.37521932912164,0.8348543841201259,5.806270587210619
139.0,38.26674893234434,42.137513761950096,0.8342511352664357,5.69199499290159
140.0,31.13756328916256,46.70828024076261,0.8334915462756802,5.587090098063384
141.0,25.728754399097554,49.43494377599628,0.8325894247540512,5.490520512101913
142.0,22.180614876036117,50.28303946293123,0.8315572847601911,5.40138291275748
143.0,20.03585535251639,49.76428864448243,0.8304065104064521,5.318886981643833
144.0,18.722456946087075,48.47948369248741,0.8291474942704488,5.242339556777272
145.0,17.83619334898576,46.84893504526269,0.8277897556695384,5.1711313204731475
146.0,17.158538162126156,45.10100114107063,0.8263420421159473,5.104725572758117
147.0,16.590077170634633,43.341965063674365,0.8248124169246622,5.042648708559528
148.0,16.089457476923013,41.61872156861249,0.8232083348501038,4.984482127295341
149.0,15.639682497233805,39.95316792754986,0.8215367093283863,4.929855194559318
150.0,15.23375806622543,38.35675171204605,0.81980396855555,4.8784394216346705
151.0,14.868839431769468,36.836304751470045,0.8180161069549201,4.829943276399755
152.0,14.543535556894348,35.396574231957175,0.8161787291123743,4.7841077630794056
153.0,14.256501668704775,34.04137476956892,0.8142970941161168,4.740702150585041
154.0,14.005838571529354,32.77405610813341,0.812376144429714,4.6995212060973275
155.0,13.788536846713997,31.59754655535041,0.8104205337737745,4.660382298039841
156.0,13.60034485618678,30.514305183108235,0.8084346689304178,4.623121809905291
157.0,13.435707197477495,29.526134146041038,0.8064227195410032,4.587594012908908
158.0,13.287931887769322,28.633971523981945,0.8043886470846474,4.553668549583291
159.0,13.149430800740538,27.837620480467418,0.8023362218667822,4.521228848026378
160.0,13.012200874748645,27.135510989600128,0.8002690411427175,4.490170533000265
161.0,12.868384650035848,26.52449364210083,0.7981905442017674,4.460400086313698
162.0,12.710910190760908,25.999718857683533,0.796104025999704,4.431833652064876
163.0,12.534117173992087,25.554631385764488,0.7940126492446998,4.404395981971397
164.0,12.334277396745298,25.18111107166912,0.7919194551003315,4.378019503025816
165.0,12.109940696786978,24.86977230800048,0.789827372929263,4.3526434802821035
166.0,11.861964372822525,24.61039206641117,0.7877392286304924,4.328213283043006
167.0,11.593328650221446,24.39244495513861,0.7856577521088598,4.304679733799423
168.0,11.30870580043723,24.20567920212598,0.783585583791034,4.281998531353458
169.0,11.013870517248135,24.040661016577772,0.7815252805663475,4.260129727160037
170.0,10.715041600953544,23.889229579881906,0.7794793205822516,4.239037277058397
171.0,10.41828362365557,23.744804587845305,0.7774501078530668,4.218688625819005
172.0,10.12900204729808,23.602525679715516,0.7754399760125216,4.199054345762181
173.0,9.851601415071704,23.45922810408904,0.7734511915446123,4.180107815207918
174.0,9.589309054809682,23.31327945490861,0.7714859565287577,4.161824931942244
175.0,9.344153775997217,23.164313803411208,0.7695464111116699,4.144183852355062
176.0,9.117062050996925,23.01291624092721,0.7676346355753743,4.12716475878104
177.0,8.908031258764556,22.860303626847863,0.7657526532503409,4.110749625583435
178.0,8.716320094172326,22.70803456344656,0.7639024254987024,4.0949221998964696
179.0,8.540726236637155,22.55774210482789,0.7620858641768564,4.07966753827808
180.0,8.37972738866045,22.41096340222465,0.7603048231495801,4.06497211032709
181.0,8.231700902056902,22.26899598073721,0.7585611017184507,4.050823587661052
182.0,8.095050837498269,22.13282899547682,0.7568564454834532,4.037210719225927
183.0,7.968313979354468,22.00312037787934,0.7551925467091692,4.024123228135101
184.0,7.850229076968017,21.88020856952819,0.7535710444077597,4.011551721631342
185.0,7.7397772584594575,21.764149039483474,0.7519935238238287,3.9994876143895826
186.0,7.636180696687552,21.654771021152357,0.7504615157644227,3.987923058465152
187.0,7.5388497734953726,21.551746947561906,0.7489764978794649,3.9768508580439876
188.0,7.447402971231803,21.454653835357213,0.7475398977778186,3.9662643829165427
189.0,7.361599585322048,21.363033976131714,0.7461530772010513,3.9561576517293284
190.0,7.281339037525784,21.27643479079758,0.7448173602570114,3.9465250343271037
191.0,7.2064240677888955,21.19445574007806,0.7435339983555102,3.937361502875902
192.0,7.136941594064111,21.116769356021926,0.7423041961221819,3.9286623571200545
193.0,7.072623114374276,21.043095213058063,0.7411291095135923,3.920423265657223
194.0,7.013453074770551,20.973273013472788,0.740009815568066,3.9126403501014635
195.0,6.9591325538743565,20.907154398825394,0.73894737676151,3.905309864542327
196.0,6.909414544811292,20.8446930007384,0.7379427441252149,3.898428607932226
197.0,6.86430286963074,20.785883788662947,0.7369968292228426,3.891993530303998
198.0,6.823492767666491,20.730716246354383,0.7361105153827388,3.886001742557441
199.0,6.786578222968907,20.679202822589087,0.7352845951595168,3.8804507397008874
200.0,6.753230168425835,20.631359313938546,0.7345198176505787,3.8753381691574877
201.0,6.723198730550967,20.587194768524167,0.7338168626297269,3.870661912507606
202.0,6.6961639151552905,20.54670347816116,0.7331763566302382,3.8664200348931415
203.0,6.671885404103841,20.50987331040401,0.7325988671018442,3.862610777619262
204.0,6.650070967418355,20.476673585094144,0.7320848935663072,3.8592325864932273
205.0,6.6306317958472425,20.447075821447083,0.7316348772274527,3.8562840448928646
206.0,6.61320247787403,20.421028236955568,0.731249216798467,3.8537638866052157
207.0,6.597743964957609,20.39849267540929,0.7309282047548122,3.8516710707408053
208.0,6.584201904424761,20.379429430187205,0.7306721201014122,3.8500045924669855
209.0,6.572242783469806,20.363783661120944,0.730481164716947,3.848763666535096
210.0,6.561896398676229,20.35152755415028,0.7303554555916358,3.84794765410473
211.0,6.552987899112441,20.342621756972054,0.7302951005842514,3.8475559663437426
212.0,6.545321248542645,20.337035483700326,0.7303000949840652,3.8475882669449946
213.0,6.539004566790481,20.334761278307337,0.7303703772747315,3.8480443019185584
214.0,6.5338778534365,20.33577710706698,0.7305058764049083,3.8489238756078796
215.0,6.529733598617426,20.340067624568036,0.7307064032805691,3.8502270603023487
216.0,6.526689954072452,20.34764051284328,0.730971713645366,3.851954005208376
217.0,6.5246359367940245,20.358489845280214,0.7313015483699579,3.854104925883399
218.0,6.5234021474706045,20.37261120204179,0.7316955397182551,3.8566802998672234
219.0,6.523062104707199,20.390017258259245,0.7321532776156509,3.859680670128331
220.0,6.523422556330952,20.410703926184848,0.7326743091007923,3.8631067272960053
221.0,6.524518229926567,20.434684225538245,0.7332580822436162,3.8669593852706545
222.0,6.52634208083859,20.46196884629723,0.7339040291039963,3.8712396061497176
223.0,6.5287494994679545,20.492561913207116,0.7346114969277773,3.8759486193989567
224.0,6.531854372167083,20.526486208320154,0.7353797732697056,3.8810877942124513
225.0,6.535525269051587,20.56374860395314,0.7362081184770404,3.886658625329623
226.0,6.539777501291489,20.604369647804152,0.7370956924271409,3.8926629347271517
227.0,6.544678875181306,20.64837402940425,0.7380416336979126,3.8991026113650213
228.0,6.550085625695313,20.695774072937617,0.7390450146517868,3.905979846729441
229.0,6.556124316194093,20.746604567121707,0.7401048354927912,3.9132970999256544
230.0,6.56273797451932,20.800887221907352,0.741220078951977,3.9210569377966666
231.0,6.569905559432303,20.858650803014392,0.7423896340401007,3.9292624076969314
232.0,6.577751949851014,20.91993629585136,0.743612359338568,3.9379166973106843
233.0,6.586147117116332,20.984766886987728,0.7448870653956899,3.9470233320253905
234.0,6.595207043991155,21.05318894676141,0.7462124829170111,3.9565863347790597
235.0,6.6049550663427326,21.125241620678764,0.7475873284517751,3.966609839665616
236.0,6.615326895879857,21.200960632966602,0.7490102375848595,3.9770986624046283
237.0,6.626488039915506,21.280402615497977,0.750479804160032,3.98805794991437
238.0,6.638339490968527,21.363602792622952,0.7519945893077389,3.999493208737276
239.0,6.650973033526154,21.45061678889758,0.7535530707902139,4.011410835121199
240.0,6.664493040384245,21.541501841753764,0.7551537094541727,4.023817419106068
241.0,6.67883004552603,21.636302423658154,0.7567949001895837,4.036720456899609
242.0,6.694119284999596,21.735083196107983,0.7584749925348911,4.050128067528871
243.0,6.710313603204708,21.837894252332184,0.7601922930988935,4.064049094282829
244.0,6.727552828543359,21.944804291348415,0.7619450470172227,4.078493445401658
245.0,6.745821991375533,22.055869009193035,0.7637314700385562,4.093471610275262
246.0,6.765223175279217,22.171158067937426,0.7655497053498238,4.108995628114451
