Time,J,A,S,tau
0.0,100.0,100.0,0.6680680041000276,17.543859649122805
1.0,97.45077041373553,97.88446500836275,0.6675660962319074,17.452279637804313
2.0,94.95664547710248,95.80921202561795,0.6670503571016331,17.358239794016136
3.0,92.51964295682555,93.77592158247268,0.6665217855077329,17.2619202747292
4.0,90.1387489823762,91.78383329191038,0.6659805282393736,17.163346751655876
5.0,87.8129102504163,89.8321702219844,0.6654267341949375,17.06254516149514
6.0,85.54107968152067,87.9201699851642,0.6648605631421204,16.95954285352739
7.0,83.32229966089808,86.04711856231187,0.664282179967555,16.85436786086648
8.0,81.1555349423979,84.21226737248611,0.6636917518625151,16.7470485010617
9.0,79.03978279866878,82.41489525286268,0.6630894579500797,16.637614657797737
10.0,76.97411873381165,80.6543217428071,0.6624754808749982,16.526096691761925
11.0,74.95753365379765,78.92982947815595,0.6618500064013908,16.4125253572199
12.0,72.98907935504188,77.24074038818945,0.6612132317924958,16.296932939467855
13.0,71.06786389477053,75.58640515703175,0.6605653567599858,16.179352059096697
14.0,69.19291068660092,73.96613835306258,0.6599065850185319,16.059815854587832
15.0,67.3633255182878,72.37930154067189,0.6592371309012536,15.938358903643692
16.0,65.57825523296697,70.82527641273745,0.6586401135510682,15.830363530389599
17.0,63.83679483550101,69.30342323883126,0.658462895711989,15.800120689021774
18.0,62.13805726606234,67.81311913713336,0.6582886311095281,15.77044973086281
19.0,60.48121217372873,66.35376767153032,0.6581173732373055,15.741356110601853
20.0,58.86540052227822,64.92476111000134,0.6579491747625384,15.712845143919848
21.0,57.28984252829617,63.52553020240767,0.6577840867264122,15.684921879014293
22.0,55.75374403775955,62.15549987794529,0.6576221598879014,15.657591317894495
23.0,54.256307098830064,60.81409348362651,0.6574634432847629,15.630858195798677
24.0,52.79682970647318,59.500776666951765,0.6573079847795387,15.60472706869236
25.0,51.374562477602964,58.21499429784729,0.657155831912343,15.579202444659376
26.0,49.98880502014589,56.95620790601619,0.6570070300893195,15.554288525236123
27.0,48.63893348186472,55.72391018925597,0.6568616239470374,15.529989402898222
28.0,47.324268503281296,54.517568650827926,0.6567196575008863,15.506309085551324
29.0,46.0442365977326,53.336684665080305,0.656581172514387,15.483251280315603
30.0,44.798307156796454,52.18077549291053,0.6564462103082607,15.460819635633491
31.0,43.58591122433578,51.049337348682805,0.6563148111399205,15.439017666055673
32.0,42.40662506103655,49.9419093184839,0.6561870131439255,15.417848621002074
33.0,41.26003126941523,48.85803248085416,0.6560628542411239,15.397315723245928
34.0,40.145707497942816,47.79723554348075,0.6559423708209978,15.377422015851602
35.0,39.06342112673515,46.7590988820529,0.6558255972063339,15.358170299790485
36.0,38.01293750223057,45.743202182979,0.6557125676161021,15.33956336400593
37.0,36.993995160480104,44.749107842963426,0.6556033148624457,15.32160384381453
38.0,36.00656735240123,43.77643559943453,0.6554978693935913,15.304294114151451
39.0,35.050647970089415,42.82481098914189,0.6553962614834199,15.2876365307499
40.0,34.12617792539596,41.89384207365988,0.6552985203051419,15.27163333801541
41.0,33.23336589963435,40.98319917971255,0.6552046724151814,15.256286508650726
42.0,32.37247370857273,40.09256587840451,0.6551147440536133,15.241597982185631
43.0,31.54370366511349,39.22161532720814,0.6550287605121065,15.227569608925943
44.0,30.747495030165588,38.37007975808375,0.6549467446431916,15.214202999287393
45.0,29.98433551115207,37.53770455801363,0.6548687189124573,15.201499725537587
46.0,29.254706988199324,36.72425105899656,0.6547947042570459,15.189461220812774
47.0,28.559339304832555,35.929545692642044,0.6547247197339419,15.17808873942251
48.0,27.89892906349669,35.1534182647666,0.6546587839924769,15.167383500656538
49.0,27.274243725916197,34.3957503517301,0.6545969136449916,15.157346542625673
50.0,26.68615471098057,33.656459133614156,0.6545391244013344,15.14797882101315
51.0,26.135530450892556,32.93550884476692,0.6544854303653036,15.139281153868712
52.0,25.62335644908835,32.23291290459411,0.6544358444778509,15.131254255909981
53.0,25.150531991553954,31.548728953258298,0.6543903783059273,15.123898728287381
54.0,24.718078675908917,30.883080944667817,0.6543490420114745,15.117215050011682
55.0,24.326854757700865,30.236132519723732,0.6543118446230003,15.111203609467845
56.0,23.977804042839214,29.608131252811503,0.654278793535461,15.105864656218696
57.0,23.67164937409834,28.999359282436227,0.6542498952237759,15.1011983682104
58.0,23.409104886419208,28.410197512403762,0.6542251543488569,15.097204772596072
59.0,23.19063696424062,27.841058295914557,0.6542045748036849,15.093883837515632
60.0,23.016542776591262,27.292460449975465,0.6541881585685917,15.091235375438178
61.0,22.886868893487566,26.76495133611668,0.6541759069753378,15.089259149048042
62.0,22.801256163685732,26.259189594230442,0.6541678193085372,15.087954757538881
63.0,22.759274412735223,25.775881309419077,0.654163894069386,15.087321735732028
64.0,22.759737703230556,25.315792565351476,0.6541641282992825,15.087359507745063
65.0,22.801229354738673,24.879760285640153,0.6541685177627702,15.088067394033743
66.0,22.881685496070762,24.468674808388183,0.6541770568734666,15.089444610236228
67.0,22.998548965367696,24.083472715690725,0.6541897388530242,15.091490277860432
68.0,23.148716432961383,23.72513781939026,0.65420655554061,15.094203408620507
69.0,23.328415020721643,23.394676109465124,0.6542274975614583,15.09758291930794
70.0,23.533272814954294,23.09310985746274,0.6542525542622832,15.101627625218224
71.0,23.758313827954336,22.821460144737507,0.6542817137375115,15.106336242068293
72.0,23.997982567561642,22.580728283749853,0.654314962815118,15.111707384314089
73.0,24.246172961593466,22.37187165813815,0.6543522870707438,15.117739565886149
74.0,24.49630626464193,22.19578158501014,0.654393670872513,15.124431203177823
75.0,24.74142335221282,22.053255136635553,0.6544390973497818,15.131780611658007
76.0,24.97430668894419,21.9449659122424,0.6544885484175442,15.139786007014232
77.0,25.18761400720276,21.871433171888338,0.6545420047850598,15.148445504962423
78.0,25.374038256335048,21.83298663445335,0.6545994459661001,15.157757121079479
79.0,25.526478883436848,21.829734386554954,0.6546608502895582,15.167718770584937
80.0,25.638226129286313,21.861527650927552,0.6547261949103141,15.178328268062796
81.0,25.703148042592968,21.927927953244513,0.6547954558198014,15.189583327070977
82.0,25.715870577152508,22.028175752709124,0.6548686078585159,15.201481559866012
83.0,25.671939434937467,22.161164446667925,0.6549456247328838,15.21402047747256
84.0,25.567986667328245,22.325414824818044,0.655026479015447,15.227197488037948
85.0,25.401846222407556,22.51905779300138,0.6551111421569634,15.241009896294278
86.0,25.172596139376708,22.739840977360913,0.6551995845360435,15.255454906517782
87.0,24.880664502390047,22.98511192884086,0.6552917754182582,15.270529616683502
88.0,24.527794804610345,23.251834937966766,0.6553876829880027,15.28623101975782
89.0,24.116976203293156,23.536627284758605,0.6554872743883464,15.30255600551019
90.0,23.65237872691622,23.835789183862943,0.6555905157162769,15.319501357891792
91.0,23.139228656233175,24.14535044484528,0.6556973720297,15.337063753776262
92.0,22.583641603452676,24.461136255021987,0.6558078073684365,15.355239762628893
93.0,21.992437340463315,24.778840228964704,0.6559217847669484,15.374025845504441
94.0,21.37293863087654,25.094106734882914,0.656039266282216,15.39341835570522
95.0,20.732771075088866,25.402618653086705,0.6561602129932727,15.413413536139116
96.0,20.079656463097248,25.70019029844561,0.6562845850233603,15.434007519166622
97.0,19.421220609564294,25.982859690991262,0.6564123415551705,15.45519632564435
98.0,18.76481796574215,26.246976890517033,0.6565434408468782,15.476975864004007
99.0,18.117379151130727,26.4892843873885,0.6566778402483784,15.499341929311298
100.0,17.48528552648113,26.706985746086033,0.6568154962177142,15.522290202306646
101.0,16.87427272465367,26.897799908371045,0.6569563643376906,15.545816248429741
102.0,16.289365643308283,27.059997196770055,0.6571003993326616,15.569915516829848
103.0,15.734842812763553,27.192417201175967,0.6572475550854852,15.594583339363995
104.0,15.21423187608727,27.294466112534494,0.6573977846566047,15.619814929888868
105.0,14.730321349480192,27.366100197666526,0.6575510402958751,15.645605382421559
106.0,14.285204241907396,27.407787379102057,0.6577072734631741,15.671949670554937
107.0,13.880342247348269,27.420454365988203,0.6578664348530637,15.698842647619577
108.0,13.516622667971259,27.40542811178523,0.658028474414054,15.726279046145503
109.0,13.194400759286696,27.36439177981795,0.6581933413022364,15.7542534654886
110.0,12.913670573556702,27.29926783560321,0.658360984040707,15.782760395550847
111.0,12.67401965773449,27.212201247744964,0.6585313503808101,15.81179418828867
112.0,12.47479979337234,27.10546587460947,0.6587043874154285,15.841349073151937
113.0,12.315128521653953,26.981416489116512,0.658880041604648,15.871419158814904
114.0,12.193950736466949,26.842439559501702,0.659058258691711,15.901998411118496
115.0,12.110103589730622,26.690910756897154,0.6592389838651648,15.93308068156468
116.0,12.06231060333228,26.529160330723755,0.6594221616578145,15.96465968180852
117.0,12.049234956922874,26.35944596489773,0.6596077360109032,15.996728991513416
118.0,12.069474087866377,26.18394419037886,0.6597956503285882,16.029282066811994
119.0,12.121572156303097,26.00472433110171,0.6599858474220109,16.0623122214992
120.0,12.204015828906424,25.823750543485485,0.6601782695790437,16.09581263823378
121.0,12.315230447757033,25.642879477809913,0.6603728585819882,16.12977636827118
122.0,12.453574501739189,25.463854292494233,0.6605695556975685,16.164196322788026
123.0,12.617322229318912,25.288308642661416,0.6607683017094016,16.19906527557578
124.0,12.804656405971977,25.117773844254092,0.6609690369524589,16.234375867372588
125.0,13.013664945345672,24.953679299753844,0.6611717013139484,16.27012060003608
126.0,13.242319863952641,24.79735315352939,0.6613762342424079,16.306291832364575
127.0,13.488472337320252,24.650031463486407,0.661582574790101,16.342881787521193
128.0,13.749858170974354,24.5128604362421,0.6617906616259491,16.37988255124195
129.0,14.02409355480129,24.386893676807762,0.6620004330337204,16.417286063170195
130.0,14.30866641333063,24.273097013522136,0.6622118269487994,16.455084123552563
131.0,14.600957079784614,24.172351042565147,0.6624247809810948,16.493268395351603
132.0,14.898258701658584,24.08544686402665,0.662639232417199,16.531830396416726
133.0,15.197771333345885,24.01308372102831,0.6628551182410544,16.570761500321588
134.0,15.496633402532677,23.955871680950693,0.6630723751648144,16.61005294262004
135.0,15.791960496676278,23.914327276981545,0.6632909396391474,16.649695816736198
136.0,16.080862295102083,23.888865152687902,0.6635107478617613,16.689681068105887
137.0,16.360468829626573,23.87979973049374,0.6637317358089646,16.729999502634627
138.0,16.62797746092223,23.887342491862782,0.6639538392524265,16.77064178666678
139.0,16.88070207706116,23.9115913940218,0.6641769937668518,16.81159843859365
140.0,17.116085407426368,23.952529697408934,0.6644011347532679,16.852859834575995
141.0,17.331745754147025,24.010026706894287,0.6646261974609186,16.894416212706776
142.0,17.525534706550797,24.083829797512756,0.6648521169994208,16.936257666826137
143.0,17.695554468278832,24.173559590476373,0.6650788283535841,16.97837414563573
144.0,17.840182909571656,24.27871566277973,0.6653062664067879,17.02075546061666
145.0,17.958108317120157,24.398675621378747,0.6655343659562188,17.063391285289025
146.0,18.048386007401565,24.5326856095307,0.6657630617270821,17.1062711437966
147.0,18.1103806658526,24.679877904310864,0.6659922883893413,17.149384429040015
148.0,18.143873503833962,24.83926607874845,0.6662219805859204,17.19272039150761
149.0,18.148971130343806,25.00975255615742,0.6664520729287956,17.236268141892584
150.0,18.12615636575742,25.190144740262067,0.6666825000366512,17.280016663718282
151.0,18.076279158844073,25.379148558712156,0.6669131965361325,17.323954787359767
152.0,18.000496359430244,25.575402341148898,0.6671440970866928,17.368071229533665
153.0,17.900304200488904,25.777470294345612,0.6673751363943516,17.412354555704688
154.0,17.777463041554903,25.983872129973197,0.667606249223003,17.456793210023832
155.0,17.633992606097017,26.1930920961413,0.6678373704206038,17.501375504089925
156.0,17.472131553356117,26.403600297868703,0.6680684349328241,17.54608961377927
157.0,17.29428288382841,26.613870094803765,0.6682993778086642,17.5909235971473
158.0,17.102989298689113,26.822396974685564,0.6685301342277861,17.63586538222578
159.0,16.90088594556808,27.027718953513872,0.6687606395149657,17.680902771837392
160.0,16.69065963725353,27.228434230230768,0.6689908291517748,17.726023448323822
161.0,16.475011548741307,27.423217454223934,0.6692206387916456,17.77121497576502
162.0,16.256617497669584,27.61083727939082,0.6694500042799769,17.81646480000664
163.0,16.038095335189052,27.79017338387442,0.6696788616704697,17.861760249802916
164.0,15.8219768494101,27.960226374279525,0.6699071472351793,17.907088542373526
165.0,15.610682284212068,28.12012671536822,0.6701347974791656,17.952436786005013
166.0,15.406490944887006,28.269146227464535,0.6703617491614906,17.997791980660633
167.0,15.211526988267792,28.406704309988417,0.6705879393116547,18.043141019805162
168.0,15.027748685613695,28.532367636433282,0.6708133052378149,18.088470696126894
169.0,14.856938204302278,28.645849223991448,0.6710377845410325,18.133767704536783
170.0,14.700687139809586,28.747009979711603,0.6712613151371544,18.17901864342148
171.0,14.560399553898971,28.8358542327222,0.6714838352715596,18.224210017511094
172.0,14.43729141627015,28.912521993691993,0.6717052835326873,18.26932824216261
173.0,14.332400834958513,28.97727466743593,0.6719255988461423,18.314359651124235
174.0,14.246561674221583,29.03049972336283,0.6721447205382036,18.359290490159164
175.0,14.18045362714412,29.072687255502302,0.6723625883023165,18.40410692962773
176.0,14.134574228899877,29.104419566288122,0.6725791422157853,18.448795068733965
177.0,14.109254125278147,29.126373528653705,0.6727943228265023,18.49334092637442
178.0,14.104676505098167,29.1392839201069,0.6730080710233377,18.537730468984467
179.0,14.120871384231407,29.143959091351874,0.6732203282342456,18.581949586428614
180.0,14.15771036833957,29.14124822056097,0.6734310362824482,18.625984120551532
181.0,14.214969998544372,29.132039782535742,0.6736401374491059,18.669819858866887
182.0,14.292242692710854,29.117254460816344,0.6738475745935012,18.713442533085065
183.0,14.389051354992556,29.09782630702605,0.6740532909229281,18.756837842949118
184.0,14.504758014763864,29.074703709034623,0.6742572303042823,18.799991437966906
185.0,14.638637627468034,29.04883607135911,0.6744593370036647,18.842888941882585
186.0,14.789829887230345,29.02116844235206,0.6746595559406297,18.885515943512218
187.0,14.957382866944902,28.99263605193325,0.6748578324854635,18.927858012766297
188.0,15.140232710238797,28.964158102083164,0.6750541126235737,18.96990069894202
189.0,15.337209392376984,28.936631357738907,0.6752483429241958,19.011629539500372
190.0,15.547055214269095,28.910930665137,0.6754404704876891,19.05303006499474
191.0,15.768407339980278,28.88789724306815,0.67563044310104,19.09408780507292
192.0,15.999818921823648,28.86834392921156,0.6758182090749623,19.13478829377024
193.0,16.239762536273364,28.85304478106896,0.6760037174080916,19.175117076488995
194.0,16.486622212777824,28.84273490517498,0.6761869177146823,19.21505971627979
195.0,16.738726993394117,28.83811061305694,0.6763677602219498,19.25460179738607
196.0,16.994331903797782,28.83981774325026,0.6765461958913322,19.29372893819997
197.0,17.251644304823394,28.84846133576211,0.6767221762537169,19.33242678805643
198.0,17.508838896018364,28.864590742238512,0.6768956536088206,19.37068104483897
199.0,17.76404647396203,28.88870504925317,0.6770665808902624,19.408477453524746
200.0,18.015402381699793,28.921249565231875,0.6772349117285268,19.445801814829853
201.0,18.261027927141495,28.962605908596643,0.6774006005159274,19.482639999580748
202.0,18.49906214213613,29.013103610085953,0.6775636022649326,19.518977939681623
203.0,18.72768847300073,29.073000043165713,0.6777238728205296,19.55480165736649
204.0,18.945117466213457,29.142493984863474,0.6778813686744799,19.590097251401616
205.0,19.149650080262383,29.221714191011355,0.6780360470955826,19.624850917717804
206.0,19.339653880027367,29.310716666056425,0.6781878661226659,19.65904895750373
207.0,19.51359922597226,29.4094939114017,0.67833678447159,19.692677768686508
208.0,19.670088170785412,29.517954579409988,0.6784827617299489,19.725723883275187
209.0,19.80782940878582,29.635943615460224,0.6786257581453767,19.75817394049863
210.0,19.925708936150702,29.76322422339479,0.6787657348121904,19.790014724314823
211.0,20.02275214869874,29.89948618783151,0.6789026535870513,19.821233157148246
212.0,20.09815691521632,30.044350230072126,0.6790364770516584,19.8518162979822
213.0,20.151328091117307,30.19735042161631,0.679167168717752,19.881751392314108
214.0,20.18181087705668,30.357968824616606,0.6792946926668372,19.91102580272666
215.0,20.189412717354763,30.525591918435637,0.6794190140807015,19.93962713367177
216.0,20.174081924308283,30.699564533067193,0.67954009863071,19.967543100691092
217.0,20.135985338312924,30.879152794169713,0.6796579130173693,19.994761661920524
218.0,20.075493734420956,31.06356904632906,0.6797724246576929,20.021270954898462
219.0,19.99312978057686,31.251978849501754,0.6798836017248789,20.047059307390793
220.0,19.889655263658884,31.443487326945515,0.6799914134004088,20.07211532001398
221.0,19.765940336557495,31.637175609748013,0.6800958294057636,20.09642773946189
222.0,19.62306000375838,31.832080729857807,0.68019682051712,20.119985614135764
223.0,19.46221052028944,32.0272219790691,0.6802943581827124,20.142778190207416
224.0,19.28472793158971,32.22159884601373,0.6803884147539095,20.16479499155374
225.0,19.092059624455278,32.41420710394038,0.680478963372477,20.18602578892908
226.0,18.885739470281937,32.60404234877017,0.6805659779911483,20.206460619141648
227.0,18.66738603055033,32.79011471054636,0.680649433429649,20.226089806585822
228.0,18.43866907125543,32.97145288770241,0.68072930526709,20.24490393722455
229.0,18.20129315854565,33.1471184523448,0.6808055699802107,20.26289391533984
230.0,17.956985265478895,33.316212452415655,0.6808782048445723,20.28005093373426
231.0,17.707466753602052,33.47788092744441,0.6809471879316068,20.2963664820323
232.0,17.45443864157536,33.631331700128435,0.6810124982180931,20.311832394449088
233.0,17.199574498428852,33.77583134787199,0.6810741154483311,20.3264408029948
234.0,16.94448649839468,33.91071742489417,0.6811320202158934,20.34018417930286
235.0,16.69072624409546,34.03540704860895,0.6811861939927842,20.35305534999266
236.0,16.43977459080713,34.14939101741716,0.6812366190154405,20.36504745747052
237.0,16.193010381729422,34.25224888000382,0.6812832784200755,20.376154024650198
238.0,15.951726765581896,34.3436462420975,0.6813261561796781,20.386368929832624
239.0,15.717112972209677,34.42333024339732,0.6813652370588484,20.395686396073806
240.0,15.49023649455531,34.49114380355919,0.6814005067515256,20.40410105576601
241.0,15.272067009858567,34.54701095022472,0.6814319517519526,20.411607895298047
242.0,15.063450658257565,34.59093882108882,0.6814595593941736,20.41820228121267
243.0,14.865109160181902,34.62302469718262,0.681483317967597,20.423880012960247
244.0,14.677671262708044,34.643430444186926,0.6815032164766531,20.428637215684745
245.0,14.501612960905216,34.652406778341295,0.6815192449823791,20.432470505991553
246.0,14.337348097010024,34.65025589845448,0.6815313942077408,20.43537679897046
247.0,14.185120159243317,34.637361386541194,0.6815396560309086,20.437353556769764
248.0,14.045145163321347,34.61413968026254,0.6815440228205076,20.438398457524958
