Time,J,A,S,tau
0.0,100.0,100.0,0.6462304299207573,31.25
1.0,98.87776469702565,98.19043955244243,0.6442069927566866,31.60605919264846
2.0,97.77440274515125,96.40821534246413,0.642192142421424,31.961576381549435
3.0,96.69213326211461,94.65608145362945,0.6401922450030517,32.315391867874105
4.0,95.63113870839538,92.93344179973768,0.6382076653741915,32.66741653423947
5.0,94.59162745212747,91.23974563055233,0.636238764293469,33.017560976300075
6.0,93.5738303520384,89.57446193675914,0.6342859017204313,33.36573571736758
7.0,92.57792417777644,87.9370385891069,0.6323494367335885,33.711851259878
8.0,91.60406316615465,86.32694585512384,0.6304297244568795,34.05581778002678
9.0,90.6524706352751,84.74370028277548,0.6285271189191625,34.39754528414406
10.0,89.72336300701278,83.18681598970569,0.6266419740952404,34.73694377948403
11.0,88.81684380232653,81.65577912973951,0.6247746419190443,35.07392313771511
12.0,87.93308898978415,80.15013120181501,0.6229254721374269,35.408392862748755
13.0,87.07231555792436,78.66943230744756,0.6210948144494327,35.740262405104616
14.0,86.23469686876587,77.21323090223214,0.6192830182233944,36.06944120525717
15.0,85.4203126865039,75.78106702510183,0.6174904309176058,36.39583843143088
16.0,84.62938035372076,74.37253606158441,0.6157173996840994,36.71936300178558
17.0,83.86212835284657,72.98723704499382,0.6139642717112493,37.0399238269649
18.0,83.11866626417326,71.6247443370556,0.6122313934969139,37.3574297580878
19.0,82.39914835766632,70.28465961006323,0.610519111044894,37.671789316143126
20.0,81.70384581731676,68.96661693032965,0.6088277706980927,37.98291092167131
21.0,81.03300768625107,67.67024612409384,0.6071577187236437,38.2907029936728
22.0,80.3867337051791,66.39515343240232,0.605509300998891,38.59507380650619
23.0,79.76532721564685,65.14099338673637,0.6038828643229641,38.895931399316446
24.0,79.16914401937726,63.907431459539346,0.6022787556961667,39.19318379090888
25.0,78.59845134510864,62.694119235012835,0.6006973219844981,39.486738980658245
26.0,78.0534789491546,61.50070592603401,0.5991389109378802,39.77650480154167
27.0,77.53471118650255,60.32688377142677,0.5976038715257912,40.062389002242305
28.0,77.04263687161145,59.17234586283764,0.5960925527379912,40.3442993304005
29.0,76.57755694611848,58.036760074901395,0.594605303825968,40.62214349048761
30.0,76.14000294843623,56.919823965125765,0.5931424763153919,40.89582913519318
31.0,75.73066814921094,55.82125637571012,0.5917044223732502,41.16526391938668
32.0,75.35020444345389,54.74077129803919,0.5902914942278861,41.43035549430077
33.0,74.99915915643936,53.67806733884293,0.5889040458269158,41.69101153612642
34.0,74.67840549871514,52.632876604637595,0.5875424329904736,41.94713980112998
35.0,74.3888204867004,51.60493212111134,0.586207011680928,42.19864804971031
36.0,74.13120844567656,50.59395550240458,0.5848981396421025,42.44544414245336
37.0,73.90672916932563,49.59969682407385,0.5836161767010967,42.687436125911226
38.0,73.71655048933263,48.62190679712872,0.5823614829184195,42.9245320646336
39.0,73.56180071629122,47.66032661469662,0.5811344205023892,43.15664022164381
40.0,73.44395190212153,46.71471995523528,0.5799353534779162,43.38366910723768
41.0,73.36441636966477,45.78484478465157,0.5787646465727563,43.60552729799253
42.0,73.32484211777039,44.87046666031975,0.5776226672503593,43.82212377943181
43.0,73.32709800430942,43.97136355927398,0.5765097838254841,44.03336770948704
44.0,73.3730586786689,43.08730754108456,0.575426366497283,44.239168533431275
45.0,73.42229467590853,42.25862142394802,0.5759552045212663,44.127043126394824
46.0,73.48828960691633,41.46736049185177,0.5771839911504993,43.87742444668695
47.0,73.58700625502013,40.69756013158277,0.5784406120015326,43.62311521250254
48.0,73.71859497813908,39.94954391857166,0.5797244663422029,43.36429816142063
49.0,73.882866334873,39.22361942252652,0.5810349430077897,43.101158076791066
50.0,74.07949288207556,38.52009531109601,0.5823713793570158,42.83388784909157
51.0,74.3083721389289,37.839295003601904,0.5837330962397672,42.56268267103035
52.0,74.5689883473373,37.18152103327293,0.5851194064064273,42.28773917893008
53.0,74.86031296380486,36.54705705525073,0.5865295733925764,42.00926049123787
54.0,75.18168902567129,35.93621009437119,0.5879628424650333,41.72745148876339
55.0,75.53214595463002,35.349272641854334,0.5894184534529257,41.44251779450245
56.0,75.9098993048094,34.78651385378253,0.5908956080984937,41.15466874282175
57.0,76.31349805387114,34.248231392524296,0.5923934920556393,40.86411450854678
58.0,76.74089375731572,33.734703963219395,0.5939112801346145,40.571066061294125
59.0,77.18965140187281,33.24622943105043,0.5954481199891132,40.27573527721164
60.0,77.65721502051828,32.78311305517464,0.5970031522312917,39.97833407031683
61.0,78.14029193143907,32.34567831679657,0.5985754975166265,39.67907399057627
62.0,78.63562502453107,31.934283293620712,0.6001642673013591,39.3781659714286
63.0,79.13910630459175,31.549303472348118,0.6017685611995736,39.07581983174515
64.0,79.64645139938501,31.191165215747873,0.6033874692865242,38.77224390730698
65.0,80.15266305076572,30.860340167339327,0.6050200735095665,38.467644487769824
66.0,80.65250458132093,30.557359951020988,0.6066654499178131,38.16222587215855
67.0,81.13997648809782,30.28282910604852,0.6083226692136844,37.85618930486743
68.0,81.60881722727609,30.037427187020164,0.6099907991824042,37.54973357699872
69.0,82.05203157890492,29.82193165800065,0.6116689055953882,37.24305372353577
70.0,82.46216165515102,29.637212754356362,0.6133560540195216,36.93634156799988
71.0,82.83130516606955,29.484271196719416,0.6150513110074785,36.62978485731897
72.0,83.1509502305087,29.36423533078458,0.6167537459597349,36.323567139191475
73.0,83.41219517214674,29.278369818998232,0.6184624317425257,36.017867963342695
74.0,83.60569771607706,29.228121195459156,0.6201764469797573,35.712861825723735
75.0,83.72166014931439,29.215096422701798,0.6218948766559775,35.40871874691706
76.0,83.75007936736326,29.24110475938307,0.6236168131747103,35.105603867353274
77.0,83.6806283466877,29.3081839064474,0.6253413587501837,34.80367683517843
78.0,83.502831005898,29.418579948987492,0.6270676247139829,34.50309258848498
79.0,83.20730275350289,29.573829390073353,0.6287947340469044,34.20400038057777
80.0,82.79039484573197,29.771007134186362,0.6305218221482505,33.90654403156551
81.0,82.24839923313847,30.008996076597995,0.6322480362260888,33.61086233036854
82.0,81.57731375153416,30.288275037820256,0.6339725392307454,33.317087781973136
83.0,80.77413354237778,30.609133299946713,0.6356945069153017,33.02534814935702
84.0,79.83760643074767,30.971568131873887,0.6374131320575236,32.735764885674335
85.0,78.76756151723492,31.375292590226717,0.6391276219962457,32.44845461882619
86.0,77.56591780455479,31.81959634206038,0.6408372032776779,32.16352735678671
87.0,76.2355626099113,32.3034624579363,0.6425411157694364,31.881089039497525
88.0,74.78125686049687,32.82534038028072,0.6442386202419055,31.60123906057922
89.0,73.20906402171235,33.38321453732232,0.6459289946838498,31.324071776181835
90.0,71.52642783492713,33.974553773207745,0.6476115346269653,31.049676390879444
91.0,69.74201842767394,34.596237736698384,0.6492855555302901,30.778136616737136
92.0,67.86556067887796,35.244568650765736,0.650950391266832,30.50953118014897
93.0,65.90770377433309,35.915241694147,0.6526053945231783,30.24393385882128
94.0,63.87989354205174,36.60330308605393,0.6542499377382848,29.981413394619377
95.0,61.79420246427504,37.30316646164204,0.6558834127399552,29.722033751630605
96.0,59.66320294595762,38.00862921407164,0.6575052301581145,29.465854367199935
97.0,57.49987318956306,38.712862164837105,0.659114820338552,29.21293007317622
98.0,55.317488723464876,39.408448209186226,0.6607116328175556,28.963311337184827
99.0,53.129536348570454,40.08742700428155,0.6622951363781175,28.71704437369785
100.0,50.949633486483805,40.74136092245664,0.6638648188564633,28.47417130179307
101.0,48.79144821048213,41.36142083606402,0.665420186964232,28.23473029259402
102.0,46.66861309188876,41.938496597436306,0.6669607660936087,27.998755715619325
103.0,44.594626374051224,42.46333482889907,0.6684861000945169,27.76627828592342
104.0,42.58273543725885,42.92670570396139,0.6699957510264122,27.53732521141881
105.0,40.64579407721734,43.319603187550925,0.6714892989194126,27.311920334104457
106.0,38.79609967106209,43.633478366210426,0.6729663415065622,27.09008427385268
107.0,37.04423070286525,43.861461522933205,0.6744264938514706,26.871834584819467
108.0,35.398156772757844,43.999272858775704,0.6758693880123138,26.65718590004245
109.0,33.86401447212691,44.04448852053983,0.677294672691535,26.44615007397251
110.0,32.4463862839908,43.99633667577161,0.6787020129279037,26.23873631431944
111.0,31.148329243904904,43.85573792746344,0.6800910895052139,26.034951352300148
112.0,29.97141071600945,43.625350135247686,0.6814615991276953,25.834799494398993
113.0,28.91603366490427,43.309378384520485,0.6828132537735382,25.6382827984925
114.0,27.981628388469673,42.9133617271991,0.6841457793187351,25.445401336396777
115.0,27.167060279623797,42.44402439775698,0.6854589169327211,25.25615306460838
116.0,26.471019083326475,41.90890627887541,0.6867524215313795,25.070534111460475
117.0,25.892438752362796,41.31607042331827,0.6880260615274223,24.888538870510317
118.0,25.43090302749886,40.6738101139959,0.6892796184540868,24.71016010975719
119.0,25.087061561391835,39.990364964970524,0.6905128867429949,24.535389062309637
120.0,24.862983850857496,39.27368411044105,0.6917256732896697,24.364215536653393
121.0,24.762408953069794,38.53125224428398,0.6929177969109735,24.196628037226166
122.0,24.79092291793189,37.76997442606011,0.6940890878731851,24.03261387028033
123.0,24.956132953182834,36.99609353913205,0.695239387833246,23.872159202568476
124.0,25.26767060130111,36.21517856050583,0.6963685491932456,23.715249183126847
125.0,25.737160335464598,35.432143687088534,0.6974764348331501,23.561868017180515
126.0,26.37810205931735,34.65130050404445,0.6985629176871951,23.41199905679575
127.0,27.205678515687875,33.876433233573096,0.6996278803930926,23.265624879107982
128.0,28.236484985310778,33.1108902319218,0.7006712149326253,23.12272736313831
129.0,29.488175703779348,32.35768767567271,0.7016928222796149,22.983287763118557
130.0,30.979029926332366,31.61961138742535,0.7026926120556122,22.84728677839982
131.0,32.727460249760725,30.899289624590217,0.7036705021910922,22.7147046202597
132.0,34.751451445798246,30.199243135052427,0.7046227973093286,22.58585986713271
133.0,37.06832771609725,29.521614323690446,0.7055111224495865,22.464295480962587
134.0,39.693251203828275,28.869001911467848,0.7063290346677048,22.35054321637961
135.0,42.63845365352817,28.244305779653992,0.7070781601139192,22.24438339503499
136.0,45.912224466543584,27.650744864136687,0.7077601317758404,22.145601290395163
137.0,49.51770426400203,27.09196090430647,0.7083765883376711,22.053986952850877
138.0,53.45176370840012,26.572121251726358,0.7089291728438538,21.96933507414313
139.0,57.70328685726831,26.09601750880347,0.7094195316715761,21.891444921918584
140.0,62.251947571430755,25.669109028607775,0.709849313313914,21.820120024089373
141.0,67.06670463514983,25.29762212563351,0.7102201673234206,21.755168203129735
142.0,72.10460727524193,24.988575488306594,0.7105337432978958,21.696401353103006
143.0,77.30972024208575,24.74981276003075,0.7107916899143351,21.643635348417888
144.0,82.61261270301088,24.590001429632846,0.7109956540042803,21.596689906421116
145.0,87.930404159451,24.5185984119415,0.711147279717228,21.55538844103697
146.0,93.16743665732858,24.54579330977976,0.7112482077010934,21.519557954060172
147.0,98.21714121226495,24.682424734552196,0.7113000743079984,21.48902892033126
148.0,102.96481656422606,24.939850637215898,0.7113045109091863,21.463635144874644
149.0,107.29160262991006,25.32979528459457,0.7112631431606917,21.44321367470323
150.0,111.07958689188538,25.864150814256934,0.7111775904099266,21.42760465715374
151.0,114.21773874516968,26.554736632126865,0.7110494650473801,21.416651249620802
152.0,116.60849178537163,27.413020930115373,0.7108803719824804,21.410199495957183
153.0,118.17400065994667,28.44979975283396,0.7106720347308996,21.408086860147648
154.0,118.85652919529733,29.679340462273487,0.7104491725181403,21.40810321073059
155.0,118.62248043229472,31.116392280856413,0.7102358815376605,21.4081032106383
156.0,117.4725322378076,32.77031677163014,0.7100320530339373,21.4081032106383
157.0,115.4381406764291,34.64819677225174,0.7098377582439169,21.4081032106383
158.0,112.57763463817821,36.754131542447674,0.7096530651479516,21.4081032106383
159.0,108.97034942209804,39.08843452311671,0.7094780384023319,21.4081032106383
160.0,104.70896090939831,41.646794077713075,0.7093127393166632,21.4081032106383
161.0,99.89199895142677,44.419394243769,0.7091572258348195,21.4081032106383
162.0,94.617708140429,47.390058573918544,0.7090115525115537,21.4081032106383
163.0,88.98006145645883,50.535377718818985,0.7088757704636236,21.4081032106383
164.0,83.06727314681018,53.82409434363492,0.7087499273728136,21.4081032106383
165.0,76.96229567478889,57.21663975629271,0.7086340674518046,21.4081032106383
166.0,70.74455667039913,60.6650334688618,0.7085282314149538,21.4081032106383
167.0,64.49204927262964,64.11332863996442,0.7084324564838843,21.4081032106383
168.0,58.28294704046232,67.49853127334598,0.7083467763402159,21.4081032106383
169.0,52.19624081271223,70.75231284569,0.7082712211358394,21.4081032106383
170.0,46.31113132590644,73.80340712199072,0.7082058174617625,21.4081032106383
171.0,40.70517110777058,76.5807579888398,0.7081505883486682,21.4081032106383
172.0,35.451274296378976,79.017335243621,0.7081055532396592,21.4081032106383
173.0,30.6140178753854,81.05430461448323,0.7080707280014064,21.4081032106383
174.0,26.245554528407887,82.64531567475612,0.7080461248982634,21.4081032106383
175.0,22.381998039849105,83.76014059475577,0.7080317525983447,21.4081032106383
176.0,19.042243088154404,84.38576015293556,0.7080276161686878,21.4081032106383
177.0,16.225705534876912,84.52847186999061,0.7080337170603705,21.4081032106383
178.0,13.911063484080023,84.21495219830189,0.708050053127622,21.4081032106383
179.0,12.05841135788581,83.48989595113017,0.7080766186135619,21.4081032106383
180.0,10.613587634003062,82.41152628859497,0.708113404160361,21.4081032106383
181.0,9.513827946742419,81.04583944756101,0.7081603968098849,21.4081032106383
182.0,8.693873751411065,79.46046938241668,0.7082175800124785,21.4081032106383
183.0,8.091499610331205,77.7192038028158,0.7082849336312999,21.4081032106383
184.0,7.651652304875593,75.87794681834062,0.7083624339556596,21.4081032106383
185.0,7.328822363511459,73.98248346027856,0.7084500537081098,21.4081032106383
186.0,7.087664429738402,72.06800986144377,0.7085477620611831,21.4081032106383
187.0,6.902299852123834,70.15997485395118,0.708655524648017,21.4081032106383
188.0,6.754808684752567,68.27571524935261,0.7087733035813512,21.4081032106383
189.0,6.633459274176387,66.42633034664638,0.7089010574684262,21.4081032106383
190.0,6.531025123462169,64.61844610347137,0.7090387414338547,21.4081032106383
191.0,6.443409229492362,62.85565352706371,0.709186307133682,21.4081032106383
192.0,6.368605791058794,61.13959202189428,0.7093437027923724,21.4081032106383
193.0,6.3059891785366045,59.470691162022874,0.7095108732560284,21.4081032106383
194.0,6.255899526474218,57.84864730133969,0.7096877598220639,21.4081032106383
195.0,6.2192828210371705,56.27275875559936,0.7098743005895672,21.4081032106383
196.0,6.19758490080407,54.7420842673154,0.7100704302568768,21.4081032106383
197.0,6.192645800719055,53.25556508043875,0.7102760802300992,21.4081032106383
198.0,6.2066522635169825,51.812087365468756,0.7104911595509268,21.408104879297998
199.0,6.242120041553314,50.410523550054755,0.7107146019787964,21.408194892347243
200.0,6.30189198128133,49.04975134862635,0.7109150209471904,21.411112011013913
201.0,6.389134961597058,47.728674741724575,0.7110754769187071,21.4183338468156
202.0,6.5073434248193704,46.44623382943466,0.7111948288601994,21.429958015782866
203.0,6.660351433579113,45.20141188255545,0.7112720698183377,21.44607188900249
204.0,6.852338350316558,43.99324148296854,0.7113062401869504,21.466760237640234
205.0,7.087834523755862,42.820809750025056,0.71129642864981,21.49210520478419
206.0,7.371724583458452,41.68326253214338,0.7112417730663784,21.522186278095596
207.0,7.709249972059824,40.57980813569798,0.7111414612552674,21.557080264635754
208.0,8.106004584975945,39.50972007506385,0.7109947315800782,21.59686127436428
209.0,8.567925506436092,38.47233968776003,0.7108008734913255,21.641600703127473
210.0,9.101276932225225,37.46707873309265,0.7105592279739213,21.691367217916564
211.0,9.712625488692916,36.49342203519311,0.7102691878938305,21.746226744789475
212.0,10.408804063626624,35.55093009127459,0.709930198267405,21.806242458498588
213.0,11.196867482311838,34.639241969788245,0.7095417564685198,21.871474771865095
214.0,12.08403208255506,33.75807761677354,0.7091034122091582,21.941981334960587
215.0,13.077599889709973,32.907239849702286,0.708614767473411,22.01781703421953
216.0,14.184866728687968,32.086616025396715,0.7080754763710627,22.099033993050003
217.0,15.41301222407468,31.296179102725276,0.7074852448972565,22.18568157485798
218.0,16.768968307563217,30.535988108504327,0.7068438306099147,22.27780638820526
219.0,18.259269589758443,29.806188193785413,0.7061510422577596,22.37545229163402
220.0,19.88988331425286,29.107009944703872,0.7054067392729004,22.478660403331713
221.0,21.666032110500275,28.43876092153522,0.7046100830152134,22.5875364970193
222.0,23.591891548420335,27.80190308810267,0.703767871829853,22.701499789458786
223.0,25.67009332869737,27.197243551989246,0.7029071330402361,22.818137359742583
224.0,27.901785420773894,26.625550973751963,0.7020316466467823,22.937118983957152
225.0,30.286446599188412,26.087687061147495,0.7011415935827097,23.058438215638244
226.0,32.82122210182539,25.584623440764243,0.7002371600341002,23.18208807671992
227.0,35.50100709399402,25.117445060028146,0.6993185349139899,23.308061270699394
228.0,38.31788673279309,24.687351374599864,0.6983859100257234,23.43635014757349
229.0,41.26107180978839,24.295656281904026,0.6974394800215229,23.566946690732674
230.0,44.31658036796672,23.94377808110725,0.6964794423519578,23.699842507629143
231.0,47.46717525653325,23.63324053177822,0.6955059973147201,23.83502880589438
232.0,50.692274370386535,23.365665361785858,0.6945193480359346,23.972496378629533
233.0,53.96797082823733,23.142764870053256,0.6935197004658424,24.112235587484232
234.0,57.26717808380177,22.96633344006624,0.6925072633756533,24.25423634510184
235.0,60.55984314633783,22.83823469991754,0.6914822483309518,24.398488101538337
236.0,63.81334655176817,22.760389966806642,0.6904448696968942,24.544979824766926
237.0,66.9930116386626,22.73476235352586,0.6893953446175379,24.69369998531535
238.0,70.06275173707027,22.763338829588598,0.6883338929979204,24.844636540184805
239.0,72.98582670239446,22.848109331265984,0.6872607374827366,24.99777691722549
240.0,75.72570505640243,22.991043186985543,0.6861761034340268,25.153107999429125
241.0,78.24700028898606,23.194062583515915,0.685080218906557,25.31061610941098
242.0,80.5164449571379,23.4590130223901,0.6839733146209248,25.470286994092525
243.0,82.50385621148337,23.787630733241315,0.6828556239345877,25.63210580959389
244.0,84.1830395434327,24.18150660956402,0.6817273828145475,25.796057105612835
245.0,85.53262890452483,24.642048961760334,0.6805888297998259,25.962124811108946
246.0,86.53668144095103,25.170442653608873,0.679440205963308,26.130292221193574
247.0,87.18511496053257,25.767608293465937,0.6782817548658837,26.300541985184374
248.0,87.47405748631067,26.434155652186785,0.677113722558973,26.472856079370807
249.0,87.40560400670154,27.17031503485148,0.6759363575330972,26.647215799143982
250.0,86.98753025793724,27.975897590102356,0.6747499105356781,26.82360177967361
251.0,86.23296041453973,28.850210885448732,0.6735546347592353,27.00199392418005
252.0,85.15951891247528,29.79203444863179,0.6723507856645979,27.182371422227657
