Time,J,A,S,tau
0.0,100.0,100.0,0.9470007556509475,10.309278350515463
1.0,100.33727431757937,92.86780301074647,0.9481501720366516,10.803545284088575
2.0,100.98327091831389,86.25119539524796,0.9492679178817045,11.316717569003353
3.0,102.03917296591305,80.11504348578394,0.9503501505975337,11.848488430369626
4.0,103.60257657010044,74.42376481671073,0.9513938827777719,12.398860699505413
5.0,105.75396036310336,69.1444241265614,0.9523964499059848,12.967799450922078
6.0,108.54525350886024,64.24660297767012,0.953355533284049,13.555226871612875
7.0,111.99264695032123,59.70218649494369,0.9542691761526014,14.16101824715963
8.0,116.07445741228763,55.48516262845169,0.9551357968092706,14.784998681008378
9.0,120.73388521570705,51.571465446694724,0.9559541973608463,15.426940731592127
10.0,125.88567861249376,47.93884867438825,0.9567235665200239,16.086563211286535
11.0,131.42506769552028,44.5667130227099,0.9574434752026139,16.763531348017477
12.0,137.23724198451248,41.43600944510313,0.958113865499489,17.457458220377944
13.0,143.20608862530779,38.52910019336293,0.9587350356295905,18.16790708777667
14.0,149.22145232706958,35.82967718272164,0.9593076180916581,18.89439497808511
15.0,155.18432291215493,33.32264034469445,0.9598325507032134,19.63639752412741
16.0,161.0101563874072,30.993999633109887,0.9603110467421243,20.393354147268333
17.0,166.63036016993644,28.830816690446696,0.9607445606655195,21.1646740188184
18.0,171.99235606540228,26.821109754182622,0.9611347512334639,21.949742476818866
19.0,177.0586145085714,24.953782812168434,0.9614834442620561,22.747927521527973
20.0,181.80509629062297,23.218556083246458,0.9617925960611018,23.55858622251948
21.0,186.21930798413274,21.605906805105572,0.9620642577120648,24.381070937327
22.0,190.29826603053598,20.1070112146164,0.9623005414398033,25.21473514257819
23.0,194.0465088027104,18.713695544491546,0.9625035895733798,26.05893877849137
24.0,197.47428051846364,17.4183855879585,0.9626755466529828,26.913052987439603
25.0,200.59594547836403,16.214061400126024,0.9628185350136081,27.77646420790738
26.0,203.42864825940893,15.09421591874579,0.9629346339107838,28.64857760657548
27.0,205.99121747507095,14.052816733754959,0.9630258621733268,29.528819852173783
28.0,208.30329546525098,13.084270761764344,0.9630941642572265,30.416641256654778
29.0,210.38466817565018,12.183391595415497,0.963141399487894,31.311517325461136
30.0,212.2543583983983,11.34309633239408,0.9631693341699017,32.212949782567264
31.0,212.23366176196848,4.344344187626683,0.9631796361306966,33.120467160165255
32.0,212.1350570330805,1.5981714849383812,0.9631738724681627,34.03362473095881
33.0,212.03913280838222,0.5879267505812024,0.9631535078313861,34.95200446008905
34.0,211.94574645433676,0.21628418396957133,0.9631199052323537,35.87521442552669
35.0,211.85476203122334,0.07956657042318001,0.9630743279493524,36.8028880656268
36.0,211.76604990011748,0.02927168367934109,0.9630179424696952,37.734683246640444
37.0,211.6794863504307,0.010769450636825974,0.9629518222262909,38.67028119647249
38.0,211.5949532468071,0.003962903061293513,0.9628769519137605,39.609385344952265
39.0,211.51233769423516,0.0014588949713912152,0.9627942322006483,40.55172010494118
40.0,211.431531720288,0.0005376823888431079,0.9627044846837046,41.49702962295335
41.0,211.3524319734612,0.0001987428609246254,0.9626084569574253,42.44507652275
42.0,211.2749394366251,7.40102413314144e-05,0.9625068276966062,43.395640660669066
43.0,211.1989591546592,2.8082404140209128e-05,0.9624002116713936,44.34851790730448
44.0,211.12439997537766,1.1148165727593945e-05,0.9622891646331818,45.303518966552566
45.0,211.05117430290247,0.0,0.9621741880257518,46.260468239994154
46.0,210.97919786267275,0.0,0.9620557334896863,47.21920274198543
47.0,210.90838947733982,0.0,0.9619342071389292,48.17957106880098
48.0,210.83867085272993,0.0,0.9618099735989655,49.141432423070455
49.0,210.76996637341662,0.0,0.961683359798786,50.104655694561906
50.0,210.70220290635766,0.0,0.9615546585298939,51.069118593318464
51.0,210.63530961417607,0.0,0.9614241317481602,52.03470684120056
52.0,210.56921776562805,0.0,0.9612920137795123,53.001313379546175
53.0,210.5038605972498,0.0,0.9611585137544338,53.96883777153737
54.0,210.4391730977743,0.0,0.9610238188892215,54.93718537219688
55.0,210.37509187453077,0.0,0.9608880966201406,55.90626679284791
56.0,210.3115549965346,0.0,0.9607514969324696,56.87599730723529
57.0,210.24850184201378,0.0,0.9606141545347708,57.84629629130132
58.0,210.18587294853813,0.0,0.9604761909089896,58.81708668924855
59.0,210.12360987091844,0.0,0.9603377161891982,59.78829451944265
60.0,210.0616550424371,0.0,0.9601988309333105,60.759848403752784
61.0,209.99995163898058,0.0,0.9600596278029863,61.731679116972856
62.0,209.938443445656,0.0,0.9599201931665274,62.703719153050706
63.0,209.87707472564543,0.0,0.959780608638771,63.67590230503624
64.0,209.81579008931826,0.0,0.959640952588278,64.64816325118012
65.0,209.75453436408262,0.0,0.9595013016143695,65.62043714732003
66.0,209.69325246674057,0.0,0.959361731988966,66.59265922770317
67.0,209.63188927640329,0.0,0.9592223210933625,67.56476440674064
68.0,209.57038950745516,0.0,0.9590831488652451,68.53668687822345
69.0,209.50869758218587,0.0,0.9589442992698961,69.508359708899
70.0,209.4467575014204,0.0,0.9588058618259834,70.47971441878605
71.0,209.38451271273405,0.0,0.9586679332017776,71.4506805447441
72.0,209.32190598061914,0.0,0.9585306188366672,72.4211852005668
73.0,209.2588792536152,0.0,0.9583940346613761,73.39115261403474
74.0,209.19537352927009,0.0,0.9582583089153152,74.3605036421731
75.0,209.13132871639294,0.0,0.9581235840777022,75.32915526093505
76.0,209.06668349419857,0.0,0.9579900189277063,76.29702002590987
77.0,209.00137516599764,0.0,0.9578577907764656,77.26400549333759
78.0,208.93533950502967,0.0,0.9577270979193448,78.23001358952766
79.0,208.86851060550023,0.0,0.9575981621349597,79.19493997554
80.0,208.80082072499414,0.0,0.9574712314262525,80.15867335526038
81.0,208.73220012132379,0.0,0.9573465829704381,81.12109473632457
82.0,208.66257688366045,0.0,0.957224526286145,82.08207664214791
83.0,208.59187675703333,0.0,0.9571054066353076,83.04148227073492
84.0,208.51946057526587,0.0005581989472338526,0.9569876867473144,83.99837679302884
85.0,208.41560157593582,0.019814684025277314,0.9567745110340382,84.91235709466348
86.0,208.30727512127498,0.028920981236573773,0.9565608081760407,85.82205708988458
87.0,208.1939291527585,0.03459305805250873,0.9563466753067357,86.72707411037108
88.0,208.07492535188752,0.03935496686372798,0.9561322314221349,87.62696930321827
89.0,207.94952185499028,0.04419958679281504,0.9559176192765593,88.52126390399155
90.0,207.81685200936744,0.04957016156762979,0.9557030073261109,89.40943514950094
91.0,207.6758982275081,0.05572475085124052,0.9554885916870866,90.29091180826428
92.0,207.5254596896752,0.0628736442591237,0.9552745980795726,91.1650692855813
93.0,207.36411236732673,0.07123507371565906,0.9550612837154852,92.03122426302784
94.0,207.19015937739638,0.08106215893900871,0.9548489390846092,92.88862882182491
95.0,207.0015692149208,0.09266059368200706,0.9546378895807954,93.73646399806918
96.0,206.79589873104737,0.10640516514396195,0.9544284969073003,94.57383270060458
97.0,206.57019706565737,0.12275773362780087,0.9542211601904937,95.39975191722317
98.0,206.3208857445801,0.14228946067895948,0.9540163167341565,96.21314410546013
99.0,206.06845033913896,0.25783610979633825,0.9538144423517585,97.0128276257521
100.0,205.82646783703274,0.44060754341824426,0.9536160511898493,97.79750612795121
101.0,205.58791857657292,0.6463882154421277,0.9534216950665919,98.56575649486749
102.0,205.35435885373627,0.8811637977948164,0.9532319622346749,99.31601528084418
103.0,205.12805522897855,1.152278230519041,0.9530474756657716,100.04656308118307
104.0,204.91221267723142,1.4687602386794174,0.9528688909342135,100.75550640765344
105.0,204.71125644220882,1.841717171840205,0.952696893914313,101.44075632543588
106.0,204.53116224544482,2.284802661373197,0.9525321986236239,102.10000289615749
107.0,204.37981058942918,2.814759424423909,0.9523755457200748,102.73068413342686
108.0,204.2673025982949,3.4520317865640484,0.952227702393912,103.32994767969346
109.0,204.2061118378287,4.22142648589497,0.9520894646956012,103.89460276394328
110.0,204.21084082243897,5.152780669882132,0.9519616637384686,104.42105904947607
111.0,204.29719890791404,6.281562559445192,0.9518451777386264,104.90524766004651
112.0,204.47961981322243,7.649286962536859,0.9517409525675287,105.34251764950669
113.0,204.76673019666623,9.303572706603518,0.9516500344594564,105.72749853495301
114.0,205.1537863650476,11.297599364987656,0.9515736199290197,106.05391491323134
115.0,205.61142466006115,13.688655127296,0.951513129955337,106.31433278198477
116.0,206.07094553952632,16.535400037692096,0.9514703188875804,106.49980567925574
117.0,206.40837750692836,19.893447094372153,0.9514474324649153,106.59937541817276
118.0,206.432311452477,23.80887391624138,0.9514474397273769,106.59934381118894
119.0,205.88404452195056,28.309417218445255,0.9514743738561741,106.4821950946991
120.0,204.45935447661432,33.39335246562754,0.9515338436181344,106.22494481798611
121.0,201.85790750177068,39.016201154363856,0.9516338267482151,105.79650321184216
122.0,197.85577175310584,45.07634170663452,0.9517859146928006,105.15337566079491
123.0,192.38439975718293,51.400175889026954,0.9520074033611166,104.23210066693757
124.0,185.5914268719399,57.72847515610249,0.9523249319808446,102.93534552286759
125.0,177.8655790093635,63.704721286950075,0.9527812974464598,101.10411523076267
126.0,169.82569603606873,68.8657091396529,0.9534491398481353,98.45725507790578
127.0,166.27778822429443,68.76752282200725,0.9544609266856875,94.44435065830434
128.0,167.80162339625988,63.86365273512911,0.9560759723686352,87.86199236333343
129.0,169.412602366236,59.30268544917024,0.9587642252156416,76.13638838747883
130.0,171.11534319211938,55.061084659972245,0.9625461681575652,58.57704156242898
131.0,172.91463005734602,51.11690307950104,0.9656924859058571,44.50370916166726
132.0,174.81538199891762,47.44967801740937,0.9676034198008006,36.35076458595107
133.0,176.5135618960256,44.33684904871596,0.9687286838511897,31.319730190105325
134.0,176.962239649018,42.66240813502242,0.9693791885186981,27.884652577881877
135.0,175.43865448884145,42.85706162931656,0.9697167031968891,25.3610018561525
136.0,171.0462846564355,45.44327182636286,0.9698302736430968,23.409732895252027
137.0,163.20048370858078,50.642442932180906,0.9697729461838317,21.84419816198535
138.0,152.3335965872012,57.841210289254526,0.9695784952720173,20.55257226564135
139.0,140.18177476666597,65.37861909989999,0.9692695843203752,19.463302372391873
140.0,129.0591839593075,71.18186014183642,0.9688620566090551,18.528200938911443
141.0,120.5640958967124,73.94995177074719,0.9683673539462437,17.713458832223882
142.0,114.91582480678754,73.74257462113384,0.9677939550895596,16.99456292457133
143.0,111.37860206627471,71.50278232217329,0.9671482731849439,16.353253246389404
144.0,108.42786020289849,68.85670161245488,0.966435238354751,15.77562017901138
145.0,105.33002434794442,66.5306240018655,0.9656586873540208,15.250880479832647
146.0,102.07283975942357,64.5132400291033,0.964821639693231,14.770534267026381
147.0,98.64537716195983,62.79274897286951,0.9639264826342406,14.327799317985333
148.0,95.16209703688303,61.23597471845653,0.9629751174909011,13.917202181139173
149.0,92.03690778646379,59.43212255011764,0.9619690565591461,13.534281244252947
150.0,89.7606390716751,56.929316635511015,0.9609095066139046,13.175373721100287
151.0,88.46137934759595,53.66222832605401,0.9597974276811602,12.837450604827351
152.0,87.76843160322632,50.05042684710151,0.9586335804539704,12.517991282021026
153.0,87.30907743496793,46.48300913096225,0.9574185639791368,12.214887082509428
154.0,86.92871812763374,43.111912605602136,0.9561528462079812,11.926365183027567
155.0,86.58494594353539,39.97192226433295,0.9548367885627473,11.650928526881643
156.0,86.27510677983477,37.05893208087613,0.9534706693477485,11.387309078989249
157.0,86.0120728449192,34.35623336513028,0.9520546993052058,11.134426596527
158.0,85.81212317216345,31.847302289194122,0.9505890372588593,10.891358257368763
159.0,85.69332981585629,29.517473972293857,0.949073803800958,10.657312612812062
160.0,85.6726130976265,27.356556962097464,0.9475090931156092,10.431608270133202
161.0,85.76318895639744,25.36024665676018,0.9458949826782223,10.213655848807083
162.0,85.97502412750377,23.52817435426537,0.9442315449863828,10.002944623696445
163.0,86.31600318087523,21.860534760247937,0.9425188543502278,9.799029187505583
164.0,86.79005035884747,20.35786322058234,0.9407569936373108,9.601518451186434
165.0,87.39389192044061,19.02290968731307,0.9389460718743001,9.41007036723666
166.0,88.1116179377723,17.860740955248577,0.9370862119031406,9.224380375991068
167.0,88.91245767038417,16.879808075724767,0.9351775719077791,9.0441785071236
168.0,89.74766277248268,16.091711050745833,0.9332203458011489,8.869223191013875
169.0,90.54960362544722,15.510746295085482,0.9312147708548905,8.699297327990358
170.0,91.23359550850783,15.152163184857187,0.9291611319655146,8.534204506388868
171.0,91.70329870337105,15.029262398843946,0.9270597662320348,8.373766006515078
172.0,91.85969448768495,15.15004029624333,0.9249110682313999,8.217818334765855
173.0,91.61289796348397,15.513600166379032,0.9227154941723741,8.066211005205426
174.0,90.89582308615297,16.106284814573915,0.9204735658256074,7.9188047299774365
175.0,89.67755447895024,16.89809688914649,0.918185873634102,7.775469891556398
176.0,87.97321486075712,17.840469257484266,0.9158530808483617,7.636085268514409
177.0,85.846692177155,18.86627161188065,0.9134759266595144,7.500536957685138
178.0,83.40445649060034,19.893346531531936,0.9110552287934244,7.3687174435603895
179.0,80.78139397870196,20.83221561109654,0.9085918861987722,7.240524835181971
180.0,78.12166315851806,21.597470499411525,0.9060868813543937,7.115862215919024
181.0,75.55869561604783,22.121026341310696,0.9035412820600669,6.994637089232801
182.0,73.19823932274339,22.3641351868233,0.9009562431218746,6.876760918579148
183.0,71.10817543451313,22.324062855556228,0.8983330083141814,6.762148754763578
184.0,69.31826268461745,22.031944617448097,0.8956729104804031,6.65071887735989
185.0,67.82772399467748,21.543083509754243,0.8929773727554083,6.54239253325387
186.0,66.61648824050481,20.923789847484116,0.8902479087944469,6.437093695634156
187.0,65.6542261313672,20.24035501566246,0.8874861230012239,6.334748867873995
188.0,64.90444051278855,19.552861031899557,0.8846937102094771,6.235286912165649
189.0,64.32416783213621,18.91332457610562,0.8818724551037582,6.13863890489432
190.0,63.861826669023785,18.366054511662004,0.879024231312136,6.044738013022608
191.0,63.45591398317108,17.948202514474062,0.8761510001316584,5.953519387345802
192.0,63.03648032765471,17.689355358451486,0.8732548090057635,5.864920071684722
193.0,62.53009851488787,17.609941531321283,0.8703377897815808,5.7788789261166995
194.0,61.86777976853139,17.71888256530317,0.867402156166434,5.695336552038183
195.0,60.99452861368773,18.01122039335511,0.8644502015914152,5.614235237090885
196.0,59.878308898961656,18.466594496610412,0.8614842964120806,5.5355189025471265
197.0,58.51586611479977,19.049694518324845,0.8585068842231031,5.459133045730367
198.0,56.933961979867895,19.713177599639277,0.8555204790776911,5.38502470717575
199.0,55.18474401328974,20.403215744955933,0.8525276614593451,5.313142425938614
200.0,53.33656350976538,21.06671554093358,0.849531074563094,5.243436206872697
201.0,51.4623972056113,21.65876535526137,0.8465334200088533,5.175857486164985
202.0,49.628721874563155,22.148637950631496,0.843537453457507,5.110359101290995
203.0,47.88721950949009,22.52295625143981,0.8405459799435101,5.046895261480727
204.0,46.27053498662282,22.785455731832567,0.8375618491926377,4.985421522244373
205.0,44.792049387523655,22.953772319629113,0.8345879506716052,4.925894759142777
206.0,43.448548785520344,23.054557618535057,0.8316272079901722,4.868273141500697
207.0,42.22431634478623,23.118257459233945,0.8286825737628992,4.812516104925863
208.0,41.09555820610951,23.174609756143568,0.8257570244333161,4.758584338444513
209.0,40.03475345171634,23.249286385287633,0.8228535543808336,4.706439750282277
210.0,39.01449829728646,23.36166583592847,0.8199751704566627,4.6560454565383225
211.0,38.01073593994261,23.523796735195255,0.8171248863804637,4.60736575235037
212.0,37.00512810127678,23.74023872115785,0.8143057166216952,4.560366093482742
213.0,35.986505069989875,24.008785959297693,0.8115206711230573,4.515013080335427
214.0,34.951084693804916,24.321875715860582,0.8087727493293533,4.4712744361855705
215.0,33.901629701545765,24.66843058344104,0.8060649345963241,4.429118981134935
216.0,32.84584569079286,25.035824434858423,0.8034001878700203,4.388516620308125
217.0,31.79437189378492,25.411750557988743,0.8007814426409042,4.349438322676401
218.0,30.758717519898866,25.785668010263873,0.7982115991759219,4.31185610301676
219.0,29.74953793164366,26.149703175385447,0.7956935189848328,4.275743003402002
220.0,28.77542852204117,26.49897412651152,0.7932300194911869,4.2410730786777435
221.0,27.842351775229726,26.831401041448814,0.7908238686626232,4.207821374362437
222.0,26.95355534698329,27.147168629122294,0.7884777804424825,4.1759639084682805
223.0,26.109844092578715,27.44802315744086,0.786194408342988,4.145477675948154
224.0,25.310280985770362,27.736492145849397,0.7839763405847509,4.116340618562109
225.0,24.55271329174815,28.01529274564484,0.7818261008682431,4.088531559223225
226.0,23.834401661991716,28.286805821004123,0.7797461326702771,4.062030307345284
227.0,23.1525134679913,28.552855518347123,0.7777388059246595,4.036817524268073
228.0,22.50438669390692,28.814553716435153,0.7758064097964941,4.012874743454427
229.0,21.887780271221263,29.0722867831702,0.7739511412643906,3.9901844282817485
230.0,21.30085001408393,29.32591516192283,0.7721751144106247,3.968729844270486
231.0,20.74216921400046,29.574830508833248,0.7704803477799815,3.9484951099587797
232.0,20.210624964471144,29.81817238496739,0.7688687595506597,3.9294652163109083
233.0,19.70532233690556,30.05497764620781,0.767342177724419,3.911625912779569
234.0,19.225436726142963,30.28422647681503,0.7659023149833802,3.894963811125379
235.0,18.77022656941784,30.50502486290507,0.7645507889877955,3.8794662967406297
236.0,18.33885345818999,30.716530198688897,0.7632891069521204,3.8651215099598226
237.0,17.930469249806233,30.918080012632352,0.762118660246238,3.8519184493046685
238.0,17.544123609153182,31.10909045735956,0.7610407425225437,3.839846756808954
239.0,17.17877392559447,31.28910111359493,0.7600565128821356,3.828896966100137
240.0,16.833386929114667,31.45774696413506,0.7591670385333705,3.8190602313441944
241.0,16.506774121082376,31.61468363713772,0.7583732471306979,3.810328535000072
242.0,16.19786756370194,31.759672433517146,0.757675965721706,3.802694544046878
243.0,15.905443432883665,31.8924333927243,0.7570758925333851,3.7961516345141826
244.0,15.628430414203503,32.012772377533224,0.7565736057768196,3.790693956784662
245.0,15.365676138385878,32.1204582896713,0.7561695727411084,3.7863162633655336
246.0,15.116108803642007,32.21529304685958,0.7558641212773134,3.7830141292568253
247.0,14.878725149037015,32.29709847981295,0.7556574814773824,3.7807836978967426
248.0,14.652461210411053,32.365662627777006,0.7555497367050491,3.779621896714619
249.0,14.43646039056597,32.42085079855045,0.755540870692046,3.779526272690928
250.0,14.2297233574355,32.462463621557724,0.7556307311214572,3.780495055713898
251.0,14.031494577745441,32.49039443588182,0.7558190506704319,3.782527183238142
252.0,13.840904412720171,32.504488053189895,0.7561054462732223,3.785622172359371
253.0,13.657238885532339,32.50464995727584,0.7564894020360239,3.7897803096881626
254.0,13.47982053941208,32.4907978339491,0.7569703044885135,3.795002415602059
255.0,13.30794238917018,32.46284378307214,0.7575473990427342,3.8012900666593943
256.0,13.141106072844535,32.42077807669124,0.7582198380904867,3.8086454089592907
