Time,J,A,S,tau
0.0,100.0,100.0,0.9148484567336919,16.84853086977865
1.0,99.98707801766624,92.86777921968307,0.9159588482411235,17.342797826142906
2.0,100.09899493873878,86.25113322469575,0.9170386445429566,17.855970128441083
3.0,100.40091573896628,80.1149666704089,0.9180841337091067,18.38774097770029
4.0,100.97039871610116,74.42366180104301,0.9190924289312583,18.9381133048095
5.0,101.8894675415622,69.14431383776791,0.9200609573817041,19.507052030474163
6.0,103.23423631368418,64.24650828931556,0.9209874787458087,20.09447937994317
7.0,105.06443869897197,59.70210415794297,0.921870101665218,20.70027078367948
8.0,107.41480412904697,55.485069514955605,0.922707298646844,21.324251277948125
9.0,110.29035903361594,51.57136351485724,0.923497913036758,21.966193337968882
10.0,113.66585130504366,47.93873088370892,0.9242411608183216,22.625815815134104
11.0,117.4890266725413,44.566582133293466,0.924936627124285,23.30278398789482
12.0,121.68664161220177,41.43586649958826,0.925584256410727,23.996710877185098
13.0,126.17187849606157,38.52895255513375,0.9261843366787088,24.707159755510023
14.0,130.8519179522931,35.82952193554145,0.9267374784413236,25.433647721562245
15.0,135.6347081672953,33.32247521127385,0.927244588341105,26.17565031430591
16.0,140.43430771302337,30.99383406127156,0.9277068386710762,26.932606930147873
17.0,145.17461113254632,28.830656293443806,0.9281256342124754,27.703926783776463
18.0,149.79151586293705,26.820957544249342,0.9285025771993951,28.488995237504433
19.0,154.2337518730105,24.953638995598002,0.9288394314905688,29.28718028560574
20.0,158.46267992659463,23.21841859042175,0.9291380869947646,30.097838989441087
21.0,162.45136550290752,21.60577321841449,0.9294005252502353,30.920323698417366
22.0,166.183187324726,20.10688206398464,0.9296287867616869,31.753987900158965
23.0,169.65025143380026,18.71357175665697,0.9298249410678281,32.59819154362799
24.0,172.85177130258305,17.418267909038693,0.9299910598723354,33.45230577198672
25.0,175.79252736473228,16.21395034947793,0.9301291934657459,34.315717016154906
26.0,178.4814769850399,15.094111651622454,0.9302413505619299,35.187830426680016
27.0,180.93055363288138,14.052717670394228,0.9303294815149943,36.0680726558957
28.0,183.15365215954446,13.084175444863073,0.9303954647225668,36.95589403157006
29.0,185.1658100889484,12.183299222615672,0.9304410963037996,37.85077008186254
30.0,186.98220144697567,11.34506339238562,0.9304680822987351,38.75220261021593
31.0,186.97131089208096,9.601563157099456,0.9304780345002132,39.65971998514511
32.0,186.88444532941008,8.091393551385721,0.9304724665435783,40.57287755071557
33.0,186.79994107723675,6.819210571558005,0.9304527933404259,41.49125727478958
34.0,186.71767248996196,5.747426130656579,0.9304203316207379,42.41446723673009
35.0,186.63751981762377,4.844403211888727,0.9303763017798807,43.34214087289666
36.0,186.5593688608253,4.083513785870421,0.9303218307026139,44.2739360491022
37.0,186.48311064284945,3.4423403535707626,0.9302579553683487,45.20953399547629
38.0,186.40864109738268,2.9020085111002696,0.9301856270422824,46.14863814115429
39.0,186.33586077392417,2.4466270528042164,0.930105715820683,47.09097289719489
40.0,186.26467455891012,2.0628152974778637,0.9300190153987244,48.03628241190548
41.0,186.19499140890707,1.7393038012683575,0.9299262479871746,48.98432930946573
42.0,186.12672409805293,1.4666014554586904,0.9298280692247429,49.93489344463606
43.0,186.059788979006,1.236714882627593,0.9297250730077666,50.88777068834451
44.0,185.9941057545127,1.0429103323651565,0.9296177962145481,51.84277174563106
45.0,185.92959725954285,0.8795150221776324,0.9295067232668761,52.79972101732789
46.0,185.8661892547129,0.7417500694281651,0.9293922904742079,53.75845551703874
47.0,185.8038102293532,0.6255890705468534,0.9292748901577799,54.71882384221026
48.0,185.74239121228928,0.5276390584086237,0.929154874562781,55.68068519565081
49.0,185.68186559173157,0.44504093831015845,0.9290325595216938,56.643908466253585
50.0,185.62216894340082,0.37538546379713106,0.9289082278762517,57.60837136649035
51.0,185.56323886490006,0.31664193873441265,0.9287821326848421,58.57395961924346
52.0,185.50501481681601,0.26709876727365695,0.9286545002079227,59.54056619592921
53.0,185.44743797050535,0.22531336167073487,0.9285255326767956,60.50809060475367
54.0,185.3904510612728,0.19006963217292402,0.9283954108705113,61.47643822279515
55.0,185.33399824617447,0.1603423391209916,0.9282642965181356,62.44551966766891
56.0,185.27802496700002,0.13526717304065963,0.9281323345275881,63.41525020905463
57.0,185.2224778176511,0.11411546930582127,0.9279996550615974,64.38554921514272
58.0,185.16730441476327,0.09627278285822936,0.9278663754851222,65.35633962794053
59.0,185.11245327195405,0.08122100987794366,0.9277326021892233,66.32754746679306
60.0,185.0578736772816,0.06852329999523894,0.9275984323073331,67.29910135645541
61.0,185.003515573054,0.05781123331075976,0.927463955344642,68.27093207467361
62.0,184.94932943777158,0.04877409618680521,0.9273292547331198,69.24297211652193
63.0,184.895266170117,0.0411498558555818,0.9271944093235759,70.21515527306029
64.0,184.84127697435798,0.03471751670854104,0.9270594948324112,71.18741622008856
65.0,184.78731324672134,0.029290663255304755,0.9269245852577556,72.15969011359816
66.0,184.7333264626605,0.024712059930690405,0.9267897542760403,73.1319121895471
67.0,184.67926806446457,0.020849088439064238,0.9266550766354767,74.10401736402838
68.0,184.6250893488726,0.017589868833110676,0.9265206295598182,75.0759398307937
69.0,184.570741354488,0.014840020145958248,0.9263864941747012,76.04761265339422
70.0,184.51617474847234,0.012519928993096636,0.9262527569730649,77.01896734799654
71.0,184.4613397121319,0.010562430247572158,0.926119511334252,77.98993345349746
72.0,184.40618582539867,0.008910856264184478,0.925986859106379,78.96043808699972
73.0,184.3506619495365,0.007517399759500393,0.9258549122710265,79.93040548000127
74.0,184.29471610750616,0.006341729304148272,0.9257237947081538,80.89975649102908
75.0,184.23829536226046,0.005349813498584051,0.9255936440675111,81.86840809374236
76.0,184.1813456923122,0.004512939146951818,0.9254646137656869,82.83627283586074
77.0,184.12381186378207,0.003806882159584344,0.925336875130465,83.80325826361296
78.0,184.06563729898602,0.0032112023300984987,0.9252106197017791,84.76926630987155
79.0,184.00676394158162,0.0027086522560690746,0.9250860616977423,85.7341926442629
80.0,183.94713211704052,0.0022846798797383286,0.9249634406728848,86.69792597835101
81.0,183.8866803879713,0.001927007137852059,0.9248430243844175,87.66034732214582
82.0,183.82534540518554,0.0016252730607168942,0.9247251118577112,88.62132919473042
83.0,183.76306175301096,0.0013707353660074887,0.9246100366777619,89.58073478192479
84.0,183.69976178791947,0.0011560181967662274,0.9244981705238186,90.5384170364901
85.0,183.63537547126387,0.0009748974324366436,0.9243899269306044,91.49421772518807
86.0,183.56983019561363,0.0008221211641886125,0.9242857652748553,92.44796642249844
87.0,183.5030506029734,0.0006932583091259178,0.9241861950029169,93.39947944601009
88.0,183.4349583947743,0.0005845700923542369,0.924091780079939,94.34855873750195
89.0,183.36547213491087,0.0004929016587751607,0.9240031436031317,95.2949907030916
90.0,183.29450704328866,0.0004155911902195954,0.9239209725810544,96.23854500954415
91.0,183.22197477891572,0.0003503930255316346,0.923846022840318,97.17897334390966
92.0,183.14778321443876,0.00029541227906631704,0.9237791239474334,98.1160081619472
93.0,183.07183620040948,0.0002490502242535222,0.9237211840835375,99.04936143670523
94.0,182.99403331749318,0.00020995809397767636,0.9236731947915451,99.97872342234169
95.0,182.91426961571543,0.00017699810226628974,0.9236362354713827,100.90376145834122
96.0,182.83243534707853,0.00014921026487836326,0.9236114773357622,101.82411888061682
97.0,182.74841567662335,0.0001257847936084095,0.9236001869144214,102.73941400616488
98.0,182.66209039036357,0.00010603848191159157,0.9236037285375408,103.64923932868243
99.0,182.573345504126,9.53322233161034e-05,0.9236235658914584,104.55316088716391
100.0,182.48204344937196,8.882110867154611e-05,0.9236612620696125,105.45071794545662
101.0,182.38803925659596,8.2755314228315e-05,0.9237184785584691,106.3414228396122
102.0,182.29118793498094,7.710516880056931e-05,0.923796971406699,107.22476145461508
103.0,182.1913374062957,7.184297623175312e-05,0.9238985855960238,108.10019403341887
104.0,182.08832810682136,6.694290421046164e-05,0.9240252469258345,108.96715647743319
105.0,181.9819925800999,6.238086020961858e-05,0.9241789509413137,109.82506225116688
106.0,181.87215505016874,5.813437366687184e-05,0.9243617487998895,110.67330490054303
107.0,181.75863097594703,5.4182485817342075e-05,0.924575729885072,111.5112612226724
108.0,181.64122658624723,5.050564664745487e-05,0.9248230010847907,112.33829510044642
109.0,181.519738394925,4.7085618487236985e-05,0.9251056627651302,113.15376199088573
110.0,181.3939526957228,4.390538580580502e-05,0.9254257816056505,113.95701402726675
111.0,181.2636450364184,4.094907082042647e-05,0.9257853606144946,114.74740566270205
112.0,181.12857967198372,3.8201854544191176e-05,0.9261863068031234,115.52429974864695
113.0,180.98850899653155,3.56499029253242e-05,0.9266303971611408,116.28707390797557
114.0,180.84317295342254,3.3280298273393865e-05,0.9271192437088964,117.03512703299843
115.0,180.69229842436553,3.1080974892285444e-05,0.9276542585493003,117.76788571059473
116.0,180.53559859696594,2.904065926459242e-05,0.9282366198989835,118.48481036336936
117.0,180.3727723125001,2.7148814285442136e-05,0.9288672401473552,119.18540088499076
118.0,180.20350339286176,2.5395581161880484e-05,0.9295467368889394,119.86920156723409
119.0,180.02745993507622,2.377175354165666e-05,0.9302754076529883,120.5358051515353
120.0,179.84429360812865,2.2268710814505066e-05,0.9310532096151956,121.18485577728971
121.0,179.6536389132302,2.0878385914544016e-05,0.9318797441884545,121.81605080254708
122.0,179.4551124355741,1.9593227101543802e-05,0.9327542472648634,122.42914137251631
123.0,179.24831197263114,1.8406188965753347e-05,0.9336755831370837,123.02393200464952
124.0,178.96949640042513,0.08748901093796055,0.9337463753180109,123.21215001522008
125.0,178.68739913791737,0.25518197757379535,0.9337575403036276,123.31284192137494
126.0,178.4257051692971,0.5592044561729165,0.9337607844022583,123.34136286854542
127.0,178.22528644375467,1.096284647922138,0.9337548432403786,123.28888477374058
128.0,178.15035513495735,2.012897119295948,0.9337391062832991,123.14432947343695
129.0,178.25692213166386,3.5151529587900296,0.933713947962026,122.89349363174158
130.0,178.48004428130614,5.868400783285375,0.933681202636379,122.51772800004044
131.0,178.41827569659895,9.377235499989101,0.9336448719301388,121.99187204081288
132.0,177.14426132095807,14.337246802366932,0.9336122247216788,121.28088464717526
133.0,173.36837658678124,20.955144640052204,0.9335955945632546,120.33406477288196
134.0,166.11131718055103,29.24398098630347,0.9336154990001051,119.07448511290852
135.0,155.3809923607233,38.91235117834907,0.9337064465981091,117.3781431923331
136.0,142.20318151716722,49.274403535236495,0.9339287402634517,115.02855098311488
137.0,128.19877853421917,59.205211918206274,0.9343953406435767,111.60400201748826
138.0,118.11462161962856,64.3798568935661,0.9353419605006575,106.1465752960713
139.0,117.92529786199145,59.710592534558174,0.9373270295540802,96.02525254407554
140.0,117.7416164413229,55.37312303571644,0.9413055987161749,75.55454838806523
141.0,117.56664524633004,51.34434886679106,0.9452782545428203,54.91026565911198
142.0,117.4040838942407,47.60274814603679,0.9471416257194594,44.49837675084553
143.0,117.25824759333088,44.128367518856926,0.9477992398207037,38.72227777702032
144.0,117.13448452468438,40.90239688432163,0.9478096020596127,34.95352852359211
145.0,117.03889066927378,37.9074507333467,0.9474143950599371,32.23305252051888
146.0,116.97852274541779,35.12733532351121,0.946733044016006,30.138051448350904
147.0,116.96146170505041,32.54696556805503,0.9458321340692695,28.451271791022684
148.0,116.99684601565006,30.152291781142512,0.9447522216054189,27.048205755670143
149.0,117.09468773069696,27.93042759684948,0.943519658961601,25.851635521352225
150.0,117.08407368794478,26.04268871488103,0.9421524312619312,24.810721958361142
151.0,116.34593288689611,25.035271919571255,0.940663276859878,23.890437620814016
152.0,113.64955945191879,25.925073088461154,0.9390614907219772,23.065768387054288
153.0,107.74662018184813,29.61640786865016,0.9373540180761049,22.318329066463303
154.0,99.88118796311743,34.68206441845316,0.935546151080417,21.634286945116454
155.0,93.92431430690708,37.41854437803309,0.933641989538731,21.003032383974144
156.0,91.29787139524281,36.72450274377988,0.9316447564812524,20.41629683122005
157.0,90.33921128368186,34.47873661892179,0.9295570204211714,19.86754855243626
158.0,89.77056800225958,32.028018781957925,0.9273808562226116,19.35156803517064
159.0,89.19832993655399,29.770010081506893,0.9251179629675231,18.864140428178214
160.0,88.60055215047497,27.718683174850558,0.922769756668999,18.401837008460394
161.0,87.97426903802098,25.869734569253367,0.9203374405663499,17.96184160126413
162.0,87.31421421801622,24.2212920989459,0.9178220619990834,17.54182549802709
163.0,86.6114966148563,22.773982553406096,0.9152245547145025,17.1398559254101
164.0,85.85213218118518,21.530560517447324,0.9125457704342499,16.754304882307064
165.0,85.01559670750026,20.49597658586781,0.9097865153151824,16.383803066395593
166.0,84.07786321220384,19.67305461636446,0.906947575768333,16.02718669554424
167.0,83.08642469744825,18.99150271036475,0.904029733451183,15.683461527976768
168.0,82.31873639756905,18.17885378422769,0.9010337910442611,15.351772558044626
169.0,82.02319963265684,17.051258984635965,0.8979605866512069,15.03137929646199
170.0,82.04376117600684,15.836930959749399,0.8948110077238896,14.721635966668693
171.0,82.25614298106902,14.69438601144546,0.8915860035084422,14.421975370600466
172.0,82.63527099437192,13.661373555525453,0.8882865961126111,14.131895783008044
173.0,83.17177937393713,12.747605931730194,0.8849138904897917,13.850950162204832
174.0,83.8497230019691,11.95778774926485,0.881469084265985,13.578737460457631
175.0,84.64081545264398,11.296257139975332,0.8779534736533285,13.31489522355933
176.0,85.50689737157913,10.764969249148637,0.8743684608062423,13.059093648969771
177.0,86.40600671601112,10.360487530908282,0.8707155605467045,12.811030739145666
178.0,87.30068814690493,10.07102069211173,0.8669964024926607,12.570428007022391
179.0,88.16626102050989,9.875387935120198,0.863212737721985,12.33702739715154
180.0,88.97471865557438,9.76278368176076,0.859366441668765,12.11058837456606
181.0,89.62877100985095,9.782912502861228,0.855459516384176,11.890885619065694
182.0,89.97721321182692,10.007290007180384,0.8514940928158133,11.677707127061012
183.0,89.89115049675156,10.465489609535593,0.8474724318681174,11.470852603434787
184.0,89.27261117863758,11.15979225453503,0.8433969256602699,11.270132158984449
185.0,88.0621869429572,12.073434773554048,0.8392700965964963,11.075365153510699
186.0,86.25008074026574,13.171338931652146,0.8350945967390994,10.886379282597247
187.0,83.87879192098472,14.402630166453344,0.8308732063692134,10.703009786385863
188.0,81.0321961429768,15.707871193040388,0.8266088323502603,10.525098800900423
189.0,77.81379760235832,17.03002739250189,0.82230450537164,10.352494793401096
190.0,74.324037530364,18.32443765831212,0.8179633767163391,10.185052085426648
191.0,70.66208475760389,19.5481832142686,0.8135887148578214,10.022630455502807
192.0,66.95742661749901,20.628381232118397,0.8091839007536872,9.865094778253257
193.0,63.35922859919919,21.475676915237695,0.8047524233211474,9.712314730789508
194.0,60.00251281350892,22.01708992360849,0.8002978741521128,9.564164530425112
195.0,56.986605037537565,22.21545465123749,0.7958239417680611,9.420522705828109
196.0,54.364789115011995,22.077867610737535,0.7913344061036618,9.281271903582
197.0,52.14807358148085,21.650392941620012,0.7868331312532532,9.14629869992416
198.0,50.32087970504124,21.000999102334454,0.7823240585349763,9.015493435930331
199.0,48.8591385315556,20.20040942670515,0.7778111997705079,8.888750084296944
200.0,47.74118804988794,19.310406638280448,0.7732986296285916,8.76596611439639
201.0,46.94639338478017,18.383729547117863,0.7687904778870188,8.647042372493885
202.0,46.44981561109314,17.4665665096941,0.7642909214968727,8.531882971406914
203.0,46.21892833251081,16.598684752834945,0.7598041764286853,8.420395187512037
204.0,46.21027990971742,15.814458375930721,0.7553344894892197,8.312489366096733
205.0,46.36700608426263,15.144486534442784,0.7508861299501128,8.208078830819286
206.0,46.6188478586746,14.616549311271458,0.7464633811171819,8.107079798949945
207.0,46.88521786349359,14.25547365876479,0.7420705319394267,8.00941130125167
208.0,47.08066680982736,14.08211231767883,0.7377118686186768,7.9149951056049925
209.0,47.12203200178161,14.111323479742557,0.7333916662298312,7.82375564305484
210.0,46.936838845795364,14.348801198899766,0.7291141805880418,7.735619940167343
211.0,46.471201080688985,14.788079630751069,0.7248836399879194,7.650517550664512
212.0,45.695797725617865,15.409035054527688,0.7207042377385601,7.568380491347623
213.0,44.608916880756006,16.178294800572843,0.7165801236136421,7.489143178102643
214.0,43.23629341845376,17.051816673704497,0.7125153968959852,7.412742368006337
215.0,41.62730002011884,17.97908767599085,0.7085140989756537,7.339117100564868
216.0,39.848432184020446,18.908004039105016,0.704580206348533,7.268208641778015
217.0,37.975455635918614,19.78948901995774,0.7007176239106307,7.199960430355603
218.0,36.0854802462179,20.58141192856431,0.6969301785160403,7.134318025678221
219.0,34.2498775129126,21.251663786535612,0.6932216129116353,7.071229056382496
220.0,32.52857988838039,21.780311793688576,0.6895955800271212,7.010643171198811
221.0,30.96621376159975,22.160572688661045,0.6860556375508864,6.952511991048158
222.0,29.590390257553086,22.398214459665457,0.6826052429971644,6.896789064724206
223.0,28.412350360607316,22.50937840197463,0.6792477488928413,6.843429823252219
224.0,27.429190318192582,22.517374437652368,0.6759863983508502,6.7923915403702075
225.0,26.627022967101006,22.449264264597566,0.6728243216375684,6.743633280864789
226.0,25.984095716372476,22.332888350113144,0.6697645318194411,6.697115872082186
227.0,25.473749506716587,22.194536839148647,0.666809921842861,6.652801860690372
228.0,25.067041347505647,22.05734015361502,0.6639632620134401,6.610655468804818
229.0,24.73500031743884,21.940184550497893,0.661227196538991,6.570642569554291
230.0,24.450555087908302,21.85716338214746,0.6586042417789961,6.532730644103528
231.0,24.18998719953137,21.817434530829484,0.6560967845513728,6.49688874564847
232.0,23.93400368988486,21.82538350862628,0.6537070795025229,6.463087477199739
233.0,23.668263630400496,21.88112971486705,0.6514372485273285,6.431298950031345
234.0,23.383464378725087,21.98120346035202,0.6492892794412806,6.401496756481705
235.0,23.075048391546463,22.11938013151941,0.6472650245788981,6.373655943662863
236.0,22.742536051864352,22.287597787152684,0.64536620019817,6.34775298273846
237.0,22.38863917512471,22.476855622856398,0.6435943862654739,6.323765742234115
238.0,22.01831933343403,22.678032019600376,0.6419510259246755,6.3016734623685435
239.0,21.637852337374472,22.882554388034023,0.6404374253056354,6.281456730134357
240.0,21.253991410139328,23.082894799241895,0.6390547534789737,6.263097455362072
241.0,20.873283550875076,23.272881300365484,0.6378040425391843,6.246578847738737
242.0,20.5015634054081,23.447837741304383,0.6366861878016224,6.2318853947522985
243.0,20.143633677664674,23.604580158249856,0.6357019485682965,6.219002840099006
244.0,19.803082334095013,23.741299039579193,0.6348519479211941,6.207918162104274
245.0,19.482253552085727,23.85737094159997,0.6341366733311873,6.198619556073155
246.0,19.18230118286762,23.953130758059263,0.6335564740617287,6.191096441103904
247.0,18.903448036937316,24.029599704933858,0.6331115746240693,6.185339358450862
