Time,J,A,S,tau
0.0,100.0,100.0,0.7552638742599681,27.027027027027028
1.0,99.80697404728181,36.78880798942707,0.7539221295074735,28.012338864518167
2.0,99.61755798977507,13.533787936432281,0.7526005381474852,28.998528411542914
3.0,99.43158071628025,4.978842298600017,0.7512984646954504,29.9854862729573
4.0,99.24887935420287,1.8316863042450002,0.7500152282990807,30.97314801717011
5.0,99.06929671076229,0.6739216168020132,0.7487501420578674,31.961454787191006
6.0,98.89268097822777,0.2480043868952092,0.7475025156116145,32.950352763869745
7.0,98.71888545174127,0.09131578404903457,0.7462716573472248,33.939792680513165
8.0,98.54776825902391,0.03367004540217125,0.74505687626618,34.929729383928056
9.0,98.37919210129975,0.012460024291103438,0.7438574835510301,35.920121437363896
10.0,98.21302400480916,0.004654088122573858,0.7426727938653865,36.910930761230475
11.0,98.04913508231252,0.001779457428740548,0.7415021264184241,37.90212230783353
12.0,97.88740030401308,0.0007191869542065509,0.7403448058216675,38.89366376671195
13.0,97.7276982773618,0.0003266098660247004,0.7392001627629428,39.88552529748004
14.0,97.56991103522945,0.00017987886165835048,0.7380675345197146,40.87767928736405
15.0,97.41392383195716,0.00012379024393150768,0.7369462653316522,41.87010013088513
16.0,97.25962494681927,0.00010123373899911431,0.7358357066501058,42.8627640293808
17.0,97.10690549445023,9.118683564629616e-05,0.7347352172802415,43.855648808270544
18.0,96.95565924180853,8.590374286588092e-05,0.7336441634298487,44.84873375016704
19.0,96.80578243128909,8.252471638349548e-05,0.7325619186773422,45.84199944212316
20.0,96.65717360921845,7.99875124411117e-05,0.731487863868817,46.83542763526406
21.0,96.50973346113997,7.789315260029286e-05,0.7304213869600584,47.829001116235865
22.0,96.36336465028535,7.608871025602658e-05,0.7293618828012728,48.822703587640724
23.0,96.21797166306843,7.45114081799101e-05,0.7283087528873298,49.816519558125634
24.0,96.07346065400897,7.313014349636523e-05,0.7272614050536678,50.81043423788545
25.0,95.92973930273929,7.193066817536704e-05,0.7262192531723137,51.804433444244665
26.0,95.78671666464243,7.09013758328983e-05,0.7251817167847867,52.798503508662364
27.0,95.64430303742296,7.003617127112641e-05,0.7241482207669111,53.79263119328928
28.0,95.5024098162861,6.932832198230514e-05,0.7231181949174003,54.78680360632796
29.0,95.36094936767958,6.877408054496722e-05,0.7220910736065173,55.781008125563304
30.0,95.21983489024036,6.83694953648496e-05,0.7210662953463484,56.775232320040104
31.0,95.07898029254339,6.811218630904792e-05,0.720043302430765,57.76946387677607
32.0,94.93830006062038,6.800068383501735e-05,0.7190215405108167,58.76369052651387
33.0,94.79770913749243,6.803376176147763e-05,0.7180004582338488,59.75789997060981
34.0,94.65712279706034,6.821223924763162e-05,0.7169795068430487,60.752079808100014
35.0,94.5164565244998,6.85361548290551e-05,0.71595813982713,61.7462174604732
36.0,94.37562589517151,6.900845366814126e-05,0.7149358125582789,62.74030009670373
37.0,94.23454645607303,6.963062200111607e-05,0.7139119819680657,63.73431455405353
38.0,94.09313360767631,7.040764671038669e-05,0.7128861062355623,64.72824725723115
39.0,93.9513024872446,7.134270086615509e-05,0.711857644508297,65.72208413345886
40.0,93.80896785126966,7.244279128450307e-05,0.710826056652837,66.71581052151328
41.0,93.66604396158287,7.371310314831411e-05,0.7097908030416602,67.7094110790311
42.0,93.52244446630296,7.516268050965089e-05,0.7087513443817665,68.70286967688448
43.0,93.37808228932518,7.679916903420401e-05,0.7077071415898006,69.69616929601844
44.0,93.2328695083914,7.863368210711132e-05,0.7066576557197961,70.68929190247678
45.0,93.08671724773659,8.067694366901694e-05,0.7056023479505972,71.6822183298312
46.0,92.93953555305133,8.294216928908437e-05,0.7045406796407987,72.67492813032341
47.0,92.79123328583265,8.544396473521961e-05,0.7034721124558558,73.66739943697436
48.0,92.64171799647524,8.819780948138574e-05,0.7023961085853472,74.6596087867775
49.0,92.49089581771953,9.122288065108533e-05,0.7013121310438928,75.6515309541498
50.0,92.33867133800251,9.453749534890018e-05,0.7002196440918073,76.64313874209586
51.0,92.18494749105187,9.81660537908671e-05,0.699118113755026,77.63440277644527
52.0,92.02962543079705,0.00010213180095586149,0.6980070084969581,78.6252912588044
53.0,91.8726044183256,0.00010646275978902777,0.6968858000113546,79.61576971420935
54.0,91.71378169517898,0.00011118840750350454,0.6957539642070476,80.60580069227245
55.0,91.5530523674282,0.00011634156501911772,0.6946109823457556,81.59534345621157
56.0,91.3903092821318,0.00012195996184844943,0.6934563423941091,82.58435362871182
57.0,91.22544290134701,0.00012808517886619944,0.6922895406130114,83.57278279665886
58.0,91.05834118322913,0.000134761288109542,0.6911100833657414,84.56057808839537
59.0,90.88888945794555,0.00014203783970687903,0.6899174892068523,85.54768169953282
60.0,90.71697029743298,0.00014997178464683808,0.6887112913105151,86.53403035643565
61.0,90.5424633938017,0.00015862286013234938,0.6874910401915705,87.51955474112727
62.0,90.36524543555961,0.00016805688435877738,0.686256306786391,88.50417885457117
63.0,90.18518997588714,0.00017835059776955456,0.6850066859963757,89.48781929463117
64.0,90.00216730665863,0.00018958534046944117,0.683741800650471,90.47038447020495
65.0,89.81604433650588,0.000201849222977568,0.6824613058975559,91.4517737477517
66.0,89.62668446065696,0.00021524401231914328,0.6811648941994445,92.43187648789123
67.0,89.43394742961466,0.00022988302727331296,0.6798523009520394,93.41057097407447
68.0,89.23768923472761,0.00024588220843593626,0.6785233105219153,94.38772328710222
69.0,89.0377619745222,0.000263375805203487,0.6771777631934011,95.36318600395312
70.0,88.83401373401797,0.00028251137818117116,0.6758155626988473,96.3367968076333
71.0,88.62628846268781,0.00030345088321514184,0.6744366845510038,97.30837695493915
72.0,88.41442585473584,0.00032637220388185157,0.6730411851809551,98.27772960345088
73.0,88.19826123200636,0.0003514706188359362,0.6716292119220038,99.24463798896274
74.0,87.9776254300943,0.0003789602809081553,0.6702010138688771,100.20886344626925
75.0,87.75234468829967,0.000409075725238844,0.6687569536302164,101.17014326774715
76.0,87.52224054415032,0.00044207339795158804,0.667297519976821,102.12818839633856
77.0,87.28712973330813,0.00047823318258688664,0.6658233413677321,103.08268095249541
78.0,87.04682409577715,0.0005178598904907492,0.664335200310041,104.03327159855243
79.0,86.80113048944774,0.0005612846705120698,0.6628340484753004,104.97957674903336
80.0,86.54985071213511,0.0006088663357596523,0.6613210224548213,105.92117564171065
81.0,86.29278143339799,0.0006609926681384477,0.6597974599873464,106.85760729194125
82.0,86.02971413773992,0.0007180807188271619,0.6582649164280036,107.78836736340106
83.0,85.76043508069198,0.0007805773463303917,0.6567251811662639,108.71290499806635
84.0,85.48472525969754,0.0008489591335117731,0.6551802936145618,109.63061966277482
85.0,85.2023604018735,0.0009237316185491106,0.6536325582995144,110.54085808479661
86.0,84.91311097094867,0.0010054277326975577,0.6520845584877714,111.44291136594688
87.0,84.61674219592712,0.0010946052812498583,0.6505391676708184,112.33601238353022
88.0,84.31301412427429,0.001191843294720233,0.6489995581215888,113.21933360618613
89.0,84.0016817026686,0.0012977370745109718,0.6474692056254764,114.09198547272311
90.0,83.68249488859315,0.001412891763947021,0.6459518893863372,114.9530155011368
91.0,83.35519879624152,0.0015379142947282223,0.6444516860234615,115.80140831167196
92.0,83.01953388036438,0.0016734035938488977,0.6429729565195719,116.63608676007418
93.0,82.67523616176385,0.0018199389899950732,0.6415203249658801,117.45591438277592
94.0,82.32203749812857,0.0019780668338440126,0.640098647992652,118.25969935207563
95.0,81.95966590376918,0.0021482854448185867,0.638712973887512,119.04620012367464
96.0,81.58784592082661,0.0023310348899597544,0.6373684906019439,119.81413292583215
97.0,81.20759725622088,0.00462338175619327,0.6360704621385228,120.56218120836523
98.0,80.81868628194394,0.007366720941576794,0.6348241532940048,121.28900706931175
99.0,80.42090948301077,0.010292143095301243,0.6336347428877085,121.99326461836714
100.0,80.01419361573248,0.013408981538459618,0.6325072268975349,122.67361516838845
101.0,79.5984876110109,0.016726084166588228,0.6314463119457602,123.32874403234099
102.0,79.17376458366738,0.02025164748509746,0.6304563050230723,123.95737822904849
103.0,78.74002390777888,0.02399304123386666,0.6295409949482909,124.55830540272237
104.0,78.2972929623421,0.02795664024346947,0.6287035371425954,125.13039251065301
105.0,77.845628809365,0.03214766176521304,0.6279463410899914,125.67260408843885
106.0,77.38511951424552,0.036570024904039315,0.6272709713572806,126.18401849418736
107.0,76.91588484790744,0.04122623373826597,0.6266780602487496,126.66384220016131
108.0,76.43807897617225,0.046117169436179835,0.6261671581192579,127.11143259630384
109.0,75.95188757931017,0.05124224949226925,0.6257368429453036,127.52628388208434
110.0,75.45753015203715,0.05659909205278049,0.6253844507156336,127.90806551510994
111.0,74.95526009148676,0.06218376313576916,0.6251062782099135,128.25659406363766
112.0,74.44535981915165,0.06799068766362734,0.6248974568595611,128.57185025532095
113.0,73.92814558382045,0.07401270165707485,0.6247520213962042,128.85396853646498
114.0,73.4039605856524,0.08024123338877821,0.6246629953458083,129.10322361758503
115.0,72.87317457845744,0.08666632306540054,0.6246223863300477,129.32002917452232
116.0,72.33618224534806,0.09327679103012444,0.6246212997597161,129.50491966098554
117.0,71.79339834813986,0.10006044917564856,0.6246500723342853,129.658529959845
118.0,71.24525509771824,0.10700419453266015,0.6246983147082764,129.7815867524165
119.0,70.69219972486938,0.11409418093142101,0.6247550305641529,129.8748894782585
120.0,70.13468947218655,0.1213160204484168,0.6248087543276425,129.93929033571
121.0,69.57318765603554,0.12865490597876494,0.6248476204294852,129.97568253976863
122.0,69.00816036261348,0.13609575514342848,0.6248594684737067,129.9849840823583
123.0,68.44007207462622,0.14362335452700511,0.6248319539305299,129.9681232156978
124.0,67.86938117625186,0.15122246826585467,0.624752617223627,129.9260282209622
125.0,67.2965356221153,0.15887794631161928,0.6246089708005338,129.85961517935868
126.0,66.72196977630232,0.1665747962420159,0.6243885707320636,129.76978063445642
127.0,66.14610015784234,0.17429825704475724,0.6240790711289721,129.65739511320868
128.0,65.56932015922419,0.18203387657503478,0.6236682971765523,129.52329468609508
129.0,64.99199831863318,0.18976752169716626,0.6231442822901612,129.36827967368495
130.0,64.41852099594286,0.18932770207137053,0.7010530580309531,56.300265648442654
131.0,63.83190616064292,0.1851753176625301,0.7260535386154644,41.50904941451697
132.0,63.22725683670901,0.1810740377599168,0.7356177591221773,35.99074286431762
133.0,62.599798422664044,0.1885583178857167,0.7403075131307261,32.722214210935576
134.0,61.97028138103525,0.21049672233946148,0.7424737636420613,30.461153914174687
135.0,61.363115194504665,0.24476813042391662,0.7430562668811562,28.766447593513
136.0,60.79977988068891,0.2904374503030424,0.7425334523726713,27.431688838332253
137.0,60.30032007555491,0.34707258794396373,0.741185195942898,26.34405115937239
138.0,59.88380259460457,0.4144993307986514,0.7391910152343505,25.435297776538718
139.0,59.56837819132936,0.49268307418696927,0.7366739444663646,24.661113615078055
140.0,59.3711334471964,0.5816639923772643,0.7337226667089767,23.991159360975068
141.0,59.307807541992844,0.6815183030652584,0.7304037310888281,23.403799644377465
142.0,59.39246782022602,0.7923314070234536,0.7267687180400431,22.8831099804999
143.0,59.63710667398484,0.9141805630272818,0.7228587492750018,22.4170563268121
144.0,60.05127812669378,1.0471206176888852,0.7187073936083319,21.996348113480693
145.0,60.641710073515824,1.1911739787630093,0.7143426163918386,21.613689789786044
146.0,61.41202248253017,1.3463214482409853,0.7097881447023499,21.263264150888336
147.0,62.36241267601961,1.512497023869533,0.7050644413213452,20.940376438447643
148.0,63.489508322016526,1.6895822963663072,0.7001894117813029,20.64119588074156
149.0,64.78627012996738,1.8774024462137417,0.6951789218036194,20.36257069229264
150.0,66.24375444701602,2.073666435773881,0.6900471991740745,20.101886085768964
151.0,67.85333696287562,2.2638630711094843,0.6848071580216224,19.85694986942694
152.0,69.58505386368256,2.445685072982126,0.6794705994077608,19.625925225363005
153.0,71.39818895956743,2.634433854337036,0.6740484212992097,19.40725793748866
154.0,73.25896231224614,2.8576398122899507,0.6685507602161715,19.199628669149853
155.0,75.14989781887334,3.137685748149727,0.6629871099495629,19.001912336901494
156.0,77.05471458745754,3.493699552198162,0.6573664166167642,18.81314586983277
157.0,78.94561583777485,3.942422702762848,0.6516971558107312,18.632502009893233
158.0,80.77304940107611,4.498402366542853,0.6459873956339982,18.45926782745672
159.0,82.45963523962295,5.17389609793801,0.6402448477100918,18.292827122465543
160.0,83.90057766158856,5.97865241532173,0.634476909245348,18.1326457710588
161.0,84.97182899409437,6.919653230983431,0.6286906975854686,17.97825950543627
162.0,85.54513658010448,8.000863078090083,0.6228930778758086,17.829263785464736
163.0,85.50680284786115,9.223037204374158,0.6170906859479444,17.68530516273258
164.0,84.77532030195562,10.58361814423407,0.6112899472760689,17.5460739866144
165.0,83.3138272254183,12.076708535100515,0.6054970910585554,17.411298512811996
166.0,81.13335543314678,13.693207155627933,0.5997181636010367,17.28073940431084
167.0,78.28827483525347,15.420966074463177,0.5939590366853436,17.154185446876244
168.0,74.87093563390971,17.23997047657505,0.5882254149521354,17.031449767452862
169.0,71.00027481920594,19.121604420423726,0.5825228420061703,16.912366536137487
170.0,66.79186964749083,21.04460918033456,0.5768567046812957,16.79678822465919
171.0,62.33640327270226,23.00490230351709,0.571232236057307,16.684583211007805
172.0,57.704050497094336,25.00593903532655,0.5656545174744712,16.57563374455575
173.0,52.95705203842938,27.04607065338675,0.5601284802724619,16.46983413121634
174.0,48.16127906137953,29.10842617106809,0.5546589064833516,16.36708924482493
175.0,43.394343772006806,31.154261587630863,0.5492504289911084,16.267313197747843
176.0,38.74762239764031,33.12199646511475,0.5439075322216945,16.17042818580955
177.0,34.32118840699371,34.933115738077284,0.5386345514484561,16.076363516390927
178.0,30.212623215567092,36.504323563247084,0.5334356729398593,15.985054746587318
179.0,26.503111005521475,37.76263160978904,0.5283149336526085,15.896442940505322
180.0,23.245391972368704,38.65875444763819,0.5232762210958743,15.810474022138399
181.0,20.457365744664838,39.17487998333589,0.5183232729962362,15.727098225280436
182.0,18.123333649717093,39.324704321144985,0.5134596780435957,15.646269588673443
183.0,16.201201478321003,39.14728397431963,0.5086888753593025,15.567945548861108
184.0,14.632683937336095,38.697647445937875,0.5040141554121269,15.49208656064548
185.0,13.353858014127473,38.03679627387517,0.49943866064799797,15.418655780441094
186.0,12.305258158073462,37.22191219922182,0.49496538647705474,15.347618784375982
187.0,11.43756200549699,36.30077815856618,0.49059718251978535,15.278943323468893
188.0,10.712254757545976,35.311108626288416,0.4863367541253607,15.212599109920223
189.0,10.100170488972392,34.281953795107036,0.4821866641693931,15.148557630215924
190.0,9.579820574869851,33.23529497681052,0.47814933510041685,15.08679198199591
191.0,9.136016695780462,32.187334051855395,0.47422705122052544,15.027276731456602
192.0,8.758714101616187,31.149556963598588,0.4704219613204972,14.969987787222893
193.0,8.44194416719362,30.12971654605156,0.4667360813307388,14.914902292374224
194.0,8.1827631873518,29.13279508330373,0.4631712976639688,14.861998524541397
195.0,7.980323051665241,28.161847893593762,0.4597293706617912,14.811255811008639
196.0,7.835229927873326,27.218670339606508,0.4564119352123215,14.762654472838271
197.0,7.748803010177592,26.304323229054436,0.45322050873847614,14.716175726832908
198.0,7.7227823463807646,25.419437138945785,0.4501564916977817,14.671801651406117
199.0,7.759012481451991,24.564431863404472,0.4472211723271624,14.629515128006378
200.0,7.859221935256543,23.739645114261833,0.4444157303043825,14.589299797171302
201.0,8.02484255809968,22.945415322240894,0.4417412405770579,14.551140018758682
202.0,8.256848485366529,22.18213851349016,0.43919867720110783,14.515020836680842
203.0,8.555577773128135,21.450301008331735,0.4367889183772542,14.480927944226893
204.0,8.920719867195304,20.750510863716915,0.43451274529820566,14.448847672156774
205.0,9.351030320596305,20.083483369743384,0.4323708526732186,14.418766942512104
206.0,9.844400882714213,19.450048388926366,0.43036384947652745,14.390673246322804
207.0,10.397605821730059,18.851136027321896,0.4284922620444111,14.364554644272323
208.0,11.00640020010183,18.287772296459824,0.4267565373504285,14.340399732700403
209.0,11.665358669398296,17.761059432952123,0.42515704796937787,14.318197631947204
210.0,12.367953458557544,17.27216496536047,0.42369409377271255,14.297937970620232
211.0,13.106556721303045,16.822298985508255,0.42236790541179875,14.27961087247245
212.0,13.872508535447375,16.41268759065887,0.4211786471325142,14.26320694419211
213.0,14.656228604104594,16.044540904525864,0.4201264192575775,14.248717264504343
214.0,15.447355963731775,15.71901558553644,0.4192112608761648,14.236133372759285
215.0,16.234923619724682,15.437172652265792,0.4184331519214254,14.225447260860706
216.0,17.00757279080219,15.199932159327584,0.41779201514486175,14.216651363891092
217.0,17.753796990547016,15.008024222752937,0.41728771754175265,14.209738552928686
218.0,18.462192463382934,14.861939100525829,0.416920072053976,14.204702126071757
219.0,19.121714099115103,14.761876962856828,0.41668883889238095,14.201535801374789
220.0,19.721930743027723,14.707699150516317,0.41659372658858695,14.200233711300077
221.0,20.253297606524974,14.698884210193901,0.41663439247424444,14.200790396936014
222.0,20.707402930355897,14.73449111268836,0.4168104432372464,14.20320080150029
223.0,21.07717895263166,14.813131737114944,0.4171214355252819,14.2074602641845
224.0,21.357109159930896,14.932950349232112,0.4175668756955346,14.21356451683215
225.0,21.543394935113422,15.09161677103674,0.41814621953364717,14.221509678781807
226.0,21.63407309077532,15.286330480386233,0.4188588717398161,14.231292254096262
227.0,21.629056968226617,15.513844343286257,0.4197041860189166,14.242909124462331
228.0,21.530154534626934,15.7704937955125,0.4206814639662487,14.256357547884752
229.0,21.341019675651168,16.052241026894148,0.42178995374279327,14.271635155502246
230.0,21.067037911261778,16.35472956604891,0.4230288482457638,14.288739951801166
231.0,20.71511010188851,16.67335725374621,0.424397286401581,14.30767030942117
232.0,20.293468087206236,17.00334535236794,0.4258943492403175,14.328424969408102
233.0,19.81139574353537,17.33982095546845,0.4275190590713569,14.351003039939911
234.0,19.27893942710468,17.67790171050397,0.4292703775189491,14.375403996599916
235.0,18.706618741439094,18.012783210302292,0.4311472045941151,14.401627682986765
236.0,18.105133058015213,18.339826713608282,0.4331483759705415,14.42967431339791
237.0,17.485085659135926,18.654645781877058,0.43527266124362485,14.459544474764384
238.0,16.856739394001327,18.953188891269846,0.43751876209147034,14.491239130380487
239.0,16.22980577942577,19.231816173650927,0.43988531030698547,14.524759624899934
240.0,15.613273055423775,19.48736723459048,0.4423708658253534,14.56010769069023
241.0,15.015275263109908,19.717217864062285,0.44497391477563564,14.597285455746388
242.0,14.443003502386645,19.919322213562676,0.44769286750919385,14.636295453767534
243.0,13.90265379268545,20.092237652595944,0.45052605663609135,14.67714063559728
244.0,13.39942084697654,20.235130104690132,0.45347173545342734,14.71982438223888
245.0,12.937518137222266,20.347762424966636,0.45652807607078955,14.76435052176819
