Time,J,A,S,tau
0.0,100.0,100.0,0.6699326596010694,38.57105104073841
1.0,100.0,100.0,0.6699326596010694,38.57105104073841
2.0,100.0,100.0,0.6699326596010694,38.57105104073841
3.0,100.0,100.0,0.6699326596010694,38.57105104073841
4.0,100.0,100.0,0.6699326596010694,38.57105104073841
5.0,99.99838429215053,99.99683591006398,0.6699326596010694,38.57105104073841
6.0,98.96593406760358,97.98459038950297,0.6699326596010694,38.57105104073841
7.0,97.9446499439099,96.01298015971004,0.6699326596010694,38.57105104073841
8.0,96.93443649644114,94.0810619666193,0.6699326596010694,38.57105104073841
9.0,95.93527538851005,92.18804430330708,0.6699326596010694,38.57105104073841
10.0,94.94715906334037,90.33311999115402,0.6699326596010694,38.57105104073841
11.0,93.9701154307856,88.5155465550142,0.6699326596010694,38.57105104073841
12.0,93.0041736647243,86.73458184784673,0.6699326596010694,38.57105104073841
13.0,92.04937717805426,84.98945704637124,0.6699326596010694,38.57105104073841
14.0,91.1058194205846,83.27947043316003,0.6699326596010694,38.57105104073841
15.0,90.17359750146157,81.60392677320154,0.6699326596010694,38.57105104073841
16.0,89.2528218877934,79.96210222324173,0.6699326596010694,38.57105104073841
17.0,88.34366922819932,78.35333418482892,0.6699326596010694,38.57105104073841
18.0,87.44632396912071,76.77697110283437,0.6699326596010694,38.57105104073841
19.0,86.56098074743782,75.23233224480106,0.6699326596010694,38.57105104073841
20.0,85.68791758895871,73.71879147993026,0.6699326596010694,38.57105104073841
21.0,84.82742671042112,72.23573792179678,0.6699326596010694,38.57105104073841
22.0,83.97980489817529,70.78253212481003,0.6699326596010694,38.57105104073841
23.0,83.14544843280373,69.35858196673951,0.6699326596010694,38.57105104073841
24.0,82.32477694275536,67.96331442555572,0.6699326596010694,38.57105104073841
25.0,81.51820691851411,66.59612956443647,0.6699326596010694,38.57105104073841
26.0,80.72626645861767,65.25646698933508,0.6699326596010694,38.57105104073841
27.0,79.94951923194131,63.943788931878395,0.6699326596010694,38.57105104073841
28.0,79.18851694980765,62.65753323221045,0.6699326596010694,38.57105104073841
29.0,78.4439277310765,61.39716911012513,0.6699326596010694,38.57105104073841
30.0,77.7164705199835,60.162191621188995,0.6699326596010694,38.57105104073841
31.0,77.00684390241061,58.952074697389925,0.6699326596010694,38.57105104073841
32.0,76.31585704816496,57.766315212228875,0.6699326596010694,38.57105104073841
33.0,75.64438790554222,56.60443884085062,0.6699326596010694,38.57105104073841
34.0,74.9932874663809,55.46595380047925,0.6699326596010694,38.57105104073841
35.0,74.36349887579182,54.350382969810056,0.6699326596010694,38.57105104073841
36.0,73.75605383963307,53.25728071592679,0.6699326596010694,38.57105104073841
37.0,73.17195209599991,52.186187257444615,0.6699326596010694,38.57105104073841
38.0,72.61225629895347,51.13665048700293,0.6699326596010694,38.57105104073841
39.0,72.07813589798222,50.1082514902871,0.6699326596010694,38.57105104073841
40.0,71.57073285860601,49.100562100803295,0.6699326596010694,38.57105104073841
41.0,71.09121386809637,48.113156130830845,0.6699326596010694,38.57105104073841
42.0,70.64084700718573,47.14563522219306,0.6699326596010694,38.57105104073841
43.0,70.22088278778283,46.197556399746304,0.6699326596010694,38.57105104073841
44.0,69.83251150689775,45.26862719702098,0.6699326596010694,38.57105104073841
45.0,69.4769043076699,44.35862415694586,0.6699326596010694,38.57105104073841
46.0,69.15522397455342,43.467248943293654,0.6699326596010694,38.57105104073841
47.0,68.86875502481891,42.59419702955147,0.6699326596010694,38.57105104073841
48.0,68.6187589171452,41.73916471705307,0.6699326596010694,38.57105104073841
49.0,68.40641996364073,40.90186373597215,0.6699326596010694,38.57105104073841
50.0,68.23299419300527,40.08204035903731,0.6699326596010694,38.57105104073841
51.0,68.09963914843634,39.27943434754361,0.6699326596010694,38.57105104073841
52.0,68.00746699415626,38.49382489096275,0.6699326596010694,38.57105104073841
53.0,67.95762060903687,37.725009155097545,0.6699326596010694,38.57105104073841
54.0,67.95107479958311,36.97278782093271,0.6699326596010694,38.57105104073841
55.0,67.98879621638748,36.23701184666851,0.6699326596010694,38.57105104073841
56.0,68.07171460144929,35.517535509517515,0.6699326596010694,38.57105104073841
57.0,68.20054571940052,34.81423949184663,0.6699326596010694,38.57105104073841
58.0,68.37602670325435,34.12704864783341,0.6699326596010694,38.57105104073841
59.0,68.59874512518971,33.455882056303395,0.6699326596010694,38.57105104073841
60.0,68.86908205641839,32.800716689488056,0.6699326596010694,38.57105104073841
61.0,69.18744447776808,32.16155985807168,0.6699326596010694,38.57105104073841
62.0,69.55401679360803,31.5384050724683,0.6699326596010694,38.57105104073841
63.0,69.96869375769396,30.931324096878587,0.6699326596010694,38.57105104073841
64.0,70.4313962893511,30.3404286353494,0.6699326596010694,38.57105104073841
65.0,70.94198105023892,29.76582595004153,0.6699326596010694,38.57105104073841
66.0,71.49977708121041,29.20764701462535,0.6699326596010694,38.57105104073841
67.0,72.10403659216439,28.666105642608883,0.6699326596010694,38.57105104073841
68.0,72.75401519439147,28.14142163352057,0.6699326596010694,38.57105104073841
69.0,73.44851750138146,27.63382691226663,0.6699326596010694,38.57105104073841
70.0,74.18614385569501,27.143625545339145,0.6699326596010694,38.57105104073841
71.0,74.96544093727658,26.67112954563904,0.6699326596010694,38.57105104073841
72.0,75.78448755882306,26.21668366301999,0.6699326596010694,38.57105104073841
73.0,76.64130559972783,25.78068725797257,0.6699326596010694,38.57105104073841
74.0,77.53367198719192,25.363540795895208,0.6699326596010694,38.57105104073841
75.0,78.45899742389726,24.965693004579972,0.6699326596010694,38.57105104073841
76.0,79.41460784481148,24.587611293859585,0.6699326596010694,38.57105104073841
77.0,80.39744821076363,24.22979263781874,0.6699326596010694,38.57105104073841
78.0,81.40439357849604,23.892761576859346,0.6699326596010694,38.57105104073841
79.0,82.43193840037826,23.577055646974557,0.6699326596010694,38.57105104073841
80.0,83.47651025852521,23.283246346129378,0.6699326596010694,38.57105104073841
81.0,84.53420105020044,23.011905610793466,0.6699326596010694,38.57105104073841
82.0,85.60101280985859,22.76363877148746,0.6699326596010694,38.57105104073841
83.0,86.67268986279544,22.539044619529044,0.6699326596010694,38.57105104073841
84.0,87.74485196528995,22.33874022533653,0.6699326596010694,38.57105104073841
85.0,88.81297861956887,22.163339107262846,0.6699326596010694,38.57105104073841
86.0,89.8723658446861,22.01345418151847,0.6699326596010694,38.57105104073841
87.0,90.91820608156306,21.889693683542422,0.6699326596010694,38.57105104073841
88.0,91.94561222966787,21.792659330726767,0.6699326596010694,38.57105104073841
89.0,92.94956820783412,21.72293644780895,0.6699326596010694,38.57105104073841
90.0,93.92505626210038,21.68109614270514,0.6699326596010694,38.57105104073841
91.0,94.86693411382221,21.667682201621833,0.6699326596010694,38.57105104073841
92.0,95.77012912224805,21.683215578348804,0.6699326596010694,38.57105104073841
93.0,96.62946663902946,21.728177990986758,0.6699326596010694,38.57105104073841
94.0,97.43990242427525,21.803019975323224,0.6699326596010694,38.57105104073841
95.0,98.19633734679331,21.908138790025074,0.6699326596010694,38.57105104073841
96.0,98.89385065611953,22.04389329422145,0.6699326596010694,38.57105104073841
97.0,99.52754239761667,22.21057327318621,0.6699326596010694,38.57105104073841
98.0,100.09272663335291,22.408423237902138,0.6699326596010694,38.57105104073841
99.0,100.58484311645847,22.637602352580025,0.6699326596010694,38.57105104073841
100.0,100.99957137172692,22.898216253644758,0.6699326596010694,38.57105104073841
101.0,101.3328462151134,23.190270633240583,0.6699326596010694,38.57105104073841
102.0,101.58085801848657,23.51371020085685,0.6699326596010694,38.57105104073841
103.0,101.7402013307376,23.86836247769373,0.6699326596010694,38.57105104073841
104.0,101.80772142969373,24.253987206576817,0.6699326596010694,38.57105104073841
105.0,101.7808526203792,24.670210664702214,0.6699326596010694,38.57105104073841
106.0,101.6572684749028,25.116595420002,0.6699326596010694,38.57105104073841
107.0,101.43533691524894,25.592540741045674,0.6699326596010694,38.57105104073841
108.0,101.11380452029655,26.097386151282446,0.6699326596010694,38.57105104073841
109.0,100.69195189677812,26.630313601527046,0.6699326596010694,38.57105104073841
110.0,100.16974723803321,27.190398031827158,0.6699326596010694,38.57105104073841
111.0,99.54750647084985,27.776606136111912,0.6699326596010694,38.57105104073841
112.0,98.82632087331511,28.387753994547932,0.6699326596010694,38.57105104073841
113.0,98.00766516542811,29.022560675279582,0.6699326596010694,38.57105104073841
114.0,97.09373396707062,29.679596347080988,0.6699326596010694,38.57105104073841
115.0,96.08708926430562,30.357336364636126,0.6699326596010694,38.57105104073841
116.0,94.99094804645493,31.054108991443357,0.6699326596010694,38.57105104073841
117.0,93.8088553799434,31.768154712216297,0.6699326596010694,38.57105104073841
118.0,92.5449153584835,32.497573655003016,0.6699326596010694,38.57105104073841
119.0,91.20350532929082,33.24038754472643,0.6699326596010694,38.57105104073841
120.0,89.78944526891823,33.9944886230826,0.6699326596010694,38.57105104073841
121.0,88.30776892918944,34.757700106930756,0.6699326596010694,38.57105104073841
122.0,86.76380655773933,35.527739875056675,0.6699326596010694,38.57105104073841
123.0,85.16306584892183,36.30225502965035,0.6699326596010694,38.57105104073841
124.0,83.51121016752097,37.078818777017744,0.6699326596010694,38.57105104073841
125.0,81.81401502250799,37.854939238060226,0.6699326596010694,38.57105104073841
126.0,80.07731634673648,38.62807677485587,0.6699326596010694,38.57105104073841
127.0,78.30697970567242,39.395638944967246,0.6699326596010694,38.57105104073841
128.0,76.50886919379852,40.155006982374054,0.6699326596010694,38.57105104073841
129.0,74.68880125034802,40.90352878191873,0.6699326596010694,38.57105104073841
130.0,72.85253749913983,41.63854511652082,0.6699326596010694,38.57105104073841
131.0,71.00574447574135,42.35738625296575,0.6699326596010694,38.57105104073841
132.0,69.15397341639459,43.05739737070981,0.6699326596010694,38.57105104073841
133.0,67.30266105636568,43.735937579236705,0.6699326596010694,38.57105104073841
134.0,65.45706857868576,44.390406868373574,0.6699326596010694,38.57105104073841
135.0,63.62232639316838,45.01824931413375,0.6699326596010694,38.57105104073841
136.0,61.80335196152676,45.61697597462853,0.6699326596010694,38.57105104073841
137.0,60.00489281804347,46.18418356279183,0.6699326596010694,38.57105104073841
138.0,58.23147735545568,46.71755920026642,0.6699326596010694,38.57105104073841
139.0,56.487400635334296,47.21492869409614,0.6699326596010694,38.57105104073841
140.0,54.776747765000614,47.67423300517192,0.6699326596010694,38.57105104073841
141.0,53.10330470780916,48.093604179525315,0.6699326596010694,38.57105104073841
142.0,51.470640997614616,48.47132911468262,0.6699326596010694,38.57105104073841
143.0,49.88199389950631,48.805917721748,0.6699326596010694,38.57105104073841
144.0,48.34033951056278,49.096096097226955,0.6699326596010694,38.57105104073841
145.0,46.848333741176184,49.340819255754454,0.6699326596010694,38.57105104073841
146.0,45.40830151100256,49.53932675526072,0.6699326596010694,38.57105104073841
147.0,44.022282484002474,49.69108289928814,0.6699326596010694,38.57105104073841
148.0,42.69193215559578,49.795878059536875,0.6699326596010694,38.57105104073841
149.0,41.41865139542402,49.85373390653473,0.6699326596010694,38.57105104073841
150.0,40.20342272955212,49.865009101900334,0.6699326596010694,38.57105104073841
151.0,39.04703652194584,49.83026913486058,0.6699326596010694,38.57105104073841
152.0,37.949821785096724,49.75044866007827,0.6699326596010694,38.57105104073841
153.0,36.911984177921774,49.62661207185992,0.6699326596010694,38.57105104073841
154.0,35.933341177092515,49.46018492753774,0.6699326596010694,38.57105104073841
155.0,35.01352998439659,49.25271808779304,0.6699326596010694,38.57105104073841
156.0,34.15197504332682,49.00600733645303,0.6699326596010694,38.57105104073841
157.0,33.347861157343864,48.72200357841967,0.6699326596010694,38.57105104073841
158.0,32.60029027624715,48.40278126716345,0.6699326596010694,38.57105104073841
159.0,31.908180060345074,48.0505480927552,0.6699326596010694,38.57105104073841
160.0,31.27039502815652,47.6675802696779,0.6699326596010694,38.57105104073841
161.0,30.685700099030296,47.25621258879751,0.6699326596010694,38.57105104073841
162.0,30.152851513220103,46.818806370518644,0.6699326596010694,38.57105104073841
163.0,29.670571683032044,46.35772136945218,0.6699326596010694,38.57105104073841
164.0,29.23761425821346,45.87530189824821,0.6699326596010694,38.57105104073841
165.0,28.852751443105078,45.373843377135,0.6699326596010694,38.57105104073841
166.0,28.514818520097066,44.855589994930206,0.6699326596010694,38.57105104073841
167.0,28.222706487127994,44.32270413164229,0.6699326596010694,38.57105104073841
168.0,27.975391214797952,43.77726925787132,0.6699326596010694,38.57105104073841
169.0,27.77192659724223,43.221267952412724,0.6699326596010694,38.57105104073841
170.0,27.611462459337577,42.656585021134156,0.6699326596010694,38.57105104073841
171.0,27.493235978237422,42.08499710347148,0.6699326596010694,38.57105104073841
172.0,27.416580999737416,41.50817267983508,0.6699326596010694,38.57105104073841
173.0,27.380917721011613,40.92767386065576,0.6699326596010694,38.57105104073841
174.0,27.3857546504675,40.344951613753665,0.6699326596010694,38.57105104073841
175.0,27.430678124284753,39.761358566488525,0.6699326596010694,38.57105104073841
176.0,27.51534700547142,39.178139170257424,0.6699326596010694,38.57105104073841
177.0,27.639483450092236,38.596452179617415,0.6699326596010694,38.57105104073841
178.0,27.802861099535704,38.0173537703443,0.6699326596010694,38.57105104073841
179.0,28.00530708571104,37.44182554301814,0.6699326596010694,38.57105104073841
180.0,28.246661800458842,36.87076647952537,0.6699326596010694,38.57105104073841
181.0,28.526812119028516,36.30500247993402,0.6699326596010694,38.57105104073841
182.0,28.84562241463408,35.74529980461831,0.6699326596010694,38.57105104073841
183.0,29.20299124052745,35.19235181566462,0.6699326596010694,38.57105104073841
184.0,29.598777352135357,34.64682009719557,0.6699326596010694,38.57105104073841
185.0,30.03281646822266,34.10929548627549,0.6699326596010694,38.57105104073841
186.0,30.504932155508666,33.580349464848545,0.6699326596010694,38.57105104073841
187.0,31.014846034807846,33.06050075453555,0.6699326596010694,38.57105104073841
188.0,31.562289613695576,32.55024766486387,0.6699326596010694,38.57105104073841
189.0,32.146876961655636,32.05006386101982,0.6699326596010694,38.57105104073841
190.0,32.768133241411995,31.560394676185965,0.6699326596010694,38.57105104073841
191.0,33.42556341913,31.081680691788137,0.6699326596010694,38.57105104073841
192.0,34.11846326240801,30.614338254254168,0.6699326596010694,38.57105104073841
193.0,34.84610178165866,30.158786346162007,0.6699326596010694,38.57105104073841
194.0,35.60765510728177,29.715436148764123,0.6699326596010694,38.57105104073841
195.0,36.4020612243944,29.284691476281225,0.6699326596010694,38.57105104073841
196.0,37.22824321074151,28.866964142710735,0.6699326596010694,38.57105104073841
197.0,38.08488709704875,28.462660712779194,0.6699326596010694,38.57105104073841
198.0,38.97061697201078,28.072203085639128,0.6699326596010694,38.57105104073841
199.0,39.88385796158988,27.696007416637062,0.6699326596010694,38.57105104073841
200.0,40.82289292449546,27.334508892290703,0.6699326596010694,38.57105104073841
201.0,41.78589274616672,26.988143377331927,0.6699326596010694,38.57105104073841
202.0,42.77080138342735,26.657357563707173,0.6699326596010694,38.57105104073841
203.0,43.77546034906461,26.342604451998923,0.6699326596010694,38.57105104073841
204.0,44.79752335974637,26.044348892660523,0.6699326596010694,38.57105104073841
205.0,45.83451584676638,25.76305888570348,0.6699326596010694,38.57105104073841
206.0,46.88379694383884,25.4992134561473,0.6699326596010694,38.57105104073841
207.0,47.94258779442441,25.2532917630022,0.6699326596010694,38.57105104073841
208.0,49.007971980496066,25.02578147183959,0.6699326596010694,38.57105104073841
209.0,50.07688847623676,24.81716656003229,0.6699326596010694,38.57105104073841
210.0,51.14617338685498,24.62793559326702,0.6699326596010694,38.57105104073841
211.0,52.212515869977366,24.458568800088916,0.6699326596010694,38.57105104073841
212.0,53.27254121773918,24.309546023691194,0.6699326596010694,38.57105104073841
213.0,54.32273096846599,24.18133327118237,0.6699326596010694,38.57105104073841
214.0,55.359544277230455,24.074390491354393,0.6699326596010694,38.57105104073841
215.0,56.37930654145392,23.989157438951295,0.6699326596010694,38.57105104073841
216.0,57.37836296869269,23.926061727866443,0.6699326596010694,38.57105104073841
217.0,58.35294300283747,23.88550362752009,0.6699326596010694,38.57105104073841
218.0,59.29933703582717,23.867865190378986,0.6699326596010694,38.57105104073841
219.0,60.21374705977749,23.873493012868835,0.6699326596010694,38.57105104073841
220.0,61.092474831208264,23.902709598252535,0.6699326596010694,38.57105104073841
221.0,61.9317712007127,23.955793209692974,0.6699326596010694,38.57105104073841
222.0,62.72802218561009,24.032992571449498,0.6699326596010694,38.57105104073841
223.0,63.47761120235121,24.13450272530102,0.6699326596010694,38.57105104073841
224.0,64.17708842193949,24.26048394343267,0.6699326596010694,38.57105104073841
225.0,64.8230599800278,24.411033345313037,0.6699326596010694,38.57105104073841
226.0,65.4123259350058,24.58620835018359,0.6699326596010694,38.57105104073841
227.0,65.94181016835451,24.785993734024064,0.6699326596010694,38.57105104073841
228.0,66.40865283490896,25.010329957596515,0.6699326596010694,38.57105104073841
229.0,66.8101925185361,25.259075569387164,0.6699326596010694,38.57105104073841
230.0,67.14400092289615,25.53204089003541,0.6699326596010694,38.57105104073841
231.0,67.40792542278868,25.82894549346323,0.6699326596010694,38.57105104073841
232.0,67.6000458381887,26.14945838613038,0.6699326596010694,38.57105104073841
233.0,67.71881311585972,26.493145277096396,0.6699326596010694,38.57105104073841
234.0,67.76292540421727,26.859525609594154,0.6699326596010694,38.57105104073841
235.0,67.73144319863012,27.248006514886065,0.6699326596010694,38.57105104073841
236.0,67.62385093436363,27.657930654526968,0.6699326596010694,38.57105104073841
237.0,67.43978772155702,28.08856721771229,0.6699326596010694,38.57105104073841
238.0,67.17951586596435,28.539062277395676,0.6699326596010694,38.57105104073841
239.0,66.84344342590732,29.008526830849,0.6699326596010694,38.57105104073841
240.0,66.43246624867882,29.495941867131904,0.6699326596010694,38.57105104073841
241.0,65.9477809695188,30.000233706523204,0.6699326596010694,38.57105104073841
242.0,65.39097179364173,30.52022222487801,0.6699326596010694,38.57105104073841
243.0,64.76395527064129,31.054658908347886,0.6699326596010694,38.57105104073841
244.0,64.06896026034417,31.602205972227075,0.6699326596010694,38.57105104073841
245.0,63.30855796384738,32.16144693683384,0.6699326596010694,38.57105104073841
246.0,62.48555737156034,32.73089580736633,0.6699326596010694,38.57105104073841
247.0,61.603093427060024,33.30898104660969,0.6699326596010694,38.57105104073841
248.0,60.664478581214496,33.89407894964055,0.6699326596010694,38.57105104073841
249.0,59.67328022020458,34.48448959854862,0.6699326596010694,38.57105104073841
250.0,58.63323469980409,35.07846090976625,0.6699326596010694,38.57105104073841
251.0,57.548237851229786,35.674186624094204,0.6699326596010694,38.57105104073841
252.0,56.42232412425649,36.269812604347926,0.6699326596010694,38.57105104073841
253.0,55.259618963719696,36.86344899902611,0.6699326596010694,38.57105104073841
