Time,J,A,S,tau
0.0,100.0,100.0,0.6848150493526852,15.217701830486117
1.0,97.15018805105403,97.94010898348317,0.6833307675777912,15.141810245429907
2.0,94.36867064693442,95.91854443663064,0.6818076005605711,15.063915194736053
3.0,91.65718802241614,93.93672771337131,0.6802483806190965,14.984152384881083
4.0,89.01442564093261,91.99395783970954,0.678653690690567,14.902543591476995
5.0,86.43897234022047,90.08951232971552,0.67702412926805,14.819111031748315
6.0,83.92953334467164,88.22271278767427,0.6753603275595639,14.733877965768183
7.0,81.48481328567783,86.39288288601092,0.6736629228264062,14.646867840527143
8.0,79.10343552757634,84.59933371036429,0.6719325806613421,14.5581049758493
9.0,76.78417417692509,82.84142553820995,0.6701699875926481,14.467614413237277
10.0,74.52571589878046,81.1184972290956,0.6683758377893836,14.375421415717797
11.0,72.32678244630675,79.42990862588282,0.6665508573790249,14.281552329083311
12.0,70.18618800176723,77.77504843533924,0.6646957819234433,14.186033851603261
13.0,68.1026575848565,76.15328659237535,0.6628113628971316,14.088893210145603
14.0,66.07496713770998,74.56401451259363,0.6609355479879454,13.992127628417958
15.0,64.10192233769264,73.00663631787243,0.6604486553869544,13.968908902450805
16.0,62.18230928600249,71.48055652204414,0.6599817406476931,13.946771980986911
17.0,60.31497652063402,69.985202654675,0.6595222002857459,13.925045048506028
18.0,58.49873649555593,68.51999629961519,0.6590701931133655,13.903732398587652
19.0,56.732480318969955,67.08438756559998,0.6586258741778758,13.882838146849608
20.0,55.015078404770385,65.67782306080147,0.6581893974036591,13.862366357078681
21.0,53.34540406819831,64.2997572758206,0.6577609125123279,13.84232090828238
22.0,51.72239729281567,62.949665781654666,0.6573405673592582,13.822705598539144
23.0,50.14493975415949,61.62701282877842,0.6569285067681743,13.80352410150961
24.0,48.612011838403866,60.33129447953071,0.656524871952537,13.784779945121803
25.0,47.12253997380974,59.06199420741978,0.656129802540491,13.766476595846378
26.0,45.675513527720085,57.818618418269764,0.655743433268999,13.748617335434602
27.0,44.26993296039736,56.600678029372574,0.6553658975453195,13.731205396258437
28.0,42.90478512465538,55.407684723449876,0.6549973242957244,13.714243851500513
29.0,41.57913483394643,54.2391739478853,0.6546378397228615,13.69773567877394
30.0,40.29199417725829,53.09466903188623,0.6542875672012627,13.681683760819169
31.0,39.042465866588834,51.973721393977414,0.6539466254397066,13.666090825959238
32.0,37.82962106890218,50.87587475299252,0.6536151316967425,13.650959555998348
33.0,36.652577400998574,49.80068829084546,0.6532931976997519,13.63629245947843
34.0,35.51048595351452,48.747731146650175,0.6529809333929031,13.622091989665524
35.0,34.402480315043356,47.716568916447095,0.6526784443059798,13.608360468630586
36.0,33.32778106551535,46.70679172906707,0.6523858322716071,13.595100109116833
37.0,32.2855682852126,45.71797890668767,0.6521031966605734,13.58231305429573
38.0,31.275111498117138,44.74973391225408,0.6518306312661478,13.570001290242008
39.0,30.29567268610747,43.801658165305746,0.6515682284330827,13.558166763330282
40.0,29.346554675054097,42.87336270626226,0.6513160747416518,13.546811265070438
41.0,28.42711794439515,41.96447342440133,0.6510742543183667,13.535936521098947
42.0,27.536710685007588,41.074611499697276,0.6508428472412137,13.525544153331364
43.0,26.674785779370364,40.20342350318687,0.6506219289127664,13.515635662953533
44.0,25.840769105528995,39.35054850419873,0.6504115726839869,13.50621250089142
45.0,25.03418901854544,38.51564853676708,0.6502118456834901,13.497275963848931
46.0,24.254586067228256,37.69838851370336,0.6500228135218334,13.488827311516594
47.0,23.50154801014089,36.898442938440304,0.6498445360478022,13.480867666702707
48.0,22.774768040616692,36.11551028721957,0.6496770695293317,13.473398065860374
49.0,22.073890860593423,35.34927897392234,0.6495204680791914,13.466419497341768
50.0,21.398724097716343,34.599474253886434,0.6493747784040773,13.459932777810552
51.0,20.74910669255269,33.865828778421644,0.6492400460749908,13.45393869740969
52.0,20.12482566534919,33.148069428624304,0.64911631306394,13.448437968327672
53.0,19.525906391308926,32.445978537996396,0.6490036132407755,13.443431119667897
54.0,18.952408402155058,31.75934600949594,0.6489019797080069,13.43891866295116
55.0,18.404306746965357,31.087955049120815,0.6488114429486465,13.4349010558437
56.0,17.881759635070306,30.431641607869814,0.6487320254413942,13.43137858095738
57.0,17.384992125631666,29.79025718832294,0.6486637482477424,13.42835148908323
58.0,16.91416376871515,29.163662716161586,0.6486066286727145,13.425819953862476
59.0,16.46964133288538,28.551780649873756,0.6485606772371129,13.423784001894738
60.0,16.051789652003244,27.954540115719624,0.6485259034354968,13.422243638340268
61.0,15.660941218644194,27.371906043232553,0.6485023112316854,13.421198754020763
62.0,15.29755770728193,26.80388571153922,0.6484899007608094,13.420649157150812
63.0,14.962030808989786,26.25051405000794,0.6484886684577146,13.420594580296942
64.0,14.654865158149446,25.711880495869796,0.6484986059921554,13.421034654493527
65.0,14.376453394774517,25.188097176955594,0.648519702177725,13.421968952940668
66.0,14.12726385377654,24.679343188046506,0.6485519403513389,13.423396932740742
67.0,13.907641249850187,24.185817368675874,0.6485953016086364,13.425318005532088
68.0,13.7179153175361,23.707792393887434,0.6486497612129896,13.427731459718416
69.0,13.55831660952778,23.24556330942018,0.6487152923739568,13.430636541160855
70.0,13.42891670701052,22.799496194254687,0.6487918626162954,13.434032375803607
71.0,13.329724877212527,22.369985928274776,0.648879437259372,13.437918042710006
72.0,13.26041358041097,21.957488705734832,0.6489779763046585,13.442292508591567
73.0,13.220700862720214,21.562514615056568,0.6490874362275061,13.447154662530012
74.0,13.209855379057277,21.185595250853765,0.6492077705803457,13.452503332724918
75.0,13.226933823019772,20.827318729374312,0.649338928237373,13.458337245038123
76.0,13.270649491921004,20.488302525814042,0.6494808546469707,13.464655050538699
77.0,13.339418960290791,20.169195470063322,0.6496334916098295,13.471455319525356
78.0,13.431308736091257,19.87067175640682,0.6497967769666769,13.47873653365069
79.0,13.543993105166294,19.59341577572672,0.6499706451292007,13.486497097291497
80.0,13.674774120572966,19.338115223767677,0.6501550268385786,13.494735330889498
81.0,13.820584210611347,19.105448539515397,0.6503498492770917,13.50344947248077
82.0,13.97799875499151,18.896069504012054,0.6505550360609865,13.512637676379345
83.0,14.143255016036104,18.710590535656358,0.6507705073016663,13.522298013427273
84.0,14.312297385178622,18.54956552529179,0.6509961797279454,13.532428472704531
85.0,14.480834592981248,18.41346962340952,0.6512319666359198,13.54302695895049
86.0,14.644413745592749,18.302678234111653,0.6514777779722994,13.554091293185165
87.0,14.798503394745946,18.21744416144117,0.6517335203791766,13.565619212354937
88.0,14.938589071479953,18.157875836188897,0.6519990972433325,13.577608369028928
89.0,15.06027980338486,18.12391384848066,0.6522744087468183,13.590056331076235
90.0,15.159419645251802,18.115309051997727,0.6525593519187768,13.602960581324982
91.0,15.232201281507756,18.131601792851445,0.6528538206884665,13.616318517204043
92.0,15.275276795261489,18.17210350523052,0.653157705939152,13.630127450358895
93.0,15.28585512389809,18.235882519268323,0.6534708955731967,13.644384606562761
94.0,15.261800850843622,18.32175280874736,0.653793274551206,13.659087124795205
95.0,15.201706482069413,18.428266890231153,0.6541247249345569,13.67423205633059
96.0,15.104926642321074,18.553720606708215,0.6544651259848545,13.689816365542535
97.0,14.971604977474552,18.696167414576575,0.654814354266544,13.705836931012497
98.0,14.80271200178686,18.85341414891772,0.6551722834973109,13.722290538070126
99.0,14.599943990334523,19.023069889962,0.6555387848788827,13.739173887232912
100.0,14.365716660543077,19.202566082153474,0.6559137270226788,13.75648358934143
101.0,14.103076086506345,19.389196568929883,0.6562969760089327,13.774216164847443
102.0,13.815601116050413,19.580167238838314,0.6566883954718237,13.792368044036268
103.0,13.507289925177417,19.77264815533661,0.6570878466637259,13.810935566555042
104.0,13.182439027389368,19.963829997895896,0.6574951885161933,13.829914980753427
105.0,12.845519197294648,20.15098095027119,0.6579102777206424,13.849302443836653
106.0,12.501054432148939,20.331506150572917,0.6583329687717147,13.86909402040142
107.0,12.153504521321937,20.50300167416805,0.6587631140471177,13.889285682467193
108.0,11.807161627228767,20.663304350620578,0.6592005638731099,13.909873308902908
109.0,11.466060936071527,20.81053395180664,0.6596451665924948,13.930852684937118
110.0,11.133908384968919,20.943126084367314,0.6600967686330504,13.952219501671859
111.0,10.814026043874279,21.059855128915906,0.6605552145763492,13.973969355601499
112.0,10.509317013655663,21.15984491117479,0.6610203472269269,13.996097748137833
113.0,10.222247992511932,21.242568500579978,0.6614920076835596,14.01860008525709
114.0,9.954845275670154,21.307839322461028,0.6619700354028968,14.041471676663596
115.0,9.708708941757326,21.355788723265693,0.6624542682772361,14.064707735813753
116.0,9.485037326688621,21.386837796114737,0.6629445427113214,14.088303380041788
117.0,9.284648361599462,21.401668137476328,0.6634406936682777,14.112253628452628
118.0,9.108020167999875,21.401185163713354,0.6639425547232166,14.136553399821315
119.0,8.955361523608985,21.38646304700427,0.6644499582692973,14.161197523438227
120.0,8.826567683668562,21.358735567519386,0.6649627353245888,14.186180716489915
121.0,8.721371869727044,21.319327059724138,0.6654807159091395,14.211497610395691
122.0,8.639278933967677,21.269641093401066,0.6660037288867254,14.237142729891868
123.0,8.579665398581598,21.21111834101252,0.6665316021197243,14.263110500481789
124.0,8.541763138718492,21.14521472249937,0.6670641625840206,14.28939525276509
125.0,8.524704288949932,21.073377167684793,0.6676012363315567,14.315991211165711
126.0,8.527529005385286,20.99702699316926,0.6681426486572697,14.342892504430276
127.0,8.549196727968944,20.91754545343898,0.6686882241233012,14.37009316001873
128.0,8.58859733554407,20.836259881241567,0.6692377866097196,14.397587100627995
129.0,8.6445586655838,20.75443987676365,0.6697911594314417,14.425368152162228
130.0,8.715851949086986,20.67329064593987,0.6703481653844688,14.453430040092098
131.0,8.801192579359645,20.59394437976286,0.6709086267914732,14.481766383751363
132.0,8.899241769638731,20.51746357709582,0.6714723656028123,14.510370704815186
133.0,9.008614559937747,20.444838664489435,0.6720392034542435,14.539236425597807
134.0,9.127879793613713,20.37698160136403,0.6726089617184179,14.568356861648933
135.0,9.255559317472988,20.314730514323013,0.6731814615849799,14.597725230032637
136.0,9.390140960395659,20.25885037891394,0.673756524123431,14.627334649551441
137.0,9.530086259422184,20.21002606392114,0.6743339703474112,14.657178132563619
138.0,9.67382754643603,20.16886649614994,0.6749136212744793,14.68724859213788
139.0,9.81978772025284,20.135906222469757,0.6754952979874544,14.7175388442624
140.0,9.96639814245458,20.11159846435899,0.6760788217129993,14.748041599692302
141.0,10.11209576209675,20.09631712094833,0.676664013867224,14.778749469263063
142.0,10.255346317745884,20.090359674639394,0.6772506961084369,14.809654968033795
143.0,10.39467195136538,20.09394039988114,0.6778386904276009,14.840750507832668
144.0,10.528649591746762,20.10719059868039,0.6784278191892427,14.872028400289924
145.0,10.65593235256391,20.13016316829396,0.6790179051691506,14.903480862727081
146.0,10.775282075963476,20.162827118789117,0.6796087716514841,14.935100011924211
147.0,10.885570071747578,20.20506687967624,0.6802002424757297,14.966877864714188
148.0,10.985790513203147,20.256689075610446,0.6807921420544074,14.998806345298263
149.0,11.075088596527708,20.317420056295575,0.6813842954634872,15.03087728118596
150.0,11.152771341376875,20.386903723772072,0.6819765285305308,15.063082398960846
151.0,11.218289612091779,20.464715495718163,0.6825686677644908,15.095413338975352
152.0,11.271296533852533,20.55035505149604,0.6831605405663903,15.127861641584868
153.0,11.311590738571025,20.64325703449371,0.6837519751443759,15.16041875622934
154.0,11.339196704104063,20.74279316989924,0.684342800733662,15.193076036589206
155.0,11.354249912643285,20.848287993935656,0.6849328473226,15.225824757034076
156.0,11.3571232328719,20.959009759586593,0.685521946208003,15.258656083380878
157.0,11.348290501441053,21.074198779834706,0.6861099294195647,15.291561114743152
158.0,11.32841241052795,21.193059681083014,0.6866966303208822,15.32453084703845
159.0,11.298268787108167,21.31478103343292,0.6872818833089577,15.357556196848993
160.0,11.258766665857179,21.438541068628602,0.6878655240038939,15.390627996433986
161.0,11.210914748757588,21.563520419256218,0.688447389279021,15.423736991593808
162.0,11.1558030502398,21.688910267875947,0.6890273171961673,15.456873852378973
163.0,11.09458840436634,21.81392458224707,0.6896051472165446,15.490029164381102
164.0,11.028471798870886,21.937810204561554,0.690180720133309,15.523193435598518
165.0,10.958679522490822,22.05985193966247,0.690753878044199,15.556357102359371
166.0,10.88644158324974,22.179387864266918,0.6913244645814743,15.589510521209363
167.0,10.81297916076886,22.29581244584933,0.6918923247797799,15.622643978647645
168.0,10.739485632312839,22.40858044297098,0.6924573051034639,15.655747693906518
169.0,10.667105654435298,22.517221237543072,0.6930192536599961,15.68881181289931
170.0,10.596933728772097,22.621334170897306,0.6935780200214019,15.721826419228435
171.0,10.529994524962738,22.720591948970984,0.6941334553170938,15.75478153422206
172.0,10.467229996525795,22.814750467675886,0.6946854123972771,15.787667114028661
173.0,10.40950581890873,22.903637566140656,0.695233745637519,15.820473060276061
174.0,10.357590625515435,22.9871577393898,0.6957783110942477,15.853189218337086
175.0,10.312156539542041,23.06529305986529,0.6963189665921312,15.885805377951469
176.0,10.27378778001778,23.138090953023365,0.6968555715331686,15.918311282460373
177.0,10.242956150473427,23.20566870830651,0.6973879871475807,15.950696625606115
178.0,10.220043969874515,23.26820592502168,0.6979160764344875,15.982951056485211
179.0,10.20533445623624,23.32593331578711,0.6984397039907462,16.01506418711189
180.0,10.199010710789373,23.379140341377948,0.6989587365115827,16.047025585474433
181.0,10.201164368861802,23.428152781716104,0.6994730421503531,16.078824791742793
182.0,10.211812590068341,23.47333796242367,0.6999824910222497,16.11045131233937
183.0,10.23083679801282,23.51510203502703,0.7004869556143134,16.14189462038551
184.0,10.258098229465258,23.553861990961977,0.7009863091134706,16.17314417916185
185.0,10.293341135638558,23.59006750911412,0.7014804276938496,16.20418941976562
186.0,10.336255124590126,23.624176186735703,0.7019691886343608,16.235019764225807
187.0,10.386452223972963,23.65665566094609,0.7024524715792708,16.265624620045077
188.0,10.44348052221826,23.68797712599261,0.7029301578945735,16.295993387677317
189.0,10.506834419293321,23.718609338074494,0.7034021307611275,16.326115464734205
190.0,10.575950792857526,23.749015535665972,0.7038682753862007,16.35598024904376
191.0,10.650216188667818,23.77964739015911,0.704328478911574,16.385577144913913
192.0,10.728978823041581,23.810944034850838,0.7047826302608524,16.414895565202347
193.0,10.811542567034243,23.84332357683995,0.7052306205226851,16.443924940272314
194.0,10.897186628476875,23.877187030290667,0.705672342386969,16.472654716072675
195.0,10.985158365056789,23.912905515560528,0.7061076908739768,16.50107436890093
196.0,11.074689273519967,23.950829757428604,0.7065365624848218,16.52917339730301
197.0,11.1649978165507,23.991273363214017,0.7069588561289061,16.55694134356167
198.0,11.255292372536786,24.03452598997565,0.7073744721750592,16.584367780146135
199.0,11.344789438182286,24.080836070120036,0.7077833133612956,16.61144233526922
200.0,11.432702700689898,24.13042295651817,0.7081852839696215,16.63815467822977
201.0,11.518273024935407,24.183464025622953,0.7085802905133399,16.664494543427892
202.0,11.600748970568434,24.24010224932737,0.7089682412090529,16.690451720972383
203.0,11.679421516081643,24.300439528358794,0.7093490463057317,16.71601607242689
204.0,11.753604670469576,24.364537986699695,0.709722617950604,16.741177533321068
205.0,11.82266372130561,24.432421726567416,0.710088870102857,16.765926114401807
206.0,11.886006487073143,24.504070420709965,0.710447718811891,16.790251921409393
207.0,11.94309513571301,24.57942967924365,0.7107990817360783,16.8141451376832
208.0,11.993455253842539,24.658398069518938,0.7111428787752339,16.83759606365028
209.0,12.036664083269299,24.740844493620504,0.7114790312634459,16.860595078564774
210.0,12.072384999783226,24.826589387120382,0.7118074629466977,16.883132705571416
211.0,12.100327073854125,24.91542978879233,0.712128098771275,16.905199541694405
212.0,12.120299091134216,25.007114601192477,0.7124408662963282,16.926786359507595
213.0,12.132157831321901,25.10137422768096,0.7127456940983085,16.947884002058927
214.0,12.13584475984942,25.197900625537926,0.713042513214656,16.968483493156725
215.0,12.131400868125215,25.29635502637358,0.7133312566931388,16.98857602254712
216.0,12.118882597399248,25.396391363380427,0.7136118581586702,17.008152819815212
217.0,12.098463913398577,25.497627216362947,0.7138842545110463,17.02720539570825
218.0,12.07037410807711,25.599667721823568,0.714148383879301,17.04572538321558
219.0,12.034879814917462,25.702110525058252,0.7144041855490009,17.063704514653946
220.0,11.992337222906178,25.804537486135054,0.7146516016614101,17.081134806024426
221.0,11.943130333690375,25.906528148153328,0.7148905751877218,17.098008359887793
222.0,11.887707638900737,26.007661107330104,0.715121051622564,17.114317547251737
223.0,11.826541187972847,26.107515876747907,0.7153429775848865,17.130054869079373
224.0,11.760149627865369,26.205681731894707,0.7155563018568047,17.14521306893057
225.0,11.689064456697059,26.301756514713933,0.7157609747575026,17.159785083734707
226.0,11.613849262407687,26.395352916873495,0.7159569482784175,17.173764046653407
227.0,11.535065127177473,26.486104454512724,0.7161441764201684,17.18714335940687
228.0,11.45329095490693,26.5736603403748,0.7163226144320933,17.199916579239943
229.0,11.369094443139138,26.657700269595342,0.7164922197268392,17.21207756275228
230.0,11.283046474898457,26.73792534623319,0.7166529510558338,17.22362034806123
231.0,11.195690360360496,26.814070271930337,0.7168047691513758,17.23453926463696
232.0,11.10756574208172,26.885896494512124,0.7169476361948329,17.244828847180436
233.0,11.01917135508464,26.953201571180777,0.7170815162459904,17.254483921699805
234.0,10.930995466660363,27.01581274024254,0.7172063749077724,17.263499542544665
235.0,10.843476475288725,27.073593631919373,0.7173221795549439,17.27187105186936
236.0,10.757034660668177,27.126440326270657,0.7174288992080838,17.279594045137383
237.0,10.672037404063817,27.174282448379554,0.7175265045437539,17.28666439728478
238.0,10.588827520695995,27.21708355273805,0.7176149680071362,17.29307826461811
239.0,10.507689215044243,27.25483806153796,0.7176942636320724,17.298832083145154
240.0,10.428887442385504,27.28757063749906,0.7177643671753176,17.303922565040672
241.0,10.352615610347607,27.3153379728257,0.7178252562179025,17.308346754865852
242.0,10.279064138372622,27.33821629246152,0.7178769096040852,17.312101893763526
243.0,10.208339339979188,27.356319020731902,0.7179193087218791,17.315185686285655
244.0,10.14054063869811,27.369767213959783,0.7179524354707708,17.317595920483086
245.0,10.075729520812175,27.37871381168124,0.717976274523986,17.319330853758334
246.0,10.013884544964103,27.383330108505472,0.7179908124277405,17.32038911524296
247.0,9.954991121870195,27.383790434084936,0.7179960359911387,17.32076936774901
248.0,9.899015580897549,27.380292269115618,0.7179919350396086,17.32047077166743
