Time,J,A,S,tau
0.0,100.0,100.0,0.7106610159482583,37.03703703703704
1.0,99.77618513775734,36.78883857484318,0.7090766310791109,38.03606880429075
2.0,99.55597892761925,13.53373290000739,0.7075175852191405,39.03520632534553
3.0,99.33926731519853,4.978748819702749,0.7059828270694319,40.034420433582184
4.0,99.12589547729232,1.8315784729735078,0.7044713207485185,41.03370223446151
5.0,98.91571334532595,0.6738101675531055,0.7029820559109383,42.033043955114394
6.0,98.70857537706163,0.2478942033516567,0.7015140474129374,43.03243876977299
7.0,98.50433932740596,0.09120964422741777,0.7000664902192227,44.03185658528617
8.0,98.30286732501686,0.03356921229384046,0.6986385608286352,45.03127440079936
9.0,98.10402633628654,0.012364683398845925,0.6972293140967828,46.030692216312566
10.0,97.90768700521869,0.004564027948942015,0.6958378309951154,47.03011003182577
11.0,97.71372346919577,0.001694328118204878,0.6944632173022969,48.029527847338976
12.0,97.52201318096802,0.0006386053912946684,0.6931046023397452,49.02894566285218
13.0,97.33243673656433,0.0002502011249337051,0.691761137749225,50.02836347836539
14.0,97.14487770883865,0.0001072875573806523,0.6904319963104477,51.02778129387858
15.0,96.95922248637432,5.468405393885296e-05,0.6891163707967146,52.02719910939177
16.0,96.77536011748249,3.530366897306728e-05,0.6878134728667248,53.026616924904964
17.0,96.59318215904115,2.814552299975403e-05,0.6865225319907492,54.02603474041816
18.0,96.4125825299219,2.548386875413794e-05,0.6852427944093783,55.02545255593136
19.0,96.23345736876907,2.4476597543932524e-05,0.6839735221231662,56.02487037144456
20.0,96.05570489594061,2.407813708720147e-05,0.6827139919118219,57.02428818695775
21.0,95.87922527925927,2.3903915486502353e-05,0.6814634943804483,58.02370600247094
22.0,95.7039205037489,2.3812291896088096e-05,0.6802213330340722,59.023123817984136
23.0,95.52969424115173,2.375125176978685e-05,0.6789868233506259,60.022541633497326
24.0,95.35645173604594,2.3701610477645705e-05,0.67775929197175,61.02195944901052
25.0,95.18409967684423,2.365637216411408e-05,0.6765380757862841,62.02137726452371
26.0,95.01254603544307,2.361302560787358e-05,0.6753225207914098,63.020795080036905
27.0,94.84170015233613,2.3570377456508404e-05,0.6741119826952441,64.0202128955501
28.0,94.6714721812835,2.352827288795073e-05,0.6729058229760195,65.0196307110633
29.0,94.50177368251373,2.3486233097155105e-05,0.6717034130882159,66.01904852657648
30.0,94.33251659567703,2.344408827475353e-05,0.6705041271781368,67.01846634208968
31.0,94.16361397851041,2.3401894918935196e-05,0.6693073473186868,68.01788415760288
32.0,93.99497982244543,2.3359936608534875e-05,0.6681124621988367,69.01730197311608
33.0,93.82652814940711,2.331848557712635e-05,0.666918860723614,70.01671978862927
34.0,93.6581735586499,2.3277277578425646e-05,0.665725935886624,71.01613760414246
35.0,93.4898312742883,2.3235736656125982e-05,0.664533085101028,72.01555541965564
36.0,93.32141661927336,2.319372596533515e-05,0.6633397064779645,73.01497323516884
37.0,93.15284519096704,2.3151769596615018e-05,0.6621452000572201,74.01439105068204
38.0,92.98403263633493,2.3110277967202296e-05,0.6609489662228832,75.01380886619523
39.0,92.81489464695031,2.306896638754832e-05,0.6597504056642599,76.01322668170843
40.0,92.64534673046896,2.302727838910738e-05,0.6585489177421909,77.01264449722161
41.0,92.47530436551388,2.2984901943146125e-05,0.6573439016073733,78.01206231273481
42.0,92.30468264573526,2.2942357333273927e-05,0.6561347536534338,79.01148012824801
43.0,92.13339627247939,2.2900256927531873e-05,0.6549208674724876,80.01089794376121
44.0,91.96135978407737,2.285849425413015e-05,0.6537016354906198,81.01031575927439
45.0,91.78848675510321,2.281628860618846e-05,0.6524764432592032,82.00973357478759
46.0,91.61469051252539,2.2773070076912247e-05,0.6512446745642414,83.00915139030079
47.0,91.43988363418505,2.2729356660551924e-05,0.650005707850096,84.00856920581398
48.0,91.26397757438525,2.268601194790043e-05,0.6487589135558638,85.00798702132718
49.0,91.0868835740061,2.2643275819172023e-05,0.6475036605989578,86.00740483684037
50.0,90.90851128111183,2.2600101534093044e-05,0.6462393065497724,87.00682265235356
51.0,90.7287695755362,2.2555618685226426e-05,0.6449652035080066,88.00624046786676
52.0,90.54756649755093,2.2510436106733143e-05,0.6436806975926009,89.00565828337996
53.0,90.36480840147608,2.246554998481565e-05,0.6423851229172076,90.00507609889314
54.0,90.18040094560402,2.2420684885184846e-05,0.6410778086386567,91.00449391440634
55.0,89.99424783247771,2.2375139930809234e-05,0.6397580699890435,92.00391172991954
56.0,89.80625131091723,2.2762058318099922e-05,0.638425300434207,93.00331516524972
57.0,89.61631111455713,2.4119787628460744e-05,0.6370790088872876,94.00266802482565
58.0,89.42432652598387,2.6008889628436255e-05,0.635718525633083,95.00196239887126
59.0,89.23019521085966,2.827244100113189e-05,0.6343431668891457,96.00119071938063
60.0,89.03381309442835,3.087628876657451e-05,0.632952242670826,97.00034432966511
61.0,88.83507428581923,3.383700717289182e-05,0.63154505722709,97.9994133096507
62.0,88.63387100357986,3.7194500581742876e-05,0.6301209096461016,98.99838627170081
63.0,88.43009350167232,4.1003173187217666e-05,0.6286790946566336,99.99725012110636
64.0,88.22362999728428,4.5327745770177304e-05,0.6272189036616582,100.99598977613549
65.0,88.01436659748947,5.024469706119995e-05,0.6257396260383988,101.99458783739703
66.0,87.80218722802955,5.5844485046658453e-05,0.6242405507550202,102.99302420120533
67.0,87.58697356266246,6.223167397782518e-05,0.622720968356801,103.99127560485859
68.0,87.36860495077514,6.952818644487385e-05,0.6211801733892562,104.98931508806378
69.0,87.1469583478452,7.787738684892426e-05,0.6196174673269922,105.98711136305488
70.0,86.92190824534835,8.744581843385323e-05,0.6180321620970624,106.98462807189102
71.0,86.69332659805109,9.842753802503178e-05,0.6164235843151379,107.98182290548324
72.0,86.46108275296433,0.0001110515270102523,0.6147910803306265,108.97864657073265
73.0,86.22504337710144,0.0001255850398666251,0.613134022226925,109.97504157337427
74.0,85.98507238040699,0.00014234105435146765,0.6114518149772692,110.97094077265913
75.0,85.74103084038907,0.0001616841336949017,0.6097439048637506,111.96626569352321
76.0,85.4927769183757,0.000184044700537487,0.6080097894884094,112.96092451892481
77.0,85.2401657749926,0.00020992489384541205,0.6062490295071595,113.954809743336
78.0,84.98304947726615,0.00023991595184063403,0.6044612624569805,114.94779540343083
79.0,84.72127689811859,0.00027470997299649933,0.6026462189903953,115.93973382131627
80.0,84.45469360857282,0.0003151144035791861,0.6008037417786022,116.93045180390777
81.0,84.18314175671766,0.0003620785932477519,0.5989338075859447,117.91974618635001
82.0,83.90645993332723,0.0004167113902389846,0.5970365529241716,118.9073786295992
83.0,83.62448302437492,0.00048030194683551264,0.5951123035585846,119.89306960691245
84.0,83.33704204381574,0.0005543589409458083,0.5931616084899909,120.87649143444014
85.0,83.0439639468658,0.000640634391178422,0.591185278792179,121.85726025161205
86.0,82.74520554041311,0.0011696784812821068,0.589184431410967,122.83492690812753
87.0,82.44071073651271,0.0020634235137283945,0.5871605382119991,123.80896667022009
88.0,82.1302950230005,0.0030896492247402692,0.585115480583166,124.77876764744381
89.0,81.81382714770241,0.004269916766902245,0.583051608579522,125.74361811398204
90.0,81.49118355456973,0.005629072798878561,0.5809718043230834,126.70269273517516
91.0,81.16225077507008,0.0071956314800371915,0.5788795479324413,127.65503800727522
92.0,80.82692831890759,0.0090021514187872,0.5767789835126621,128.59955737076876
93.0,80.48513215215662,0.011085590667540422,0.5746749826041886,129.53499647858993
94.0,80.13679885277608,0.013487602719081575,0.5725731993851685,130.4599297653384
95.0,79.78189051450923,0.0162547446956477,0.5704801129968837,131.372749238278
96.0,79.42040047903144,0.01943854195455881,0.5684030483099586,132.27165730216058
97.0,79.05235998414028,0.023095367273044863,0.5663501684636124,133.15466500721587
98.0,78.67784566575828,0.02728606661567901,0.5643304281349936,134.01959812763803
99.0,78.29698794743044,0.032075281053999614,0.5623534795384115,134.86411286179194
100.0,77.90998018796691,0.037530422260542276,0.5604295238436471,135.6857228544077
101.0,77.51708835656193,0.0437202680795358,0.5585691022703384,136.48183905393628
102.0,77.11866096923227,0.050713190857768334,0.5567828279541958,137.2498224043738
103.0,76.71513887174893,0.05857505870497094,0.5550810643074744,137.98704857781496
104.0,76.30706410145275,0.06736692851838057,0.5534735669854757,138.69098147240095
105.0,75.89508807529246,0.07714260844177341,0.5519691019691214,139.35925280143044
106.0,75.47997693102381,0.08794641298288264,0.5505750881082813,139.9897384003558
107.0,75.06261582133662,0.09981108477220572,0.5492972618641312,140.58063071613776
108.0,74.64400926891366,0.11275630434527005,0.5481394277963415,141.13049487308058
109.0,74.22528014400437,0.12678776422766463,0.5471032957297008,141.6383073016441
110.0,73.80765923420216,0.14189706052857637,0.5461884285847162,142.1034710845293
111.0,73.39248515554657,0.1580621013257849,0.5453922973612648,142.525809808006
112.0,72.98118877763045,0.17524845249307805,0.5447104544688144,142.9055354105483
113.0,72.57528163160495,0.1934110153805778,0.5441367720198356,143.24320194185725
114.0,72.1763420555308,0.21249601290258924,0.5436637277025063,143.53964849627198
115.0,71.78600263432863,0.2324431518150396,0.5432827250206747,143.79593433680094
116.0,71.40593397791713,0.2531878410773087,0.5429844207415238,144.01327156614224
117.0,71.03783092898944,0.2746631924444782,0.5427590261241783,144.1929627919789
118.0,70.68339879363126,0.29680177963688803,0.5425965739344674,144.33634549422158
119.0,70.34434015508987,0.3195370907603888,0.5424871412795768,144.44474535460006
120.0,70.0223424275283,0.3428046574312805,0.5424210254786849,144.51943927273845
121.0,69.71906630055523,0.36654286224838567,0.5423888730457841,144.56162816478337
122.0,69.43613395299013,0.3906935218081329,0.5423817740311,144.57241700129055
123.0,69.17511931819217,0.4152021313349124,0.5423913086565914,144.55280499624945
124.0,68.9375377159618,0.44001800305622574,0.5424095763047146,144.50367952679943
125.0,68.72483677509992,0.46509420769626875,0.5424291939950701,144.42581660831874
126.0,68.53838398764465,0.49038756800048267,0.5424433032280803,144.31987962284555
127.0,68.37946140755503,0.5158582417598426,0.5424455190825516,144.1864305134195
128.0,68.24925862179705,0.5414694729427662,0.542429898708302,144.02593684437198
129.0,68.14885639544414,0.5671875607826802,0.5423909399114278,143.83877260322012
130.0,68.07922295958235,0.5929812997827202,0.5423235136618638,143.62523328578325
131.0,68.0412176153537,0.6188216699834325,0.5422228145958091,143.3855468001977
132.0,68.03555183873276,0.6446819391842783,0.5420843919956538,143.11986845026578
133.0,68.06283264385566,0.6705367581550579,0.5419040140352718,142.8283094556826
134.0,68.12349201941286,0.6963627089239942,0.5416777617116068,142.51091999522842
135.0,68.21785613989675,0.7221372663246496,0.5414018737284784,142.16772062474718
136.0,68.34606262753573,0.7478393572102743,0.5410728446623462,141.79868599865446
137.0,68.50813674350421,0.7734485147686999,0.5406872940770112,141.40376990186857
138.0,68.70389717448171,0.7989453766848262,0.5402420619715459,140.98289216405297
139.0,68.93306040913674,0.8243109635538513,0.5397340810028206,140.53595995963167
140.0,69.1951431538299,0.849526922440638,0.5391604532630216,140.06285994984935
141.0,69.47655416775518,0.8824426499801761,0.6838737961214469,40.56559239608132
142.0,69.78990381089997,0.9725392549874735,0.6938042593286444,36.22056529821259
143.0,70.21374176787752,1.1009030837832783,0.6978374898890042,33.77588817919467
144.0,70.7955999351753,1.2667991351546084,0.6994538722753332,32.058587892832605
145.0,71.57528077005236,1.4714503771727088,0.6997652944430565,30.72225469966437
146.0,72.58519978910441,1.716557098336127,0.6992769305238786,29.61775788097933
147.0,73.84846931781243,2.0038545047675775,0.6982624030907718,28.6677854257917
148.0,75.3764580307812,2.3349162513034387,0.6968864298986224,27.82754031481146
149.0,77.16658204315893,2.711042933797444,0.6952554297786184,27.06904726979147
150.0,79.20072375924423,3.1332004277103853,0.6934416893675147,26.373870799603992
151.0,81.44468652325027,3.601974328340182,0.6914960970482606,25.7293692552544
152.0,83.84874993683339,4.117551869538517,0.6894554722004153,25.12659622417257
153.0,86.34966492307004,4.679711123549934,0.6873470624433693,24.559042306540395
154.0,88.87375101479996,5.287824769817085,0.6851913996550708,24.021857957367043
155.0,91.34084623471017,5.940869052441845,0.6830041668306015,23.511357726045723
156.0,93.66891369690073,6.637444148537232,0.6807974981305369,23.024685795503427
157.0,95.77869558173332,7.375799624071801,0.6785809086412561,22.55958293308899
158.0,97.5980173725951,8.153860365513339,0.6763619312527664,22.114231002548305
159.0,99.06541899962704,8.969260466430294,0.6741465947434289,21.687140508859084
160.0,100.13267199995686,9.81937814919712,0.6719397785319212,21.27706903739468
161.0,100.76633858032642,10.70131532387708,0.6697454702189305,20.88296404019769
162.0,100.94178104889245,11.618712462464124,0.66756696405967,20.503919479310913
163.0,100.5311163626693,12.67307492611312,0.6654070110636584,20.139143926875363
164.0,99.41340087207806,13.94150142862607,0.6632679336064248,19.787937542043352
165.0,97.4915217932416,15.479314076438142,0.6611517136461609,19.449674017776918
166.0,94.70918999383589,17.322033154637992,0.6590600612380649,19.123787009160484
167.0,91.07108209180127,19.48105307422173,0.6569944674156006,18.80975993133462
168.0,86.65093685887994,21.94027949828414,0.6549562464207659,18.507117796424687
169.0,81.58306438680434,24.65521053266976,0.6529465675258188,18.215421063517596
170.0,76.0404224002872,27.555518944714297,0.6509664810384205,17.93426069005341
171.0,70.20942665243321,30.550884371357114,0.649016938701784,17.663254290028156
172.0,64.26978454435557,33.53939128512974,0.6470988097507321,17.40204298928772
173.0,58.38214783114445,36.41714093523319,0.6452128937364389,17.150288891946342
174.0,52.68190423168992,39.0875903964539,0.6433599307667744,16.9076730028099
175.0,47.276511186248975,41.46927965085308,0.6415406096858761,16.673893500234872
176.0,42.24481242094743,43.5010469109091,0.6397555746956953,16.44866429641095
177.0,37.637841758304916,45.144417922551675,0.6380054305879159,16.23171382564117
178.0,33.48073717875855,46.38365651406696,0.6362907471135472,16.022783944463622
179.0,29.79438959608604,47.20525481827519,0.6346120624759953,15.821629120685955
180.0,26.61632041974987,47.57794416014395,0.6329698859196075,15.628015497011313
181.0,23.974709534020608,47.47911607554836,0.6313647000150567,15.44172029149427
182.0,21.862435336774784,46.92085168139916,0.6297969629127346,15.262531146787111
183.0,20.22436497821246,45.962524129242134,0.6282671092529799,15.09024552034517
184.0,18.966981017692124,44.70103163465214,0.6267755517464423,14.924670209202537
185.0,17.98480920303025,43.244375723498955,0.6253226821103429,14.765620882676204
186.0,17.186072654399993,41.686184948478015,0.6239088718805501,14.612921643235826
187.0,16.505016507341203,40.09366699242842,0.6225344730516813,14.466404631256697
188.0,15.901226514837727,38.508573678345726,0.6211998186189897,14.325909664432048
189.0,15.352877658087403,36.95418445217628,0.619905223039753,14.19128388577654
190.0,14.84981584972722,35.442395457401034,0.6186509825484756,14.06238146923453
191.0,14.388569216850524,33.978809894470075,0.6174373755165581,13.939063260853107
192.0,13.969524076172997,32.56568250523569,0.6162646626704646,13.821196654663476
193.0,13.595213119492742,31.20361193773082,0.6151330872360659,13.70865513804475
194.0,13.269508576731338,29.89239369280286,0.6140428750556836,13.601318166919599
195.0,12.997129813466636,28.631478608004016,0.6129942348748709,13.49907086445895
196.0,12.783365680418742,27.420208081883512,0.6119873582430684,13.401803863341403
197.0,12.633846809053193,26.25796072296341,0.6110224197199028,13.30941306719701
198.0,12.55433262275779,25.144241268062128,0.6100995769042199,13.221799460246855
199.0,12.550494777958855,24.07873529146375,0.6092189704834899,13.13886892192375
200.0,12.62767742257152,23.061345961241148,0.608380724272839,13.060532051174727
201.0,12.790619971473767,22.09222784642851,0.6075849452459345,12.986703999817463
202.0,13.043139496600642,21.1718230248442,0.6068317235596046,12.917304314378985
203.0,13.38776528590951,20.30089262087812,0.6061211326492335,12.852256779768497
204.0,13.825386256332669,19.480542932244706,0.6054532293237583,12.791489261698178
205.0,14.354945001910487,18.712273251695354,0.60482805274131,12.73493371155132
206.0,14.973034734474636,17.99791809716499,0.6042456262867487,12.6825257519172
207.0,15.673541955433496,17.339663423250258,0.6037059562945659,12.63420480421047
208.0,16.447518664908635,16.740005629828755,0.6032090323181585,12.589913884109107
209.0,17.2830608102598,16.20168831501641,0.6027548272704129,12.54959947782264
210.0,18.165299333565667,15.727619953792717,0.602343297380074,12.513211456417965
211.0,19.076596533401865,15.320769145625249,0.6019743821284608,12.480702976769019
212.0,19.996894194279,14.984033939586649,0.601648004340957,12.452030372121143
213.0,20.904197304952245,14.720090279179932,0.6013640702550259,12.427153058821142
214.0,21.775205046043794,14.531219954284305,0.6011224694997062,12.406033461482208
215.0,22.58612886571998,14.419127445431872,0.600923075066811,12.388636923747605
216.0,23.313549881129088,14.384748134899754,0.6007657434405635,12.374931618539263
217.0,23.935335356249023,14.428054400679382,0.6006503146543165,12.364888476814587
218.0,24.431646349975537,14.547866193337393,0.6005766122188065,12.358481122480391
219.0,24.785876574511054,14.741699737520445,0.6005444432327621,12.355685788844253
220.0,24.98548083388974,15.005647341182788,0.600553598521114,12.356481250330235
221.0,25.0227267587987,15.334303137010433,0.6006038525882504,12.36084876560297
222.0,24.89519714816169,15.720760284428493,0.6006949636544973,12.368772009102452
223.0,24.605963978919007,16.15667814965682,0.6008266738330015,12.380237010722917
224.0,24.163488996041824,16.63242286953302,0.6009987091481401,12.39523209814136
225.0,23.581170445035248,17.137282147118455,0.6012107796548526,12.413747835115
226.0,22.876614799601594,17.65973883107051,0.6014625795643999,12.435776974160207
227.0,22.070691221940685,18.187797761129556,0.6017537873113711,12.46131439383948
228.0,21.18646595299051,18.709346191518083,0.6020840656281408,12.490357056760077
229.0,20.248090442559562,19.212537526872627,0.602453061714296,12.522903953082634
230.0,19.279759428617872,19.68617648904725,0.6028604074022674,12.55895604928643
231.0,18.304763195883464,20.120099265794195,0.6033057191617456,12.598516246313041
232.0,17.34472760200335,20.505514809460912,0.6037885984225841,12.641589323229415
233.0,16.41898777955129,20.83531246062752,0.6043086315572289,12.688181901497535
234.0,15.544204623463996,21.10427329787267,0.6048653902184193,12.738302386597923
235.0,14.734109454930197,21.30921739184072,0.6054584313569547,12.79196093637912
236.0,13.999490634169824,21.44900838017283,0.6060872975716554,12.849169401764177
237.0,13.348279349704413,21.52447985260812,0.6067515171707837,12.909941296046249
238.0,12.785804918245903,21.53823120788744,0.6074506044346379,12.97429174177064
239.0,12.315133715703746,21.494353359351724,0.608184059835535,13.042237429038503
240.0,11.937452476501218,21.39810207825652,0.6089513702074872,13.113796574993229
241.0,11.652485403909415,21.255547379143135,0.6097520090915219,13.18898887284698
242.0,11.458865694738957,21.07324454880099,0.6105854369366649,13.267835453869264
243.0,11.354463044066254,20.857936238139395,0.6114511013585316,13.35035884166572
244.0,11.336647404416583,20.61630764498353,0.612348437408376,13.43658290803783
245.0,11.402483029931014,20.35479959891167,0.6132768678512124,13.526532828624115
