Time,J,A,S,tau
0.0,100.0,100.0,0.7552382865523293,26.352308690091764
1.0,98.61635096544592,96.18582515015933,0.7532367627535864,26.292675818126966
2.0,97.23953024603686,92.50628166207271,0.7511672197200194,26.23111425962475
3.0,95.87100662562914,88.96001239521416,0.7490327051335409,26.16771062098276
4.0,94.51100099308671,85.54251260880068,0.7468338943736113,26.1024814573083
5.0,93.15973336885187,82.24952494865978,0.7445715183997762,26.03544400331082
6.0,91.8174204099704,79.0767947372573,0.7422463578348838,25.96661607671258
7.0,90.48427808736268,76.02030035694206,0.7398592427382849,25.896016103637265
8.0,89.16051942054911,73.07606725840446,0.7374110587057487,25.82366317170671
9.0,87.84635693209302,70.24027958373206,0.7349027335052597,25.749576887401226
10.0,86.542003317536,67.50924433451027,0.7323352534213332,25.67377757171364
11.0,85.2476722407754,64.879336550489,0.7297096438445108,25.596286024107354
12.0,83.9635853484526,62.34712045495154,0.7270269857645886,25.517123744315136
13.0,82.68997289799482,59.909174817253756,0.7242884011922691,25.436312737733655
14.0,81.42708707742108,57.562278821705384,0.7214950602199359,25.353875634584345
15.0,80.1752126445688,55.30322930108517,0.718648178135712,25.269835638758984
16.0,78.93467875823809,53.1289864909499,0.7157490097168927,25.18421648288189
17.0,77.70590233910742,51.036572344172626,0.7127988577854976,25.097042537691
18.0,76.48938182457871,49.02310304872515,0.7097990583189135,25.008338629170225
19.0,75.28580160477799,47.08581937655358,0.7067509940674144,24.918130241652637
20.0,74.09600390010203,45.221993788747845,0.703656078807753,24.826443299041742
21.0,72.92114636101272,43.42905629049383,0.7005157670951689,24.733304337224524
22.0,71.76270213204843,41.70444705390297,0.6973315454981657,24.63874037155602
23.0,70.62259606278174,40.04575478439681,0.694104933235803,24.542778942637128
24.0,69.50333938486754,38.45059553480331,0.6908374826831218,24.445448129079935
25.0,68.40807957938647,36.916716568004865,0.6887457634915672,24.38648869854969
26.0,67.34074239039496,35.44187559531269,0.687328770007378,24.349628697638373
27.0,66.30617863157377,34.02392841359932,0.6859302957451615,24.313430692978443
28.0,65.31036455095396,32.66082501364773,0.6845509810669129,24.27790218078385
29.0,64.3604395104339,31.350561160970976,0.6831914593117429,24.243050435059992
30.0,63.464793508109814,30.091205597607225,0.6818523567265595,24.208882517449993
31.0,62.63324675622204,28.880891596061765,0.6805342914268097,24.175405264123647
32.0,61.8770868925753,27.717815977823836,0.6792378730826448,24.14262529296464
33.0,61.209075740451446,26.600236723760567,0.6779637025395007,24.110549007739554
34.0,60.64344633218254,25.52647490422815,0.6767123714433866,24.079182601169798
35.0,60.19585607951243,24.49491042604201,0.6754844615606158,24.048532052259315
36.0,59.883292657605736,23.503987129843512,0.6742805444611939,24.01860313087472
37.0,59.72391769438063,22.552213860668125,0.6731011810581061,23.989401399232364
38.0,59.736860258594554,21.63816882648121,0.6719469211794885,23.960932213859092
39.0,59.94195632089248,20.760506799529846,0.6708183031654149,23.933200727798102
40.0,60.35944305402173,19.9179704705803,0.6697158534660236,23.906211892623016
41.0,61.0096010438902,19.10940630880806,0.6686400862519916,23.879970460477107
42.0,61.912346380017844,18.333786163976537,0.6675915030369071,23.854480986114943
43.0,63.08677132084344,17.59023563078643,0.6665705923118689,23.829747828942953
44.0,64.55063047849538,16.87807004082856,0.6655778291926077,23.805775155055766
45.0,66.31976760774882,16.19683868140378,0.6646136750794014,23.78256693926516
46.0,68.4074767159926,15.546377440582225,0.6636785773312088,23.760126967133328
47.0,70.8237625554196,14.926867204875222,0.6627729689917743,23.738458837486714
48.0,73.57463684957929,14.338901923493708,0.6618972685126083,23.71756596457415
49.0,76.66116167100155,13.783584678751089,0.6610518789373906,23.6974515738215
50.0,80.07847531563769,13.262563993747872,0.6602371885439339,23.678118714902457
51.0,83.81525481689525,12.778134172088418,0.659453570112968,23.659570257534725
52.0,87.85198334444448,12.333299063447615,0.6587013806004883,23.641808892845138
53.0,92.1606006792611,11.931846504834501,0.6579809609432512,23.624837135583082
54.0,96.70343125080814,11.578378521373471,0.6572926360584599,23.60865732831574
55.0,101.43261558249327,11.278359884469609,0.6566367144163548,23.593271640788313
56.0,106.28969403607417,11.03812531923888,0.6560134879126761,23.578682072380214
57.0,111.20525593222604,10.86485750544323,0.6554232317435119,23.564890454351207
58.0,116.09923110215212,10.766552852969138,0.6548662041691972,23.551898450773017
59.0,120.88128299531336,10.751944070551444,0.6543426464305536,23.53970756081325
60.0,125.45164310914629,10.830397237000204,0.6538527826184272,23.528319120356937
61.0,129.70253516713797,11.011779951837346,0.6533968195103369,23.51773430316081
62.0,133.52068129396378,11.306301884410892,0.6529749464628475,23.507954122370933
63.0,136.79100490477938,11.724325618838447,0.6525873353698608,23.498979432461567
64.0,139.40199682742494,12.276156127086693,0.6522341405898628,23.490810930705184
65.0,141.25280381752103,12.971805579933182,0.6519154988567921,23.48344915833777
66.0,142.2617496403618,13.82074102199199,0.6516315291924079,23.476894501583143
67.0,142.374594891606,14.831609726272715,0.6513823329300107,23.47114719348413
68.0,141.57108799811556,16.011942558022472,0.6511679937006652,23.466207315230342
69.0,139.86802953347467,17.36782743067757,0.6509885774271613,23.46207479739672
70.0,137.3177047019366,18.903562267944373,0.650844132229185,23.458749420261316
71.0,134.00103596650493,20.621272178166862,0.6507346885392677,23.456230815767437
72.0,130.017490095983,22.520487163899798,0.6506602591208015,23.454518468493177
73.0,125.47372374734206,24.597707574884165,0.650620839123698,23.453611716762072
74.0,120.4735197917096,26.84592844537183,0.6506164061242516,23.453509753491478
75.0,115.11072577329729,29.25416433531104,0.6506469201344748,23.454211626622467
76.0,109.46620607816823,31.80701789758756,0.6507123237624817,23.455716240653476
77.0,103.60819005219284,34.48428924512453,0.6508125423180626,23.458022357572776
78.0,97.5948719874119,37.260655970186576,0.6509474838579522,23.461128597146374
79.0,91.47810828601746,40.10548556966792,0.6511170392950876,23.465033437572206
80.0,85.30705620154184,42.98280710764419,0.6513210825940595,23.469735216716977
81.0,79.13110152205364,45.85141921728752,0.6515594709081934,23.475232132731374
82.0,73.00191684518943,48.66513985843351,0.6518320446545509,23.481522243991154
83.0,66.9745880611516,51.37328988370182,0.6521386277231226,23.488603470011636
84.0,61.10788792835261,53.92144185932407,0.6524790276895649,23.496473592273514
85.0,55.46374572860901,56.252571798508974,0.6528530359623511,23.50513025435384
86.0,50.1057864064171,58.308866961866215,0.6532604279524508,23.514570962094805
87.0,45.09683302062428,60.03436460700646,0.653700963373597,23.52479308477736
88.0,40.49524439099544,61.37861418969371,0.6541743863278514,23.535793854278563
89.0,36.350385055219,62.30105864071861,0.6546804256743576,23.5475703666002
90.0,32.697510055420516,62.775884154064094,0.6552187951447842,23.56011958100603
91.0,29.55334549754368,62.796047076282214,0.6557891936996926,23.57343832120429
92.0,26.913029773961522,62.37584166031243,0.6563913056664176,23.587523274368195
93.0,24.74984644942766,61.55071147863656,0.6570248011041809,23.602370992196576
94.0,23.01793618441015,60.37406395156154,0.6576893360878083,23.617977891062083
95.0,21.65754993731281,58.91167560350368,0.6583845529256899,23.63434025139373
96.0,20.602055879565263,57.23450882151795,0.6591100804934567,23.651454218063073
97.0,19.785016231536204,55.411633067636316,0.6598655345371,23.669315800359914
98.0,19.146029467533364,53.50453733905793,0.6606505179785898,23.687920871867497
99.0,18.63446726457743,51.563662585018335,0.6614646212397051,23.707265170411045
100.0,18.210926270645533,49.62727539618472,0.6623074225716311,23.727344297954744
101.0,17.846796674069235,47.72223050130321,0.6631784883975363,23.748153720535996
102.0,17.52268001894325,45.86585437525791,0.6640773736338048,23.7696887678201
103.0,17.22631262037392,44.06827369222756,0.6650036220896801,23.79194463351717
104.0,16.950625939720474,42.3345617746213,0.6659567667637543,23.814916374393036
105.0,16.69211794846506,40.666526881327826,0.6669363302807564,23.83859891099837
106.0,16.44973398512268,39.06397892555573,0.6679418250876221,23.862987024886422
107.0,16.22407325978528,37.525611234612555,0.6689727541389439,23.888075362789795
108.0,16.01700094652903,36.04951743855569,0.6700286110471949,23.913858433098117
109.0,15.831437430727851,34.63350842829971,0.671108880316391,23.940330602713196
110.0,15.67120431476579,33.27528961246057,0.6722130382644199,23.96748610547557
111.0,15.541073110518553,31.972557388933584,0.6733405529481983,23.995319034153034
112.0,15.446775216767607,30.723051516967477,0.6744908847193092,24.023823342511214
113.0,15.395036268081794,29.52457739236563,0.6756634866529901,24.052992845530586
114.0,15.39361984094105,28.37501632908684,0.6768578049067873,24.0828212180653
115.0,15.451358877574606,27.27233230446613,0.6780732791579261,24.113301994964846
116.0,15.578167358128063,26.214572181433258,0.679309343011529,24.144428570616512
117.0,15.785037442106848,25.199866174762665,0.6805654244121254,24.176194198447067
118.0,16.083989513284138,24.22642483155492,0.68184094607069,24.208591990906204
119.0,16.488036643709115,23.29254224470721,0.6831353258611048,24.241614918338453
120.0,17.01108494003864,22.396595322834784,0.6844479772659947,24.27525580948208
121.0,17.667813789478174,21.537046085878917,0.6857783097806193,24.309507350726
122.0,18.47354200553098,20.712447776433272,0.6871257293221791,24.344362085211
123.0,19.444045911939693,19.92145137484672,0.6884896386668906,24.379812413271427
124.0,20.595344274773787,19.16281521148699,0.6898694378602225,24.415850592023983
125.0,21.943465552709355,18.435419643276674,0.6912645246210003,24.45246873422444
126.0,23.504175675636485,17.73828358980286,0.6926742947672049,24.48965880863775
127.0,25.292657293897708,17.07058434107827,0.6940981426240064,24.527412639948746
128.0,27.323147488045176,16.431683063748,0.6955354614240616,24.565721907756988
129.0,29.608549042001272,15.82115439979417,0.6969856437178559,24.604578146429578
130.0,32.15996598212953,15.238817429934462,0.6984480817713316,24.643972745534903
131.0,34.98618851007755,14.684773295556981,0.6999221679597304,24.68389694899406
132.0,38.09312236890215,14.159443362642442,0.7014072951554514,24.724341855280503
133.0,41.48317127109044,13.663608214562233,0.7029028571023794,24.76529841772338
134.0,45.154378281656626,13.198474162658067,0.7044082488956791,24.80675743763136
135.0,49.100316495395184,12.765669014709594,0.705922867179768,24.848709578952374
136.0,53.30843418045556,12.36731050300051,0.7074461106265645,24.891145354768916
137.0,57.75995891421514,12.006041681702964,0.7089773803056298,24.934055131678267
138.0,62.4289614960813,11.685042235599314,0.7105160799642048,24.97742913153745
139.0,67.28185622221515,11.40806322645759,0.7120616164318632,25.021257429221087
140.0,72.2769056242371,11.179434449359576,0.7136133999421371,25.06552995334155
141.0,77.36394987725075,11.004065397761767,0.7151708444615562,25.11023648641302
142.0,82.48423492165456,10.88743126376519,0.7167333680032334,25.155366665010146
143.0,87.57070407520585,10.835551036588216,0.7183003929382565,25.200909980182168
144.0,92.54841112803271,10.854948378072772,0.7198713462937458,25.246855777601397
145.0,97.3354777898524,10.952603723589803,0.7214456600690707,25.293193257308936
146.0,101.84461855973592,11.135887437346543,0.7230227714960453,25.339911474730766
147.0,105.98532208625386,11.412480807861359,0.7246021233023088,25.386999341219855
148.0,109.66694536664357,11.790284585674588,0.7261831639932232,25.4344456239765
149.0,112.80293291037839,12.277315746050744,0.7277653481098159,25.48223894659102
150.0,115.3157396692521,12.881587348464517,0.7293481364434834,25.530367790182023
151.0,117.14225200843974,13.610974807909065,0.7309309962671412,25.57882049392747
152.0,118.23917793311838,14.473067637693008,0.7325134015878763,25.62758525515297
153.0,118.58703021259072,15.475005502620899,0.7340948333244176,25.676650130778018
154.0,118.19204746330097,16.62329464475306,0.7356747795131546,25.726003038000233
155.0,117.08524952468655,17.923600696870455,0.7372527354764479,25.775631755435786
156.0,115.3186602322434,19.380521939999973,0.7388282040380084,25.825523923551753
157.0,112.95897733123716,20.99733414718823,0.7404006956566795,25.87566704621527
158.0,110.08019514192678,22.77570280110796,0.7419697285747539,25.926048491767112
159.0,106.75639954837389,24.7153832150611,0.7435348289728622,25.976655494223568
160.0,103.05615940079403,26.81389053455235,0.7450955310820052,26.027475154799788
161.0,99.03919372139195,29.066141970452414,0.7466513773047678,26.07849444321764
162.0,94.75538186937719,31.464108015781086,0.7482019183451473,26.12970019888099
163.0,90.24583833847939,33.99646532410247,0.7497467132927828,26.181079132671332
164.0,85.54520985366868,36.6482815056362,0.7512853296920139,26.232617828844713
165.0,80.68441570510463,39.400735187691936,0.7528173436236036,26.28430274663815
166.0,75.69327812482992,42.23090319408092,0.7543423397666854,26.336120222155326
167.0,70.60268721018862,45.111629153225614,0.7558599114530914,26.388056470275615
168.0,65.4461734936025,48.011493152128736,0.7573696607192154,26.440097586606257
169.0,60.260883526625136,50.89491420839137,0.7588711983275946,26.492229549770386
170.0,55.088044731640366,53.72239395180797,0.7603641437986506,26.544438223548322
171.0,49.972955935119025,56.45097331639365,0.7618481253794678,26.59670935973124
172.0,44.964594995859606,59.034906343095564,0.7633227800842995,26.649028600058813
173.0,40.11476000248522,61.42667643836401,0.7647877537165406,26.701381478554516
174.0,35.4766899527701,63.57844690026986,0.7662427007667175,26.753753425141742
175.0,31.103143693554472,65.44399526775868,0.767687284473375,26.80612976742504
176.0,27.043906657666287,66.98113265236162,0.769121176721455,26.858495734377765
177.0,23.342775992810385,68.15458180425651,0.7705440580537183,26.910836458756027
178.0,20.03436232537281,68.9389597839027,0.7719556175751461,26.96313698068489
179.0,17.141011928825158,69.32155994746932,0.7733555529165624,27.015382250689356
180.0,14.670411442658237,69.30440068686889,0.7747435701718599,27.067557132993375
181.0,12.614444936108093,68.90496693939434,0.7761193838187181,27.119646409141104
182.0,10.94967792436083,68.15536876949756,0.777482716617586,27.171634781667766
183.0,9.639465071371177,67.09988220110583,0.7788332995496362,27.22350687764964
184.0,8.63758069579238,65.79106922762145,0.780170871712969,27.275247252642426
185.0,7.892706122932281,64.28515295232073,0.7814951802202322,27.326840394662142
186.0,7.353032112249989,62.63739574284377,0.7828059800973077,27.378270728244587
187.0,6.97024046279309,60.89821024115419,0.7841030341677221,27.42952261870308
188.0,6.702327141101087,59.11051180117445,0.7853861129347611,27.48058037647922
189.0,6.515067996894812,57.3084762669385,0.7866549944641882,27.531428261594638
190.0,6.38221233389468,55.51758496555026,0.7879094642502138,27.58205048830163
191.0,6.284756464606934,53.755574180986926,0.7891493150906996,27.632431229779872
192.0,6.209683940160429,52.03388743005263,0.7903743469510565,27.682554623012642
193.0,6.148552135004388,50.359242639132816,0.7915843668171647,27.732404773807964
194.0,6.09620247677936,48.73503953375057,0.7927791885759411,27.781965761846724
195.0,6.0496955114187285,47.162510501903554,0.7939586328289215,27.83122164604856
196.0,6.007556005340469,45.6415413016312,0.7951225267913073,27.880156469825444
197.0,5.969247593618088,44.17124283123628,0.7962707040752146,27.928754266650568
198.0,5.934874559520221,42.75031186479947,0.7974030046610341,27.976999065727373
199.0,5.904989573650994,41.37724153282841,0.7985192746613697,28.024874897825782
200.0,5.880514557810382,40.05044604693219,0.7996193660950051,28.072365801053753
201.0,5.862720590056953,38.768330620997055,0.8007031367910601,28.119455826757918
202.0,5.853233805637171,37.52931914325226,0.8017704502829607,28.16612904589598
203.0,5.85406578955243,36.331878759269614,0.8028211755872383,28.212369555228122
204.0,5.867655388177135,35.17452642408108,0.8038551870664928,28.25816148382914
205.0,5.896905396808722,34.05582851797627,0.8048723642290007,28.303488999204482
206.0,5.945238426505063,32.97440485622891,0.8058725916118428,28.34833631434238
207.0,6.0166416122993756,31.928926996425655,0.8068557586032057,28.3926876943821
208.0,6.115708453394419,30.91811661709554,0.8078217592697501,28.436527463324357
209.0,6.247676718086857,29.940743591351723,0.8087704921989377,28.4798400110013
210.0,6.418462011749938,28.99562468064217,0.8097018603443905,28.52260980026444
211.0,6.634685604492834,28.081622454400804,0.8106157708705568,28.56482137437815
212.0,6.903683874581885,27.197643237407405,0.8115121349703655,28.60645936380009
213.0,7.233513824502076,26.34263580678975,0.8123908677272059,28.64750849396458
214.0,7.632949275185032,25.51559108150677,0.8132518879545014,28.687953592845965
215.0,8.111451198586547,24.715540605435724,0.814095118027111,28.72777959799406
216.0,8.679143690045978,23.94155750560705,0.814920483747225,28.766971565005015
217.0,9.346756625793146,23.192756320039962,0.8157279141723109,28.805514674451324
218.0,10.125571020757425,22.468295080502397,0.8165173414810326,28.843394240485015
219.0,11.027333131433497,21.767377001107743,0.8172887008128847,28.880595718063713
220.0,12.064170042778937,21.089254684876096,0.8180419301300962,28.917104711494545
221.0,13.248473131021724,20.433234421914534,0.8187769700701862,28.952906982065954
222.0,14.592781873193077,19.798683327306613,0.8194937638047936,28.987988456378016
223.0,16.109632900774997,19.1850372842723,0.8201922569044952,29.022335234422975
224.0,17.811409985158743,18.59181219501767,0.8208723971981737,29.055933597831388
225.0,19.7101514122903,18.0186162812621,0.8215341346432006,29.088770017822903
226.0,21.817352940794745,17.46516683643963,0.8221774211987712,29.120831164401217
227.0,24.143734506365217,16.931307415398262,0.8228022106884051,29.152103913160765
228.0,26.698976148512344,16.41702962861407,0.8234084586860277,29.182575354661846
229.0,29.491415503280113,15.92249700075471,0.8239961223963689,29.212232802813727
230.0,32.527724355762196,15.448071593542936,0.8245651605313988,29.241063802905412
231.0,35.812519651642326,14.994342210602724,0.825115533202271,29.26905614000546
232.0,39.34796971969142,14.562148767189381,0.8256472018013117,29.296197843232065
233.0,43.13336466711294,14.152636844254525,0.8261601288948218,29.32247720734212
234.0,47.16445636948256,13.767264434346163,0.8266542781517772,29.347882788052306
235.0,51.43330027100028,13.407837248437426,0.8271296141641874,29.3724034069831
236.0,55.92728456419257,13.076549018265597,0.8275861024616473,29.39602817312042
237.0,60.62887739682047,12.776009836820755,0.8280237093422188,29.41874648484777
238.0,65.51501843876875,12.509261298757904,0.8284424018164742,29.440548035325193
239.0,70.5566927628574,12.279806077442109,0.8288421475113213,29.461422823980776
240.0,75.71853323021969,12.09162042897173,0.829222914594494,29.48136116326646
241.0,80.95855902498002,11.94916436342056,0.8295846716959125,29.500353686723564
242.0,86.2279554982512,11.857378829390761,0.8299273878492347,29.518391355915178
243.0,91.47118008297271,11.821684235639783,0.8302510324118548,29.53546546928937
244.0,96.6262124063293,11.84796229629025,0.8305555750068983,29.551567668700102
245.0,101.62511977713612,11.942531169815988,0.8308409854654399,29.566689946699544
246.0,106.39500840016582,12.1121108254237,0.8311072337735853,29.580824653699633
247.0,110.85947058773813,12.363778800356238,0.8313542900243521,29.593964505588048
248.0,114.94070359823698,12.704916430967433,0.8315821243696289,29.606102590644134
249.0,118.56226563071789,13.143143120960506,0.8317907069815672,29.617232375564424
