Time,J,A,S,tau
0.0,100.0,100.0,0.8659135856348029,20.0
1.0,97.11290731031134,93.70775994570128,0.8499358640337822,19.516816039925978
2.0,94.27019409323233,87.77661910219986,0.8339436096753143,19.02768819722539
3.0,91.475637712599,82.19186718516788,0.8179645059303472,18.533082702294166
4.0,88.73146270284758,76.93602585361675,0.8020146676557589,18.033156173779854
5.0,86.0404817245794,71.99225751738874,0.7861099507471387,17.52806842712139
6.0,83.4065393799416,67.34437408913035,0.7702659037867808,17.01798239162415
7.0,80.83511710010266,62.97683076659326,0.7544977214425094,16.503064028531004
8.0,78.33409301395201,58.8747175479165,0.7388201999535946,15.983482247274585
9.0,75.91459097966047,55.02373804393782,0.7232476953630544,15.459408812888114
10.0,73.59184009985796,51.410203662643845,0.7077940850708571,14.931018253090635
11.0,71.38594646072856,48.02103452660233,0.6924727316731668,14.398487770115155
12.0,69.32226355933007,44.84370931027686,0.6772964535384012,13.86199711564048
13.0,67.43163015045145,41.86630118931105,0.6622774912455571,13.321728528839433
14.0,65.74963421400953,39.077495446951794,0.657429522072163,13.175847082997953
15.0,64.31582128925774,36.46652408557008,0.6553100995208715,13.136196938093935
16.0,63.17212104756543,34.0232996040617,0.6532731931286497,13.098367978214073
17.0,62.36056516915496,31.738500519633927,0.6513202828497187,13.062350652938578
18.0,61.92083845494264,29.603769666096333,0.6494527727057846,13.028135627993683
19.0,61.887403096995335,27.611977758090944,0.6476719903068121,12.995713790991257
20.0,62.28643448295124,25.757608345549297,0.6459791857343974,12.965076258268791
21.0,63.13275006570287,24.03723084050324,0.6443755308554966,12.93621437973004
22.0,64.42651055075518,22.44998790245081,0.642862118789465,12.90911974564798
23.0,66.15199280929549,20.99823619324099,0.641439962411231,12.883784180259717
24.0,68.27294346260463,19.687547208219765,0.6401099966136238,12.860199761856551
25.0,70.73330822404478,18.52712226003959,0.6388730755959251,12.838358814583033
26.0,73.45692845539399,17.52951178915605,0.6377299737017795,12.818253914020096
27.0,76.34948902981552,16.71010573782403,0.6366813852167468,12.799877888857193
28.0,79.3020481780964,16.08628902157767,0.6357279238042748,12.78322382310007
29.0,82.19532422988868,15.67623124038215,0.6348701234438886,12.768285056156621
30.0,84.90436408123992,15.497520812590347,0.6341084377342538,12.755055184865519
31.0,87.30241870886579,15.565639682213211,0.6334432405441095,12.743528063055638
32.0,89.26436938898867,15.892454448302436,0.6328748260744902,12.733697801134685
33.0,90.67022282534657,16.484718357328614,0.6324034090298616,12.725558766651698
34.0,91.41040676305248,17.34275554287493,0.6320291252649961,12.719105582307145
35.0,91.39389979550675,18.459283076045317,0.6317520318375668,12.714333125334623
36.0,90.55836606751707,19.81847949918597,0.6315721076173412,12.711236525886275
37.0,88.88015379276176,21.395509019477,0.6314892535859143,12.709811164506167
38.0,86.3803586408368,23.156543105756686,0.6315032936092222,12.710052670350953
39.0,83.1249828676364,25.05948992915706,0.6316139748473398,12.711956918456837
40.0,79.21827497863512,27.055446469236934,0.6318209682566698,12.715520026781846
41.0,74.79113567800252,29.09070898452566,0.6321238693595397,12.720738352708617
42.0,69.9880796409716,31.10890740041091,0.6325221988903842,12.727608489331088
43.0,64.95577142906052,33.05280478392476,0.6330154033951917,12.736127261748422
44.0,59.83503877913053,34.86550247163987,0.6336028560778371,12.746291722909598
45.0,54.7564459077314,36.49125971779278,0.634283857628407,12.75809914876978
46.0,49.8380644776788,37.87665752302015,0.635057636999965,12.771547033461609
47.0,45.183673436947785,38.97298594549691,0.6359233522390987,12.786633084494088
48.0,40.88019869425409,39.74019372884429,0.6368800915292325,12.803355217139647
49.0,36.994331063049515,40.151786238528345,0.6379268741663895,12.821711548588512
50.0,33.56948334576926,40.199221020979536,0.63906265158222,12.841700392138478
51.0,30.624633504255765,39.89412323127464,0.6402863083031821,12.863320251416397
52.0,28.15623351564984,39.26709013412839,0.6415966630790652,12.886569812251398
53.0,26.143166848828578,38.36351184249839,0.6429924706171013,12.911447937639249
54.0,24.553150580527127,37.23750884888176,0.6444724221282971,12.93795366018269
55.0,23.349585711836784,35.94555655288686,0.646035147275173,12.966086174355324
56.0,22.497032411013684,34.541284201837776,0.6476792150962217,12.995844829227016
57.0,21.964792205602617,33.072119015736305,0.6494031359397424,13.027229120566286
58.0,21.728516735256346,31.577690901023537,0.6512053626207481,13.060238682630885
59.0,21.77018646198113,30.089727180260418,0.6530842924195266,13.094873280058371
60.0,22.07709794481515,28.632760800305505,0.6550382684987138,13.131132798988377
61.0,22.6402244457164,27.22532015062944,0.6570655819833818,13.169017238314792
62.0,23.45240483553507,25.881179148455967,0.6591644735007811,13.20852670087472
63.0,24.506513883826887,24.610600585378663,0.6613331353511904,13.249661383253944
64.0,25.79369393676271,23.421395230773605,0.6635697136317349,13.292421566981476
65.0,27.30183855534764,22.319811168498635,0.6658723101059492,13.33680760827752
66.0,29.014265087441455,21.311245208839164,0.6682389845303175,13.382819927722126
67.0,30.908462043706383,20.400739666904887,0.6706677570843589,13.430459001473665
68.0,32.95545234888866,19.593350386123724,0.6731566103932964,13.47972534902302
69.0,35.11932932676236,18.89432283283614,0.6757034921993029,13.530619522660901
70.0,37.357036802541955,18.309113979370156,0.6783063178444233,13.583142097462781
71.0,39.61883936255513,17.843324952989096,0.6809629726752654,13.637293659025854
72.0,41.849023921771,17.502501732554656,0.6836713148432502,13.69307479268674
73.0,43.98721620304604,17.29188335007399,0.6864291778708413,13.75048607133252
74.0,45.969998568267656,17.216078350508724,0.6892343734783679,13.809528044155893
75.0,47.73320553271041,17.27873057160797,0.6920846943156951,13.870201223979016
76.0,49.21447439519942,17.48215576664567,0.6949779168274082,13.93250607563114
77.0,50.356453953296686,17.826998419819436,0.6979118041124237,13.996443002898534
78.0,51.11004221240064,18.311888748449743,0.7008841088090031,14.06201233655231
79.0,51.43788821482061,18.933134752435368,0.7038925760374788,14.129214320874658
80.0,51.31720017673576,19.684449514938763,0.7069349463122127,14.198049101494915
81.0,50.74196424309233,20.556713305266378,0.7100089585381856,14.268516711294323
82.0,49.72356556726549,21.537806226794668,0.7131123529221383,14.34061705770999
83.0,48.29001394309498,22.612528366793914,0.7162428739217417,14.414349909416787
84.0,46.48374168676787,23.762609834656804,0.719398273117981,14.489714882857596
85.0,44.3583825053886,24.966853324281214,0.7225763121540153,14.566711428561694
86.0,41.97503155344563,26.201398063340026,0.7257747656061947,14.645338816925149
87.0,39.39853570082499,27.440153273822986,0.7289914237574517,14.725596125222877
88.0,36.694303459297906,28.655362276770177,0.7322240954787477,14.80748222294043
89.0,33.92578755704256,29.818350072988654,0.7354706108392607,14.890995758285685
90.0,31.152654977246186,30.900421431407167,0.7387288238188114,14.976135144370426
91.0,28.429467775777507,31.873941125647182,0.741996614913239,15.062898544467636
92.0,25.80473627130734,32.713532326353324,0.7452718935309264,15.151283859346512
93.0,23.320075898056214,33.39738944650084,0.7485526006024201,15.241288711717072
94.0,21.00955452538127,33.90852904742543,0.7518367106745126,15.332910433957801
95.0,18.8990938758703,34.23590548836914,0.7551222343654495,15.426146053106672
96.0,17.006203192300113,34.375158119443896,0.7584072202672568,15.520992277880492
97.0,15.340045361255228,34.32888072746198,0.76168975714734,15.617445484626435
98.0,13.902035377638688,34.10629789721257,0.7649679758097819,15.715501704439406
99.0,12.68692207879726,33.72238582589213,0.7682400511307816,15.815156609323896
100.0,11.684402860654211,33.19651524270385,0.7715042029130649,15.916405500649018
101.0,10.88082875856653,32.55085972554098,0.774758698382067,16.0192432942457
102.0,10.261089345677952,31.80873476334108,0.7780018528638277,16.123664511102632
103.0,9.810271212845207,30.99311801682904,0.7812320316004515,16.2296632624702
104.0,9.51502358009886,30.125476288526073,0.7844476505581988,16.337233240305757
105.0,9.364516050262907,29.224972163359737,0.7876471775809476,16.446367706018112
106.0,9.351002640346511,28.30804009766908,0.7908291332726934,16.557059478741156
107.0,9.47000411412768,27.388293383251437,0.7939920917269446,16.669300927285054
108.0,9.720217772696802,26.476658981003695,0.7971346811330514,16.783083960462477
109.0,10.103216563440435,25.58166039997917,0.800255584252524,16.898400017366157
110.0,10.623024470929176,24.709781843205885,0.803353538962563,17.01524006122894
111.0,11.285602028474731,23.865852222300525,0.8064273382377337,17.13359457286275
112.0,12.09829761388536,23.05340559860872,0.8094758302893745,17.25345354326085
113.0,13.069304847464887,22.27501212851889,0.8124979185967557,17.374806471268368
114.0,14.207100995856681,21.532559780458687,0.8154925616983462,17.4976423593671
115.0,15.519893444608753,20.827493387060454,0.818458773136946,17.62194971007305
116.0,17.01507332727397,20.161015822262105,0.8213956209593527,17.747716526846315
117.0,18.698669501600325,19.53425164493467,0.824302227187289,17.874930314922864
118.0,20.574814534047682,18.948381110637293,0.8271777672187969,18.00357808396116
119.0,22.64522873714192,18.404746887379215,0.8300214690083261,18.13364635309578
120.0,24.90864157633495,17.9049577335485,0.8328326142767438,18.265121142462792
121.0,27.360649623685358,17.450929034196182,0.8356105338039536,18.397988020938016
122.0,29.99284863467902,17.04493896301684,0.8383546094075707,18.532232070682998
123.0,32.7928682508523,16.68966492513141,0.841064272285365,18.667837926083156
124.0,35.743998968653855,16.388182736711432,0.84373900146013,18.804789781452897
125.0,38.82518286215982,16.143969274718064,0.8463783231323119,18.943071411367157
126.0,42.011033034585424,15.960877579880338,0.8489818092798624,19.082666191062522
127.0,45.2720195178567,15.843100268769282,0.8515490763925586,19.223557120442322
128.0,48.57480596803111,15.795120053283568,0.8540797842309668,19.36572685135125
129.0,51.88269657747552,15.821644520498483,0.8565736342152322,19.509157718498887
130.0,55.15621732779047,15.927533441124385,0.8590303683031654,19.653831771879982
131.0,58.35387103715638,16.117714592466037,0.8614497675672044,19.799730816143526
132.0,61.43295918124583,16.397088408747244,0.863831650555122,19.946836452511366
133.0,64.35050121074391,16.770424058878152,0.8661758718347033,20.095130123217842
134.0,67.06430668370476,17.242247516397576,0.8684823206856913,20.244593161367007
135.0,69.5341145967598,17.816723808803054,0.8707509194495607,20.395206845637095
136.0,71.72274880834593,18.497532592805033,0.8729816219574893,20.54695245734279
137.0,73.59729965464356,19.287735345632083,0.8751744121272144,20.699811342094314
138.0,75.13026189152615,20.189645626258688,0.877329302481715,20.85376497823449
139.0,76.30043083245009,21.2046931476794,0.8794463325691452,21.008795045856193
140.0,77.09360030542997,22.33329380939537,0.881525567511678,21.16488350228357
141.0,77.50294913405307,23.57471446538859,0.8835670966229586,21.32201266288786
142.0,77.52884673248907,24.927000495694067,0.8855710312647265,21.480165263117875
143.0,77.17915537978367,26.38675787224767,0.8875375057631997,21.639324616514074
144.0,76.46760115762301,27.949233693318185,0.8894666725066265,21.79947459330048
145.0,75.41362686551078,29.608134039262698,0.8913587031133517,21.96059978906765
146.0,74.04114251203976,31.355645911022393,0.8932137863761633,22.122685596269775
147.0,72.37750172586912,33.182433487161354,0.8950321270826014,22.28571830095938
148.0,70.45250539187424,35.07767410246487,0.896813944721463,22.44968517470079
149.0,68.29750236616322,37.02913829791023,0.8985594723979824,22.61457457280256
150.0,65.94464414748231,39.0233007973337,0.9002689557008008,22.780376026102715
151.0,63.42629133147079,41.04548683643991,0.9019426516535656,22.947080331417137
152.0,60.77456402230912,43.080050705913045,0.9035808277274493,23.114679637964777
153.0,58.02101259298052,45.11058393030438,0.9051837609172575,23.28316752830521
154.0,55.19637891063613,47.12015018578546,0.9067517368835124,23.452539092186715
155.0,52.33041557036372,49.0915456980158,0.9082850491625731,23.622790991569545
156.0,49.45173451376893,51.00758321416942,0.9097839984465005,23.79392151496228
157.0,46.587661720722615,52.85139772215576,0.9112488919339805,23.965930619093328
158.0,43.76408217331303,54.60677070121813,0.9126800427531864,24.138819955837686
159.0,41.00526754506221,56.25846729080584,0.9140777694569887,24.312592882236054
160.0,38.33368747684406,57.7925773780553,0.9154423955904097,24.48725445138302
161.0,35.76981314838073,59.19684772349117,0.9167742493296659,24.662811381928126
162.0,33.33192814067047,60.46098890650458,0.9180736631914057,24.839272003909016
163.0,31.035966542985264,61.57693785406667,0.9193409738104726,25.01664617878133
164.0,28.895398123041197,62.53905757064017,0.9205765217848578,25.19494519155063
165.0,26.92118213708054,63.344255579896654,0.9217806515815912,25.374181612464525
166.0,25.121802751942106,63.99201012817535,0.9229537114999701,25.55436912668856
167.0,23.50339097678348,64.48430280448503,0.9240960536924406,25.73552233117359
168.0,22.069943786032646,64.82544215395974,0.92520803423333,25.917656495404046
169.0,20.823614905957747,65.02181239466061,0.9262900131712649,26.10078728995958
170.0,19.764995569393662,65.08159577659943,0.9273423549233955,26.284930479041066
171.0,18.893614514224335,65.0143430902745,0.9283654281668865,26.470101544635572
172.0,18.20827135354577,64.83060654432596,0.9293596060404629,26.656315351632152
173.0,17.707375042502186,64.5415900020761,0.9303252665980479,26.843585699538504
174.0,17.389343742287707,64.15875993402749,0.9312627929501485,27.031924818776005
175.0,17.25285136806583,63.69353006991055,0.9321725733031992,27.221342961592896
176.0,17.297006601888874,63.157016099064734,0.9330550012593224,27.411847912185184
177.0,17.52153090917209,62.55978700839663,0.9339104762692853,27.603444268553424
178.0,17.926799752132244,61.91173463671499,0.9347394034783721,27.796132980810338
179.0,18.513807985237914,61.22199355940511,0.9355421938189987,27.989910870060353
180.0,19.284130200993378,60.498855068667275,0.9363192643839883,28.184769857083484
181.0,20.239815540769445,59.74975199974733,0.9370710384002764,28.38069625248672
182.0,21.383218263379298,58.98131421474784,0.937797944976423,28.57767037936009
183.0,22.716853262837528,58.199398037253104,0.9385004191416587,28.77566595264948
184.0,24.24322161972015,57.40911334412476,0.9391789019806506,28.97464907317116
185.0,25.96463252120129,56.61492593622769,0.9398338400860514,29.174577895770522
186.0,27.883057436754502,55.820734195034284,0.9404656852557158,29.375402223471397
187.0,29.999981124738646,55.029921066791864,0.9410748944704682,29.577062634419224
188.0,32.31621210902474,54.24542015444545,0.9416619294317053,29.77948934417954
189.0,34.83192634494748,53.46984362282705,0.9422272554553202,29.982603753078
190.0,37.54634235081259,52.70545791486742,0.9427713421535461,30.186314536853295
191.0,40.457913526485754,51.95433550111497,0.943294661344209,30.390521195606553
192.0,43.56404981065599,51.21834260102022,0.9437976877366485,30.595109926233345
193.0,46.861224757947255,50.49923217611409,0.9442808971594322,30.799956006673373
194.0,50.344928498638474,49.79867315497475,0.9447447664501518,31.004922461110613
195.0,54.00955960313497,49.11830012139456,0.9451897723329091,31.20985885332936
196.0,57.84855678546453,48.459753823876824,0.9456163906626459,31.41460290942395
197.0,61.85434837937682,47.82471977040453,0.9460250956440202,31.618979221349985
198.0,66.01828799701563,47.21497090910384,0.9464163585520531,31.822798697774015
199.0,70.33080335361005,46.63238672077309,0.9467906473719686,32.02586015507536
200.0,74.78129805812388,46.07899741124362,0.9471484254731085,32.22794890488162
201.0,79.35817910468342,45.55701331309455,0.9474901506752479,32.4288371035131
202.0,84.04887656568305,45.068847468016976,0.9478162744499818,32.628284169246854
203.0,88.8398492062586,44.617138593165436,0.9481272410668847,32.82603696748541
204.0,93.71657258263087,44.204778737592356,0.9484234865222442,33.02182980409954
205.0,98.6635049262984,43.83493468716861,0.948705437492804,33.215384591271274
206.0,103.66409669996341,43.51105517713913,0.9489735107042702,33.4064115186806
207.0,108.70077900805582,43.23688117142264,0.9492281121282775,33.59460944008609
208.0,113.75493460936659,43.016458939724174,0.9494696358955872,33.77966610652365
209.0,118.80683936700053,42.85414351669344,0.9496984633135507,33.961258583936825
210.0,123.83565772444294,42.75458604269962,0.9499149624070063,34.1390541055586
211.0,128.8194213996843,42.72272538922976,0.9501194871853679,34.31271067082913
212.0,133.7349947803247,42.76377952411854,0.9503123765575046,34.48187755366723
213.0,138.55801325198954,42.88322577383948,0.9504939534168984,34.64619601222545
214.0,143.26290040662715,43.086766179173615,0.9506645243345154,34.80530033485895
215.0,147.82288152923158,43.38029840840278,0.9508243788760018,34.95881869275321
216.0,152.2100055992522,43.76988342896697,0.9509737884954154,35.106373995660825
217.0,156.39517747356223,44.26169921425789,0.9511130056496654,35.247584976597594
218.0,160.3483048741014,44.86198986359029,0.9512422635909562,35.38206747707338
219.0,164.03847754086013,45.57701596557332,0.9513617756858009,35.509435629852376
220.0,167.43421079187763,46.41299912537608,0.9514717342354878,35.62930317581226
221.0,170.50377379544867,47.376053668521784,0.9515723095535134,35.74128504729295
222.0,173.21564253578885,48.47212166247721,0.9516636497929362,35.844998958469795
223.0,175.53900848528698,49.706908783555996,0.9517458802078406,35.940067015417775
224.0,177.4444143420117,51.08580659701357,0.9518191018376355,36.02611762998586
225.0,178.9045057689993,52.613804059223106,0.9518833904757205,36.10278773621522
226.0,179.89475346913733,54.29541673332449,0.9519387964804461,36.16972473025188
227.0,180.3941831685237,56.13460873126582,0.9519853439343421,36.226588579343414
228.0,180.38615187973403,58.13470188132088,0.9520230293761434,36.27305431509198
229.0,179.8592094116553,60.29825723311606,0.9520518199401321,36.308815282855115
230.0,178.80742147557842,62.62701303215115,0.9520716541104106,36.333585087329524
231.0,177.23052043569763,65.12182682791406,0.9520824401815059,36.3470994939154
232.0,175.13485427022934,67.78242675086894,0.9520840526441411,36.34912315877079
233.0,172.5318920024022,70.6075751379775,0.9520763372732735,36.33944587705479
234.0,169.43918378804761,73.59470155089716,0.9520591032916509,36.317892523013214
235.0,165.878970082048,76.73994978021756,0.9520321265146338,36.2843222104563
236.0,161.8774716602628,80.03809220161176,0.9519951480936192,36.23863083059724
237.0,157.4641931387489,83.48235041592916,0.951947872246778,36.18075595616863
238.0,152.67084030508366,87.06433176525782,0.9518899662507447,36.11067849165085
239.0,147.53044945302204,90.77393350204184,0.9518210599930379,36.02842492209962
240.0,142.0766517088511,94.59924403001939,0.9517407455383201,35.93406932760795
241.0,136.34311550455703,98.52644350423027,0.9516485768840004,35.82773503403489
242.0,130.36319178777939,102.5396884519002,0.9515440696516341,35.70959614922179
243.0,124.16980575948234,106.62100135984795,0.9514267013320922,35.579878361618476
244.0,117.79556074732942,110.75017822264853,0.9512959120474074,35.43885864542646
245.0,111.27300188114575,114.90471878908467,0.9511511058486568,35.286863986159055
246.0,104.63501622062496,119.05967418049916,0.9509916511381944,35.12427111688463
247.0,97.91530192077474,123.1875804158835,0.9508168825854316,34.951503826635715
248.0,91.14885918145157,127.25837927847816,0.9506261029651001,34.76903018101313
249.0,84.37243923998196,131.23938324578492,0.9504185854366802,34.5773588091315
250.0,77.62492085473441,135.09528954577638,0.9501935760869997,34.377034680158175
