Time,J,A,S,tau
0.0,100.0,100.0,0.7788832813152373,10.1010101010101
1.0,109.64254733751243,93.67691701701526,0.7756219375122725,10.621370734507213
2.0,119.11836700230528,87.7945313507911,0.7722363885574631,11.158532140245882
3.0,128.1698273126502,82.32008434332778,0.7687278989332664,11.712223497942901
4.0,136.60316208270473,77.22260829338745,0.7650972793153831,12.282288675402128
5.0,144.2856014611386,72.4736745893516,0.7613457571416874,12.86855565944668
6.0,151.13955075651302,68.04716486294824,0.7574750071621539,13.47083447120641
7.0,157.13409823214644,63.9190783138307,0.7534871798406003,14.08891513510647
8.0,162.27489655669817,60.067361320798476,0.7493849180691937,14.722566101781524
9.0,166.59451810320834,56.47171088484669,0.7451713658375643,15.37153302288997
10.0,170.1438622874576,53.113438643422214,0.7408501680685963,16.035537898976724
11.0,172.9850124187861,49.975333666073276,0.7364254603522981,16.714278693333956
12.0,175.18562344337371,47.04153758546722,0.7319018488722507,17.4074294177272
13.0,176.81473374391095,44.29743089762911,0.7272843808750274,18.114640696098892
14.0,177.93980299298337,41.729529380652956,0.7225785063732857,18.83554079596906
15.0,178.62474759514944,39.32538968470026,0.7177900320851464,19.56973710114935
16.0,178.92875136064652,37.07352323906543,0.7129250688774229,20.31681798450239
17.0,178.9056635759099,34.963313471506304,0.7079899740356996,21.07635504103126
18.0,178.60377198637244,32.984957070328825,0.7029912908133406,21.847905539034656
19.0,178.06591925324727,31.129385417777574,0.6979356849520525,22.631015187962326
20.0,177.32976034422458,29.388209018560097,0.6928298820540835,23.425220964122968
21.0,176.42813921549495,27.753662942405906,0.6876806060494246,24.23005402123702
22.0,174.7327299181501,14.665384553060974,0.6824945199128517,25.04504259682953
23.0,172.64421777504998,5.39661199443804,0.6772781725156483,25.869714824769293
24.0,170.60349742132934,1.9867785323318397,0.6720379472459871,26.703601427006852
25.0,168.60878389078178,0.7323000685909715,0.6667800184304866,27.546238226920888
26.0,166.6583638752579,0.2707252543690988,0.6615103132222659,28.397168439133186
27.0,164.75059243503776,0.10084394355553533,0.656234479898934,29.255944712927434
28.0,162.88388987335335,0.03827394051293215,0.6509578625303606,30.122130911583252
29.0,161.05673876577845,0.015185700483635232,0.6456854818535777,30.99530361972553
30.0,159.26768113589515,0.006626315104720367,0.6404220220412732,31.87505337911738
31.0,157.51531576926646,0.0034160455810052903,0.6351718229336737,32.760985660378985
32.0,155.79829565834794,0.0021776989140311724,0.6299388772204874,33.65272158380716
33.0,154.11532557150548,0.0016686798090858998,0.6247268320073053,34.549898406808445
34.0,152.46515973959274,0.0014316552438841438,0.6195389941779418,35.45216979842007
35.0,150.84659965372197,0.001298170643317753,0.6143783389642293,36.35920592316918
36.0,149.2584919697118,0.001206050066513476,0.6092475211429814,37.2706933578631
37.0,147.6997265120095,0.0011322198226427081,0.6041488883326981,38.186334863813954
38.0,146.16923436838675,0.0010679899797367807,0.5990844959020076,39.10584903611439
39.0,144.66598612130122,0.0010100222160391993,0.5940561228587417,40.02896986414926
40.0,143.1889900571695,0.0009568522516310738,0.5890652888609879,40.95544618463469
41.0,141.7372905825325,0.0009078087964371211,0.5841132712479598,41.88504110069917
42.0,140.30996665064342,0.0008624940533359974,0.5792011223806244,42.81753133886441
43.0,138.9061302786441,0.0008205953044055916,0.5743296866934561,43.752706582204745
44.0,137.524925071042,0.0007818568732754474,0.5694996179732777,44.69036874950594
45.0,136.16552497483625,0.0007460689171480909,0.5647113951546708,45.63033132875257
46.0,134.82713292967347,0.0007130187218127465,0.5599653383875456,46.57241864931033
47.0,133.50897962224442,0.0006825174964396451,0.5552616242737083,47.51646516938345
48.0,132.21032240919658,0.0006543995759134716,0.5506002997811293,48.46231481534488
49.0,130.93044412803792,0.000628495355457854,0.5459812961286091,49.409820279132546
50.0,129.66865204198862,0.0006046561198345803,0.5414044415523499,50.35884235822383
51.0,128.42427692117724,0.0005827513018983235,0.5368694729360033,51.3092493437245
52.0,127.19667195006494,0.0005626466244744653,0.5323760474358489,52.260916362545466
53.0,125.98521194691853,0.0005442364764588438,0.5279237525017971,53.21372481766999
54.0,124.7892923782381,0.0005274024503544535,0.5235121158270659,54.16756178500291
55.0,123.60832861901508,0.000512058533020697,0.5191406141707067,55.12231948033529
56.0,122.44175510548462,0.0004981057344412149,0.5148086817417737,56.077894716378346
57.0,121.28902461037941,0.0004854730443560855,0.5105157179181276,57.03418839376622
58.0,120.04576480944904,0.09433772776166577,0.5062990473976067,57.98176237497095
59.0,118.42600894141184,0.34843933797448695,0.5022626272800271,58.89435824796169
60.0,116.82985433990305,0.43771549811370436,0.49825962729648193,59.80759898574983
61.0,115.25577258812989,0.46694640286754097,0.49428977322148154,60.72130945362783
62.0,113.70228389957789,0.4746667759215597,0.4903527767140873,61.63531604406883
63.0,112.16795328374285,0.47504152955095763,0.48644834201719583,62.549445832993726
64.0,110.6513866768095,0.47327366092658113,0.4825761723507188,63.46352572479163
65.0,109.15122709776847,0.47126874746086794,0.47873597604962526,64.37738158103521
66.0,107.66615082168474,0.4697248083375697,0.4749274724992371,65.29083732608126
67.0,106.1948635268225,0.4688953198185861,0.47115039783272783,66.20371403665823
68.0,104.73609667301703,0.4688776162248866,0.46740451066982214,67.11582897170086
69.0,103.28860365010769,0.46970340768424684,0.46368959742194926,68.02699461815628
70.0,101.85115635934166,0.4713889596549929,0.4600054780627433,68.93701760887889
71.0,100.42254155014663,0.47394696814366594,0.45635201126824826,69.84569769395026
72.0,99.00155750981489,0.47738300161610714,0.45272910022714385,70.75282653648354
73.0,97.58701071425939,0.48171709423632286,0.44913669800575884,71.6581865418086
74.0,96.17771267541691,0.4869566857853536,0.44557481328863285,72.56154954716095
75.0,94.77247693700443,0.4931279182565779,0.4420435163784453,73.46267541952425
76.0,93.37011625546876,0.5002455968432119,0.43854294485108797,74.36131064348102
77.0,91.96943998194018,0.5083371400656531,0.4350733104127194,75.25718662118268
78.0,90.56925178084063,0.5174293316046824,0.4316349047361936,76.150018104146
79.0,89.16834757973373,0.5275467309160806,0.42822810705144476,77.03950119310409
80.0,87.7655140250658,0.5387272372821031,0.4248533907733059,77.92531147414665
81.0,86.3595273659184,0.5509937707735607,0.42151133148317516,78.80710176984135
82.0,84.9491529232983,0.5643896019474456,0.4182026150285716,79.68449979784879
83.0,83.53314538234757,0.5789393634470917,0.41492804570015185,80.55710570314717
84.0,82.1102497898222,0.5946832737605211,0.411688556213267,81.42448909356253
85.0,80.67920381287517,0.6116512257986034,0.40848521633876483,82.28618627868578
86.0,79.23874110142181,0.6298710187987592,0.4053192446754617,83.14169664321655
87.0,77.78759620869289,0.6493760511110265,0.4021920186369947,83.99047934462705
88.0,76.32451138781933,0.67017663758059,0.399105087463134,84.8319491081205
89.0,74.84824530151897,0.6922986431040298,0.3960601848456388,85.66547200024046
90.0,73.3575843704227,0.7157336459930367,0.3930592428058643,86.4903607067028
91.0,71.85135690590724,0.7404833024532025,0.39010440803660185,87.30586901183166
92.0,70.3284502073984,0.766517403940003,0.3871980570595125,88.11118642517768
93.0,68.78783214034533,0.7937935844736727,0.3843428168593645,88.90543111857058
94.0,67.22857539513173,0.8222496611835154,0.381541583010879,89.68764340435186
95.0,65.64988815343754,0.851779239790285,0.3787975446393941,90.45677706358967
96.0,64.05114803381964,0.882270989797471,0.3761142093895489,91.21169051034364
97.0,62.43194126634264,0.9135515941010763,0.37349543155603077,91.95113687895936
98.0,60.79210876534011,0.9454099602783624,0.37094544792345585,92.67375166055676
99.0,59.13179645625249,0.977589123012395,0.36846891686415,93.37803925034044
100.0,57.451507937139226,1.009770823348227,0.36607096168058095,94.06235822221443
101.0,55.75216783835728,1.0415911283231345,0.3637572309767672,94.72490131391426
102.0,54.035185023142766,1.0726090309618603,0.3615339666009699,95.36367324225573
103.0,52.30250313052975,1.1023365808338992,0.3594080702585035,95.97646924954617
104.0,50.55668241370523,1.1301613423838601,0.35738722391428923,96.56083755033957
105.0,48.80094492786443,1.1554456940953408,0.35548000193087786,97.11404470197009
106.0,47.0392286023755,1.177487047794263,0.35369603076478423,97.63302748222009
107.0,45.27630176074718,1.197145618776743,0.3520461939565081,98.1143319248602
108.0,43.59438433681691,2.293495414305091,0.35054288063049405,98.55404085477159
109.0,41.98359116675458,3.351527730700677,0.3492003230103673,98.94767662088357
110.0,40.45736432417178,4.347243306943868,0.34803502939757097,99.29007763584498
111.0,39.03109528268766,5.2760830743851095,0.3470663554503605,99.57523739846789
112.0,37.72101335636354,6.1331374948977455,0.34631728324728644,99.79608672114905
113.0,36.543882531048794,6.913300593310775,0.34581544003169973,99.94421140626064
114.0,35.51662072990078,7.611454949616413,0.3455945700648875,100.0094463665398
115.0,34.65584348233348,8.22268330981423,0.3456964883976466,99.9793410894377
116.0,33.97732983877168,8.742507808893425,0.3461739821909432,99.83836982667175
117.0,33.49544992478597,9.167132302646415,0.34709497433934283,99.56680463546522
118.0,33.22255017398207,9.49369020939672,0.3485487855712174,99.1390319529025
119.0,33.16834056372068,9.720479118804272,0.35065566358147837,98.52100980811261
120.0,33.67620614974724,9.502434590450445,0.353582281982754,97.6661646846797
121.0,34.609586223780695,8.930500146505699,0.3575660231648954,96.50904911148761
122.0,35.57419474475349,8.389401506998865,0.3629588942245482,94.95401028363705
123.0,36.56977080491108,7.877662410667508,0.37030313398746,92.85614431941335
124.0,37.59585301769075,7.393869141962362,0.38047032842914646,89.98751540932328
125.0,38.6517562035961,6.936669762494126,0.39490956817620787,85.98126429674421
126.0,39.73655845450188,6.50477109350683,0.416004635366601,80.26961488881673
127.0,40.849087580196745,6.096936236446987,0.4469679726539801,72.20733518898601
128.0,41.98790818285795,5.711982311262662,0.48873032395698957,62.014036749536416
129.0,43.15131375057784,5.348777820322088,0.5343084911790799,51.8789121991015
130.0,44.33731689013292,5.006240727094434,0.574394753341061,43.83424199601266
131.0,45.543642137668385,4.683336518783492,0.6062999491622851,37.97417074418587
132.0,46.76772371643054,4.379076070577791,0.6313276894192005,33.67612036040551
133.0,48.006704885184746,4.092513771038974,0.6512551692132512,30.41626253836159
134.0,49.25743936990345,3.822745822563069,0.6674460640811914,27.856918203178214
135.0,50.37255111432416,3.738066128336739,0.6808503092337337,25.787123625170562
136.0,51.32681502468947,4.021714508843191,0.6921269611590593,24.07184017111752
137.0,52.357257827930866,4.644072280597457,0.7017421873329915,22.621518633620006
138.0,53.70656681720475,5.580855744733323,0.7100344100284314,21.374585984339316
139.0,55.61234992974324,6.795780691560545,0.7172555367914403,20.287323072715413
140.0,58.31386701327592,8.194426712007054,0.7235973443405818,19.32781583870186
141.0,62.03334978349134,9.55565850647678,0.7292088780615024,18.4721860806365
142.0,66.69053253375395,10.861444593894888,0.7342079207111828,17.70221093155551
143.0,72.15353169628949,12.114746873939337,0.7386890259037469,17.003725527979896
144.0,78.26524214398508,13.317464206821708,0.7427290941062342,16.365549910766966
145.0,84.84796551687204,14.47058259634152,0.7463913689985251,15.77874360695637
146.0,91.70992861241767,15.574300955776378,0.7497283627710476,15.236075213130416
147.0,98.65329691878381,16.62814197850482,0.7527840339353776,14.73163760205257
148.0,105.48306157895468,17.63105185958809,0.7555954465782867,14.260562077732262
149.0,111.97857385707391,18.617823475789276,0.7581940384105463,13.818804956686977
150.0,117.60594064255062,19.91744979059671,0.7606066150251118,13.402984008707094
151.0,121.58864442820635,21.972945801402048,0.7628561275284629,13.010253236277117
152.0,123.02081994451716,25.148050243792227,0.7649623002384064,12.638204135011685
153.0,121.10690842712373,29.583779806738786,0.7669421372768529,12.284787692618496
154.0,115.64495418238741,35.07148655740495,0.7688103354806882,11.948252228440996
155.0,107.05271059527094,41.29935926662733,0.7705796255662721,11.627093184675088
156.0,96.17296989285163,47.93150841612432,0.7722610549885598,11.320012458271487
157.0,83.95048842422891,54.6265804390127,0.7738642247963592,11.025885137255974
158.0,71.19193761304382,61.05911030851553,0.7753974892076745,10.743732139248165
159.0,58.4960986170828,66.94063951661926,0.7768681247057239,10.472697590185335
160.0,46.296577774862094,72.02377172303167,0.7782824741505826,10.212030021339507
161.0,35.05238230380825,75.97365306285505,0.7796460701398435,9.961066681135813
162.0,25.485404928015107,78.18231336917682,0.7809637409612926,9.719220398341456
163.0,18.39927471677507,77.9824587174971,0.7822397017318405,9.485968576521438
164.0,13.987573668369691,75.33193536941322,0.7834776332662667,9.260843915782734
165.0,11.639575173070778,70.96652699604664,0.7846807504805688,9.043426573060014
166.0,10.485751122509935,65.82654968708115,0.785851861664208,8.833337548139088
167.0,9.885441789906698,60.57482641364323,0.7869934200512776,8.630233078375593
168.0,9.510696363586566,55.53379931039632,0.7881075687359994,8.433799883135809
169.0,9.231125389191883,50.81808273878977,0.7891961798329845,8.243751124834091
170.0,9.006378900803991,46.4515748938818,0.7902608888925976,8.059822945412877
171.0,8.83276175807048,42.425663010337125,0.79130312336087,7.881771697986517
172.0,8.723187386531398,38.7218099608339,0.792324130654858,7.709371245380542
173.0,8.701063603039774,35.319626352772765,0.7933249996837777,7.542410943916708
174.0,8.798815274702909,32.199928198850394,0.7943066810818055,7.380693816642628
175.0,9.057551947948259,29.345994056286262,0.7952700045360316,7.224035007952962
176.0,9.525869676940832,26.744521825716745,0.7962156940749086,7.072260450261177
177.0,10.256430244286287,24.38679403994057,0.7971443813793586,6.925205727975149
178.0,11.299169788230106,22.270166853941113,0.7980566173942176,6.782715107818294
179.0,12.690078574642495,20.39977424467157,0.7989528826583132,6.644640683660325
180.0,14.435391027116705,18.790272085715447,0.7998335961169626,6.510841668277543
181.0,16.492686522079858,17.46712470075731,0.8006991227780667,6.381183790611234
182.0,18.752229435060986,16.466460123173476,0.8015497810170447,6.255538694044644
183.0,21.0272517650426,15.832739555385045,0.8023858481901475,6.1337835170492525
184.0,23.060766045344906,15.612519460976884,0.8032075659697818,6.015800472591048
185.0,24.557261791447885,15.843113250895959,0.8040151449125881,5.901476494139469
186.0,25.241295619361942,16.535692104625667,0.8048087684764634,5.790702922925327
187.0,24.934491913853726,17.65483335048556,0.8055885965295259,5.683375233657967
188.0,23.625526043597116,19.10050642019904,0.8063547683815092,5.579392797528076
189.0,21.49664163792894,20.702074412414,0.8071074055081987,5.478658661803664
190.0,18.886897972396042,22.23386661442478,0.8078466138794622,5.381079361148594
191.0,16.20551298375489,23.45685766012722,0.808572486003104,5.2865647475782325
192.0,13.829871252157393,24.180435975718634,0.8092851027141573,5.1950278365223985
193.0,12.023876676342153,24.321612633735405,0.8099845347390416,5.1063846680441385
194.0,10.907374738600282,23.92652815730669,0.810670844070807,5.02055417917182
195.0,10.484139560594402,23.137642539221694,0.8113440851330009,4.937458092053912
196.0,10.696500634201856,22.133040860522776,0.8120043058509565,4.857020804340909
197.0,11.461633829845892,21.07998977406405,0.8126515485426675,4.779169292623561
198.0,12.673879447206122,20.118661055255863,0.8132858507183497,4.703833021530628
199.0,14.1878362637456,19.364499702016523,0.8139072457646056,4.630943859207257
200.0,15.806082216424734,18.912248200466134,0.8145157635458627,4.560435998013684
201.0,17.289238588388674,18.832417999209966,0.8151114309238793,4.492245880743804
202.0,18.393926467904866,19.159546261150084,0.815694272211865,4.4263121299292125
203.0,18.93047385622018,19.8768943645029,0.8162643095703751,4.362575481670547
204.0,18.820259247487492,20.905586508484642,0.8168215633426997,4.30097872307508
205.0,18.126211880410334,22.107624323822492,0.8173660523503753,4.24146663232217
206.0,17.03766882236614,23.30900496273093,0.8178977941572345,4.183985920484005
207.0,15.812919847402545,24.339947607403428,0.8184168052844312,4.128485177373595
208.0,14.704555517838024,25.078920868508447,0.8189231013985792,4.074914819558326
209.0,13.898973099698528,25.48210039972319,0.8194166974765095,4.023227039745993
210.0,13.489456312516523,25.585337448086037,0.8198976079474244,3.9733757583419416
211.0,13.481177508867466,25.481179491508865,0.8203658468009499,3.9253165786298707
212.0,13.812539417716978,25.28645408869327,0.820821427703438,3.8790067397825467
213.0,14.378183595613038,25.114662871932378,0.8212643640772748,3.834405075486806
214.0,15.050197176051029,25.0577420993985,0.821694669175549,3.791471971689802
215.0,15.699515114442223,25.175356593705068,0.8221123561424906,3.750169327111149
216.0,16.218095978927895,25.489593733118962,0.8225174380650113,3.7104605146764844
217.0,16.53814366598715,25.9849625025498,0.8229099280159752,3.6723103441168186
218.0,16.642581885279302,26.614628067489306,0.8232898390862695,3.6356850273135746
219.0,16.56247117264469,27.31280011191821,0.8236571844157683,3.600552142845413
220.0,16.362353498050446,28.01077946152548,0.8240119772204884,3.5668806024904107
221.0,16.119030066309417,28.65235066822599,0.824354230806765,3.53464061993089
222.0,15.901087169843201,29.20411820062766,0.8246839585877187,3.503803679558148
223.0,15.755138017671415,29.658391115733743,0.8250011740949269,3.4743425063437177
224.0,15.700833005605475,30.029114803080205,0.8253058909869951,3.4462310385794552
225.0,15.733533899256702,30.34345873034808,0.8255981230573753,3.419444399637683
226.0,15.83168880514143,30.6324728165105,0.8258778842407188,3.3939588716667624
227.0,15.965750008525223,30.923306241587138,0.8261451886130822,3.3697518698498405
228.0,16.10627306331543,31.23433582730569,0.8264000503973101,3.346801917813817
229.0,16.229927818830195,31.57341726026272,0.8266424839655786,3.3250886253525778
230.0,16.32262463698353,31.93880316734892,0.8268725038351797,3.304592666583219
231.0,16.379871815790295,32.32186628408444,0.8270901246778968,3.2852957562835488
232.0,16.404940351435727,32.7105493136588,0.8272953613291605,3.267180631884864
233.0,16.40579014699158,33.09264403924188,0.8274882287735837,3.250231032255369
234.0,16.391915988717333,33.45819232061227,0.827668742153007,3.234431680026091
235.0,16.371786229908484,33.80071609425306,0.8278369167708711,3.219768263743515
236.0,16.351329463916286,34.1173198224353,0.8279927680935608,3.20622742036601
237.0,16.333502811642553,34.40800251029264,0.828136311733417,3.193796723245647
238.0,16.318528813160505,34.67453097638772,0.8282675635156087,3.182464655962824
239.0,16.304775180722487,34.919348659243035,0.8283865394549667,3.1722206117172527
240.0,16.289751998790795,35.14469470928283,0.8284932557286877,3.1630548751732355
241.0,16.27085833785549,35.352072245757284,0.8285877287091904,3.1549586061980626
242.0,16.24592121231924,35.54207262249034,0.8286699749743511,3.147923828002053
243.0,16.213471530096175,35.714448755681005,0.8287400113199406,3.141943416012934
244.0,16.172813763570435,35.86836078884081,0.8287978547366608,3.1370110850547857
245.0,16.123768007881818,36.00261879644707,0.828843522560158,3.133121403116535
246.0,16.06682527713708,36.11608694862709,0.8288770321346267,3.130269758363647
247.0,16.002117896512015,36.207573605056204,0.8288984015580979,3.1284523106635036
248.0,15.930549006886766,36.276380666123934,0.8289076486418849,3.1276661247978
