Time,J,A,S,tau
0.0,100.0,100.0,0.9997986650074703,14.789840981392151
1.0,99.99372681348957,98.63174332940434,0.9997547124985022,14.411210911929745
2.0,99.98816676662143,97.31830320440802,0.999717498099574,14.062020845387583
3.0,99.98324893655482,96.05840548316958,0.9996862938249255,13.742872943680856
4.0,99.9789005870902,94.84956060529794,0.9996603707327227,13.453908659952116
5.0,99.97505910983264,93.6894471741844,0.9996391005587711,13.19529426330072
6.0,99.97166601097034,92.57581420104204,0.9996218959199553,12.967206787997808
7.0,99.96867131457452,91.50656396551426,0.9996082537644589,12.769847405735806
8.0,99.96602882300691,90.4796697526599,0.9995977084053423,12.603428518770588
9.0,99.9636987020057,89.4932302240688,0.9995898564127701,12.46818076069003
10.0,99.96164529433693,88.54542939892212,0.9995843349322696,12.364346254936105
11.0,99.95983648092744,87.63452656693572,0.9995808147750596,12.292174910966382
12.0,99.95824554985592,86.75889733982228,0.9995790164178445,12.251923896222976
13.0,99.95684858597312,85.91696184838489,0.9996036361476613,12.454805385858707
14.0,99.9556247840201,85.10723481962344,0.9996339043254069,12.741142697833789
15.0,99.95455704216064,84.32829855604754,0.9996614053950581,13.040526082353592
16.0,99.95363227053173,83.5788029573073,0.9996863833532905,13.353718182849867
17.0,99.95284190247922,82.85746465263638,0.9997090607548731,13.681497457755363
18.0,99.95218163722484,82.16305413030395,0.9997296438266026,14.024651959455195
19.0,99.95165432129107,81.49440813782256,0.999748318919683,14.383970862302528
20.0,99.9512694726605,80.85041010534952,0.9997652584456037,14.76023483228244
21.0,99.95104732404006,80.23000021003989,0.9997806191648301,15.15420637937486
22.0,99.95102137136436,79.63216655127752,0.9997945441111875,15.56661473904176
23.0,99.951239991704,79.05594062453467,0.9998071650553342,15.99815303652348
24.0,99.9517783333782,78.50040534931125,0.9998186003088475,16.449447687203925
25.0,99.95273169248328,77.96467569603051,0.9998289601576117,16.92107546942238
26.0,99.95424378130431,77.44791832336537,0.9998383425290596,17.41350967231566
27.0,99.95648457116745,76.94932430051216,0.9998468394638584,17.927166343363382
28.0,99.95970689392317,76.46813586990599,0.9998545316491444,18.462319219599042
29.0,99.96419308337373,76.00361310692078,0.9998614960121397,19.01918913539023
30.0,99.97034627928393,75.55506276321337,0.9998677992308588,19.59783068653102
31.0,99.97866678697397,75.12182115928128,0.9998735032530219,20.198196120679253
32.0,99.98969273218361,74.70323776803696,0.9998786664826168,20.82017809190274
33.0,100.00419924928099,74.2987136056379,0.9998833380078572,21.463464566884685
34.0,100.02303389102282,73.9076624701397,0.9998875653179944,22.127696694839653
35.0,100.04717298367058,73.5295212645881,0.999891391186889,22.81241436772483
36.0,100.07784145537005,73.16376315638131,0.9998948529716153,23.517026195520053
37.0,100.11633003264778,72.80987048552149,0.999897986533885,24.24090556790386
38.0,100.1641974368072,72.46735996258059,0.9999008225526211,24.983317718367164
39.0,100.22311146421498,72.13576104079887,0.9999033901611334,25.743496386308447
40.0,100.29491480733525,71.81462563568408,0.9999057151800971,26.52062109487858
41.0,100.38163052995853,71.50352791912056,0.9999078208177379,27.313840444294105
42.0,100.48535344493614,71.20205254738003,0.999909728834449,28.12228699314502
43.0,100.60833884390317,70.90981149626424,0.9999114578639279,28.945084115668227
44.0,100.6667075856964,66.66692191339008,0.9999130256612716,29.781358581454743
45.0,100.6666774701882,60.08787385776221,0.9999144478493409,30.630245738746392
46.0,100.66665029734024,54.1635398276332,0.9999157386020902,31.49090157139223
47.0,100.66662575125402,48.82808228446103,0.9999169107276871,32.3625076419307
48.0,100.66660355309304,44.022331096170795,0.9999179757881824,33.24427607921658
49.0,100.66658345632247,39.69317810498557,0.9999189442143468,34.13545358035669
50.0,100.6665652425295,35.79288757165152,0.9999198254123848,35.03532423547909
51.0,100.66654871778145,32.27855969495183,0.9999206278646938,35.943211230911935
52.0,100.66653370965938,29.111661910878155,0.999921359215206,36.858477976291276
53.0,100.66652006456,26.25752867524845,0.9999220263526757,37.780528205675424
54.0,100.6665076454456,23.685006628767432,0.999922635484206,38.70880559974912
55.0,100.6664963299312,21.366081259425858,0.9999231922001582,39.642793024566195
56.0,100.66648600853674,19.275542062906194,0.9999237015372052,40.58201111025872
57.0,100.66647658326082,17.390727313728476,0.9999241680315526,41.52601682382573
58.0,100.66646796628932,15.691235965684243,0.9999245957688656,42.47440169468014
59.0,100.66646007885288,14.158709662201677,0.9999249884302499,43.42678984639101
60.0,100.66645285027604,12.776634850049845,0.999925349331267,44.382836163845454
61.0,100.66644621707918,11.530135379452213,0.9999256814598143,45.34222419323469
62.0,100.66644012221835,10.405826263866256,0.9999259875088881,46.30466418846992
63.0,100.6664345144159,9.391654288800014,0.9999262699057542,47.26989122549252
64.0,100.66642934753337,8.47676056772215,0.9999265308397914,48.2376632285572
65.0,100.66642458005093,7.651372531247925,0.9999267722858142,49.20775925247218
66.0,100.66642017458018,6.906681830895242,0.9999269960260533,50.17997774713739
67.0,100.66641609742922,6.2347542507440785,0.9999272036700003,51.15413491571621
68.0,100.66641231823311,5.62844456264684,0.9999273966713005,52.13006327348119
69.0,100.66640880959851,5.081309555478071,0.9999275763440949,53.107610179279185
70.0,100.6664055468023,4.587546549755656,0.9999277438769488,54.08663655487013
71.0,100.66640250752054,4.141924501584776,0.9999279003453779,55.067015697096785
72.0,100.66639967157438,3.7397267968691943,0.9999280467236515,56.04863212214952
73.0,100.666397020718,3.376704762468499,0.9999281838946511,57.03138058614115
74.0,100.66639453843742,3.04902537088646,0.9999283126592291,58.01516512860788
75.0,100.6663922097722,2.753233484568185,0.9999284337445399,58.99989820649695
76.0,100.6663900211623,2.486214653547883,0.9999285478111823,59.985499941345104
77.0,100.66638796030033,2.2451583593033924,0.9999286554601098,60.9718973752597
78.0,100.66638601600704,2.0275317116876233,0.9999287572384665,61.95902383672842
79.0,100.66638417811768,1.8310494033938243,0.9999288536449077,62.94681835407925
80.0,100.66638243737624,1.6536496316471632,0.9999289451345704,63.93522510008675
81.0,100.6663807853468,1.4934738120932982,0.9999290321232357,64.92419292387244
82.0,100.66637921432877,1.3488440118419338,0.9999291149913216,65.9136748956639
83.0,100.6663777172822,1.2182469432192684,0.9999291940874041,66.90362790257451
84.0,100.66637628776292,1.1003175083156826,0.9999292697312759,67.89401229471588
85.0,100.66637491985982,0.9938231903107295,0.9999293422169124,68.88479153886038
86.0,100.66637360814215,0.8976526309218328,0.9999294118149713,69.8759319250284
87.0,100.6663723476104,0.8108024485793192,0.9999294787751137,70.86740229203967
88.0,100.66637113365101,0.732367011855245,0.9999295433281614,71.85917377071135
89.0,100.6663699619978,0.6615294889367301,0.9999296056879258,72.85121956527594
90.0,100.66636882869473,0.5975520622906327,0.9999296660529851,73.84351473938932
91.0,100.66636773006299,0.5397690739402747,0.9999297246082497,74.83603602694387
92.0,100.66636666267175,0.48757968525076767,0.9999297815263567,75.82876166255959
93.0,100.66636562330982,0.44044122462206314,0.9999298369690248,76.82167121607398
94.0,100.66636460896129,0.3978641667457996,0.9999298910882162,77.81474544994167
95.0,100.66636361678235,0.35940632693696356,0.999929944027242,78.80796618282481
96.0,100.66636264407965,0.3246684860245922,0.9999299959217945,79.80131616172037
97.0,100.66636168829122,0.29329040616838503,0.9999300469008563,80.79477894858289
98.0,100.6663607469675,0.264946577293183,0.9999300970875962,81.78833880811086
99.0,100.6663598177544,0.23934325105660414,0.9999301466001791,82.78198060574627
100.0,100.666358898377,0.21621515623332146,0.9999301955525252,83.77568971139851
101.0,100.66635798662388,0.19532264844835118,0.9999302440550513,84.76945190496173
102.0,100.66635708033238,0.17644948561271898,0.9999302922153521,85.76325328885854
103.0,100.66635617737408,0.1594002646112724,0.99993034013887,86.75708020139595
104.0,100.66635527564071,0.14399853848339864,0.9999303879295407,87.75091913282331
105.0,100.66635437303027,0.1300850303309733,0.9999304356904181,88.74475664311262
106.0,100.6663534674331,0.11751578298373859,0.999930483524297,89.73857927969873
107.0,100.6663525567178,0.10616086352191269,0.9999305315343269,90.73237349566597
108.0,100.66635163871703,0.09590289136561451,0.9999305798246322,91.72612556602492
109.0,100.6663507112129,0.08663581174567216,0.9999306285009317,92.71982150390335
110.0,100.66634977192156,0.07826390370876395,0.9999306776711817,93.71344697222898
111.0,100.66634881847727,0.0707006471434218,0.9999307274462316,94.70698719325996
112.0,100.66634784841574,0.0638679085695204,0.9999307779404951,95.70042685493604
113.0,100.6663468591557,0.05769513587602585,0.9999308292726788,96.69375000831124
114.0,100.66634584798005,0.05211855397293099,0.9999308815665119,97.68693996402638
115.0,100.66634481201491,0.04708059410188685,0.9999309349515433,98.67997917807082
116.0,100.66634374820673,0.042529234096398,0.9999309895639951,99.67284912843448
117.0,100.66634265329824,0.03841746875375685,0.999931045547633,100.66553018808283
118.0,100.66634152380081,0.0347028651430419,0.9999311030547624,101.65800147839268
119.0,100.66634035596496,0.03134706185469737,0.9999311622472516,102.65024071705066
120.0,100.66633914574805,0.028315415467094842,0.9999312232976382,103.64222405200873
121.0,100.6663378887767,0.025576635823085735,0.9999312863903886,104.63392587080881
122.0,100.66633658030771,0.023102437055637973,0.999931351723165,105.62531860637714
123.0,100.66633521518246,0.02086728419264371,0.9999314195082866,106.61637251121235
124.0,100.66633378777605,0.0188480976645165,0.9999314899743047,107.60705541073754
125.0,100.66633229194304,0.017024023968935723,0.9999315633676424,108.59733244340222
126.0,100.66633072095203,0.015376235460012395,0.9999316399545238,109.58716575191394
127.0,100.66632906741651,0.013887709258676164,0.9999317200229421,110.57651416247107
128.0,100.66632732321587,0.012543073142474609,0.9999318038848436,111.56533282444936
129.0,100.666325479403,0.01132843990064113,0.999931891878615,112.55357279455528
130.0,100.66632352610675,0.010231256247347215,0.9999319843715777,113.5411806094735
131.0,100.66632145241525,0.009240189572286736,0.9999320817629098,114.52809777984861
132.0,100.66631924624573,0.00834499578555289,0.9999321844867444,115.51426024040317
133.0,100.66631689420191,0.007536419804331443,0.9999322930154027,116.49959776113509
134.0,100.66631438140118,0.0068061051095720795,0.9999324078631902,117.4840332453923
135.0,100.66631169128961,0.0061464963586426455,0.9999325295901723,118.46748200318225
136.0,100.66630880542627,0.005550771868620752,0.999932658806383,119.44985092218458
137.0,100.66630570323031,0.005012768525454041,0.9999327961764856,120.43103751982223
138.0,100.6663023617087,0.004526916350899541,0.9999329424243389,121.41092896352076
139.0,100.66629875512587,0.004088187764538685,0.9999330983382925,122.38940090509293
140.0,100.6662948546335,0.003692038631799518,0.9999332647765198,123.36631622933047
141.0,100.6662906278544,0.0033343650809490167,0.9999334426724363,124.34152370099001
142.0,100.66628603837526,0.0030114626188893746,0.9999336330408275,125.31485636268708
143.0,100.66628104519442,0.0027199834633491893,0.9999338369834434,126.28612989082538
144.0,100.66627560206416,0.0024569069412972546,0.9999340556949982,127.25514070642036
145.0,100.66626965671439,0.0022195056869231673,0.9999342904691744,128.22166385149356
146.0,100.66626314999341,0.002005317476139386,0.9999345427037042,129.1854507968916
147.0,100.66625601480926,0.001812122687813677,0.9999348139057416,130.1462268421554
148.0,100.66624817492435,0.001637918356304345,0.9999351056958447,131.1036883804152
149.0,100.66623954355623,0.0014808997831537384,0.9999354198107652,132.05749993570214
150.0,100.66623002164965,0.0013394424845369953,0.9999357581052801,133.00729070632326
151.0,100.66621949593836,0.0012120838973523273,0.9999361225508422,133.95265109232747
152.0,100.66620783655034,0.0010975118619349186,0.9999365152323255,134.89312865884827
153.0,100.66619489415825,0.0009945491201036672,0.9999369383406588,135.82822381508922
154.0,100.6661804966387,0.0009021441643162311,0.9999373941609366,136.7573852818738
155.0,100.66616444485007,0.0008193599927945362,0.999937885055136,137.68000483381218
156.0,100.66614650775995,0.0007453675509561621,0.9999384134377375,138.5954121017152
157.0,100.66612641611191,0.0006794382204810201,0.9999389817431015,139.5028683527995
158.0,100.66610385509672,0.0006209398949835219,0.9999395923832952,140.40156055001492
159.0,100.66607845456025,0.0005693336441340494,0.9999402476934915,141.29059400646503
160.0,100.6660497775118,0.0005241741288946526,0.9999409498654896,142.16898550216658
161.0,100.66601730496785,0.00048510973524384146,0.9999417008645825,143.03565513811733
162.0,100.6659804164774,0.00045189034147078935,0.999942502329251,143.88941745114764
163.0,100.6659383663424,0.00042437446969198283,0.9999433554561014,144.72897290596677
164.0,100.66589024634632,0.0004025515845899474,0.999944260843524,145.55289433192772
165.0,100.66586945158743,0.00040301588779382446,0.9999452183644864,146.35962158081054
166.0,100.66589351059086,0.00043112545930039446,0.9999462269515319,147.14744293964026
167.0,100.66591764367324,0.00046510840990299755,0.999947284404421,147.9144825443415
168.0,100.66594187110015,0.0005065209284042897,0.9999483871608005,148.65868267381722
169.0,100.66596624909279,0.0005574284873423677,0.9999495300481113,149.3777828694913
170.0,100.66599088254054,0.0006206052700215887,0.9999507060182733,150.06929448155282
171.0,100.6660159395614,0.0006998243314165695,0.9999519058694577,150.73046909001943
172.0,100.66604166501672,0.0008002871491207474,0.9999531179582026,151.35825834666602
173.0,100.66606838862867,0.0009292687853163176,0.9999543279080446,151.9492622532552
174.0,100.66609651576502,0.001097104329059505,0.9999555183197849,152.49966141335383
175.0,100.6661264756705,0.0013187254254164798,0.999956668489319,153.00512710420705
176.0,100.66615857721006,0.0016161006542860506,0.9999577541375894,153.46070037836338
177.0,100.6661926619442,0.0020222036739151053,0.9999587471549218,153.8606269217542
178.0,100.66622733326284,0.0025876180795286327,0.9999596153613229,154.19812849932256
179.0,100.66625827453196,0.0033918396834913813,0.9999603222803176,154.46508091259244
180.0,100.66627461203663,0.004563218372567404,0.9999608269193069,154.65155095899595
181.0,100.66625095257102,0.006315368727736937,0.9999610835476614,154.74511497477937
182.0,100.66612958283119,0.009016361284929558,0.999961041455404,154.72982597361943
183.0,100.66577930067724,0.013326384414289056,0.9999606446736513,154.58459292101657
184.0,100.66489582310327,0.020487032359025256,0.9999598316280482,154.2805250817131
185.0,100.66274602714476,0.032970607185332915,0.9999585346907771,153.7763419452061
186.0,100.65745778667377,0.056061349496497874,0.9999566795808744,153.00988395190757
187.0,100.64383191305761,0.10213027462812105,0.9999541845347241,151.88096153788806
188.0,100.60556218244267,0.20392376734500392,0.9999509591007384,150.2122951915355
189.0,100.48114354436673,0.46497958362257125,0.9999469022100703,147.64368781376592
190.0,100.51434750966318,0.7099154460614586,0.9999418984381471,143.25274060622573
191.0,100.82663500812342,0.7039658147936972,0.9999358070474926,133.14076335429186
192.0,101.14376596230598,0.6978901385734085,0.9999284330647441,59.00381335082446
193.0,101.46550480580709,0.691687422791759,0.9999201341312042,35.37509851932136
194.0,101.79153879381792,0.6854178874365972,0.9999109256238125,28.682247300779448
195.0,102.12130538216368,0.6795068767777296,0.9999006412881782,24.93340624607835
196.0,102.4549396591577,0.6736719657972154,0.9998891312043455,22.39758972797326
197.0,102.79206684607513,0.6681255288453049,0.9998762375568032,20.517399010698774
198.0,103.13223349399509,0.6632822538830601,0.999861788654381,19.044598731237155
199.0,103.47478876339173,0.6600300474985268,0.9998455957974204,17.84754073815064
200.0,103.81855320072685,0.6604279356980438,0.9998274508753479,16.84824416422205
201.0,104.16076539952898,0.669709711298528,0.9998071241816916,15.996817442433757
202.0,104.4932029756981,0.7029028986092597,0.999784362186161,15.259491054425169
203.0,104.78475378350224,0.8112118976212551,0.9997588853408818,14.612402483363386
204.0,104.92457921153341,1.169950838797431,0.9997303857587309,14.038108393150923
205.0,105.13441923389647,1.6278528051104268,0.9996985247770631,13.523503705050334
206.0,105.49563023984547,2.0743252995808903,0.9996629305456423,13.05852274563143
207.0,105.9722527800655,2.5100520034751104,0.9996231952579615,12.635292958007394
208.0,106.53345608272569,2.935757471629474,0.9995788726292716,12.24755359818119
209.0,107.15323286229024,3.35197090248008,0.9995294750677596,11.890262565967403
210.0,107.80953005306965,3.7593602718531356,0.9994744708694749,11.559311376170625
211.0,108.48304931230948,4.1594667300902515,0.9994132813269738,11.251322952566374
212.0,109.15473114382334,4.556652562000442,0.9993452778359826,10.963492599064546
213.0,109.79790230809688,4.965082782870084,0.9992697791914091,10.693474748480774
214.0,110.34511681677402,5.439481803647374,0.9991860486525216,10.43929501047759
215.0,110.62589855822448,6.1284571496103135,0.9990932912868419,10.199280658357788
216.0,110.60922856143263,7.027315607870351,0.9989906513741988,9.972006569846949
217.0,110.33675329612312,8.06162407939291,0.9988772100250329,9.756252129362194
218.0,109.8465869637961,9.173265279090735,0.9987519830035205,9.550966806297678
219.0,109.17806525376679,10.317314956263363,0.9986139188694328,9.35524227403315
220.0,108.37109759599913,11.459482087114715,0.9984618974538078,9.168289701868343
221.0,107.46363928919799,12.573964562780018,0.9982947287734537,8.989421150046994
222.0,106.4900783190852,13.641102570609995,0.998111152430525,8.81803418542415
223.0,105.48399166628114,14.642167516968902,0.9979098376523552,8.653599122795942
224.0,104.49350519785749,15.543356351597685,0.9976893838609442,8.495648427868105
225.0,103.57792339637697,16.29970122926561,0.9974483220776418,8.34376776768658
226.0,102.78027275692322,16.882022768690984,0.9971851171278732,8.197588537373491
227.0,102.11759269091081,17.285656191498582,0.9968981706385193,8.056781697949482
228.0,101.58574711411664,17.525146442832675,0.9965858253317796,7.921052181026705
229.0,101.16872530804248,17.624919474415332,0.9962463698817481,7.7901346071644
230.0,100.8465884092132,17.611610031295985,0.9958780454758409,7.663789199204942
231.0,100.59986667294127,17.50998256675776,0.9954790530077813,7.541798712536202
232.0,100.41057966139137,17.34219988504795,0.9950475620940146,7.423965425463392
233.0,100.26246270704227,17.12775274871223,0.9945817208932152,7.310108886136802
234.0,100.14200886752141,16.88255741940336,0.9940796676939184,7.200063725473945
235.0,100.03883524127447,16.618731808864112,0.9935395434883073,7.093677939938751
236.0,99.94519714869841,16.34521527502211,0.9929595063873103,6.990811354941578
237.0,99.8552366918863,16.068620272896894,0.992337746904375,6.891334259930129
238.0,99.76432865239556,15.793948273478687,0.9916725048319807,6.795126289034992
239.0,99.66863195377857,15.525075074319401,0.9909620873495586,6.7020754232180275
240.0,99.56484690589201,15.265017250138534,0.9902048882512146,6.6120771236992
241.0,99.45005590204845,15.01611067882793,0.9893994085014897,6.525033591329295
242.0,99.32159235258939,14.78015873508301,0.9885442782175666,6.440853121314897
243.0,99.17694762366783,14.55854335300331,0.9876382773147266,6.359449474725461
244.0,99.01372380231476,14.352299076968576,0.9866803524892533,6.280741316305967
245.0,98.82963385767303,14.162126309573615,0.9856696598067007,6.204652163420769
246.0,98.62248052396748,13.988435562043392,0.9846055617414186,6.131109417916574
