Time,J,A,S,tau
0.0,100.0,100.0,0.893215943878429,10.309278350515463
1.0,97.139132878857,93.60281020973734,0.8806995412361542,9.938364511455827
2.0,94.22769821630807,87.69290775232356,0.8672657387357541,9.54235534186508
3.0,91.2808163303599,82.23057412034382,0.8528984721370729,9.121398645041756
4.0,88.31928363363026,77.17691156254344,0.8375868224246648,8.675839544533416
5.0,85.37031772041814,72.49677275610613,0.8213254015510544,8.206220334875972
6.0,82.46613970788916,68.15839742452488,0.8041117239661777,7.7132503797588585
7.0,79.64248111335935,64.13301228271226,0.7859491213409078,7.197903831642318
8.0,76.92808093769104,60.4018506751164,0.7777589407093839,7.0334999851852
9.0,74.35390642317218,56.94305421841891,0.769160570791059,6.871810097061777
10.0,71.9388415590629,53.7426593366899,0.7607906374903787,6.750880342180352
11.0,69.6882652998147,50.79353388352924,0.7528458123761566,6.663474668010662
12.0,67.58001062858328,48.107358398600496,0.7451567531148641,6.595787179359823
13.0,65.56140007744393,45.717235458919596,0.7374505613027761,6.539953887125975
14.0,63.59550794527492,43.63260390936027,0.7294270335114187,6.4928697761099485
15.0,61.666318948955556,41.83642506262169,0.7207946232826387,6.454404213758361
16.0,59.757186317533055,40.30897859740641,0.7113764541619524,6.425353188303865
17.0,57.848624497733276,39.03323450385259,0.7011219927512412,6.406421862360969
18.0,55.92627914730391,37.98918654017594,0.6900310962883899,6.398081639236523
19.0,53.98734318909582,37.14932960584004,0.6780879834236143,6.400596641145647
20.0,52.04182417981779,36.47835782986624,0.6652121715860689,6.4142719934191055
21.0,50.10935416400547,35.93659136645246,0.6511927888044249,6.440274089215687
22.0,48.213750025243606,35.48510987321839,0.6356165821181242,6.481794200965178
23.0,46.36759335745098,35.1003850769728,0.6182666222265856,6.5413220093167945
24.0,44.54295181991969,34.8025074290077,0.6003663901420634,6.61040645236898
25.0,42.704312025325166,34.620703567574516,0.5832415379242082,6.680483057568411
26.0,40.83519412006259,34.56420831676419,0.566916404762525,6.7567926087626695
27.0,38.935500109960394,34.62274882349679,0.5512215918551298,6.8479154100664115
28.0,37.052252603520216,34.736080804063285,0.5359897688983977,6.956917321019741
29.0,35.228919094517046,34.8463328531225,0.5208827981186478,7.072691695298523
30.0,33.508615391710165,34.91022929863678,0.50547311255954,7.176409042445309
31.0,31.9687901778102,34.86502650623157,0.48939783246238294,7.26325906294944
32.0,30.64433217199142,34.68810032680168,0.4717460613872426,7.350110066994349
33.0,29.6502030292437,34.26821426720727,0.442733900634353,7.5523062374130765
34.0,28.618110744814558,33.96917380550113,0.41991698027170166,7.702921821978251
35.0,27.498322325327194,33.83351695228465,0.40333264490089216,7.800380759815448
36.0,26.37000533686039,33.765334152413274,0.38811877467004713,7.905963587042005
37.0,25.286021083580472,33.687160650267245,0.37359806444837806,8.019556557576527
38.0,24.288885874190374,33.53217731913456,0.3593243163668241,8.125294154674108
39.0,23.433126595550515,33.27657485983347,0.34494444153724846,8.214836586035013
40.0,22.740666668106368,32.90998972707107,0.32967119018520374,8.304365122444667
41.0,22.372854287157857,32.27140976823307,0.2958991733124855,8.647769212573749
42.0,21.81096682718346,31.871369376829318,0.2798291229714607,8.771814270568667
43.0,21.203790642172024,31.549854310695647,0.26682780930167393,8.866158751136277
44.0,20.59696374948209,31.242968199984453,0.2547552180491198,8.966835002447521
45.0,20.017248180621124,30.887192390369773,0.24322747841701273,9.067315390644366
46.0,19.50030483628712,30.46724817579879,0.2319705607127678,9.157735641239253
47.0,19.067063723118462,29.976972950921223,0.22060761357845957,9.243084309707582
48.0,18.8408201540174,29.294894635660956,0.19183864211818197,9.654983415718416
49.0,18.477194554923614,28.76034763277525,0.1794620018269302,9.798559984211332
50.0,18.060038073200772,28.282268841120537,0.17008607879791346,9.890862453428745
51.0,17.628234913113236,27.81025475984557,0.16146131261786387,9.986356239851798
52.0,17.20133930922312,27.298245436168568,0.15331234329237692,10.07993486333679
53.0,16.800699441741475,26.75232695200525,0.14543413943368486,10.16614033658749
54.0,16.43798500995454,26.168577113625535,0.13708672904072874,10.27165136168339
55.0,16.167774728801096,25.493816075476897,0.11460641789953262,10.780791805923336
56.0,15.77678594253763,24.939687401045173,0.10809295125640614,10.876090095452847
57.0,15.372510936315226,24.39476453669359,0.10230388303291459,10.96707005763677
58.0,14.96517975896784,23.833780334227168,0.09693719870486565,11.057078027502035
59.0,14.56879596629714,23.25870390378711,0.09183874241042825,11.14205413941295
60.0,14.190822167141503,22.670759992497764,0.0865588749199142,11.245326602493469
61.0,13.86612970750844,22.038114050746394,0.07059971229327329,11.802104023721363
62.0,13.47774066765872,21.478563870886788,0.06664470089997537,11.894049373054141
63.0,13.089940622690234,20.927387708622195,0.06316499440944533,11.978890410028491
64.0,12.708416459838283,20.370857304976983,0.05997279752929032,12.061070288914438
65.0,12.33902746584705,19.815534521300442,0.05696748978952899,12.140011583485183
66.0,11.987750839514574,19.259690294219787,0.05371388559647678,12.25378438997747
67.0,11.667254817269086,18.69271262451883,0.043172234953831115,12.82637192467945
68.0,11.324756442312943,18.16816698085381,0.04100792367684617,12.907486920934737
69.0,10.993154927039301,17.653534190430673,0.03912007856661046,12.980137144195266
70.0,10.674187198338556,17.143012788943853,0.03741544012150496,13.048821343014627
71.0,10.369877179792597,16.640994056581132,0.03584590745337115,13.114179106875604
72.0,10.081427473425435,16.14826985942006,0.03431977754882238,13.187823056819244
73.0,9.822457098977207,15.651926273375881,0.02728850452730861,13.779159931322313
74.0,9.56085217935739,15.184410670949536,0.026096388018620267,13.864490427365673
75.0,9.312557688983391,14.729799500013653,0.025175088302004326,13.92029744203705
76.0,9.079278202272185,14.286346736464745,0.024386763750645735,13.968660465548199
77.0,8.861062311386357,13.853316606230523,0.02370520093827007,14.011731964077285
78.0,8.6577097510621,13.429731161563323,0.02311817549343312,14.049740273158758
79.0,8.469226076118213,13.017678308325694,0.022617338007724364,14.08310425149574
80.0,8.29543818975341,12.617287001967508,0.022196760337207244,14.112470690181697
81.0,8.136167144565379,12.228488796550723,0.02185179569004624,14.138585412053802
82.0,7.991213470732263,11.851167226043618,0.02157949811782165,14.16188540060539
83.0,7.860331373382291,11.48524040130139,0.021381429813879468,14.181658949952336
84.0,7.743166168250303,11.130713487418399,0.021269800989533377,14.194743171697455
85.0,7.639305253506486,10.787661984258651,0.0212667736763756,14.1960484951993
86.0,7.5485168472629685,10.455995002314513,0.02137812477126188,14.184346007228106
87.0,7.4707715309016685,10.135451600484185,0.02158439107863428,14.164087265658093
88.0,7.406033021860686,9.825807814262234,0.021869203420201513,14.139361888506627
89.0,7.354151817020353,9.526972475698205,0.022228531220821877,14.111576946581552
90.0,7.3149578597566185,9.238951438435445,0.022664892074168056,14.080568763790946
91.0,7.288296240113784,8.96178596656645,0.023183437045694165,14.045677458975861
92.0,7.274121508696175,8.69555485443976,0.023791302046704,14.006212140175045
93.0,7.2727319317249215,8.441285866539639,0.02449852913694116,13.961592540433731
94.0,7.284349966365625,8.197990147666236,0.025324249991094023,13.910304184841335
95.0,7.309114152986676,7.965518642355012,0.026328877577286462,13.843570011398153
96.0,7.33964957328311,7.751646355245178,0.03426298312581379,13.207706137701962
97.0,7.388960626347598,7.543942960134091,0.03598283654640453,13.109652667873274
98.0,7.4524404423994834,7.347402555599728,0.037615447156257566,13.040292732594308
99.0,7.529714615762298,7.1635124433503075,0.03938365274707305,12.97008535593102
100.0,7.622801825960724,6.992454244279294,0.04136568009926891,12.894016549127754
101.0,7.731809511791351,6.834046093911234,0.04401459386267699,12.76758074429809
102.0,7.847595923476982,6.699173581194121,0.05720556636162428,12.134137097675657
103.0,7.98883905421186,6.570380816703268,0.060343403823619995,12.049835368170474
104.0,8.147214126768114,6.4578166724048645,0.06365019395330362,11.967804909483291
105.0,8.327913978456445,6.360088594633034,0.06729867570523493,11.881300684847014
106.0,8.530477532247291,6.278733239571352,0.07319348430528717,11.68526836625705
107.0,8.747902415310605,6.224284039774709,0.09229064648247273,11.130601578724455
108.0,8.997719406930003,6.181480749930366,0.09757705762263835,11.043480326368487
109.0,9.272227614000291,6.1619954687658955,0.103120153552587,10.956524815662469
110.0,9.582314179807492,6.159355367291559,0.10916857312760894,10.866615993691124
111.0,9.929604301124028,6.175477571693253,0.11840627528671513,10.680056583215999
112.0,10.301485742019175,6.228899714599442,0.14611017579344163,10.150703882531365
113.0,10.72009115991963,6.3013823440996015,0.15424880772363778,10.063596970480823
114.0,11.1716823074133,6.411082198952869,0.1626279775869932,9.975204971394806
115.0,11.673879454833937,6.548327129207129,0.17154330185137567,9.885606249378283
116.0,12.242418240354015,6.7014933827338625,0.1815829486581027,9.787001127496818
117.0,12.84374281213468,6.911878861985565,0.22105058647962927,9.231986102522916
118.0,13.520503383944664,7.143052460474482,0.2330602112229279,9.136483649851655
119.0,14.229670459864893,7.4411718659101735,0.2445902601852901,9.049698791091254
120.0,14.97557653278552,7.805422634005486,0.25641351900577175,8.957276664220737
121.0,15.783806239183205,8.213466804494516,0.268855312287831,8.864854530124644
122.0,16.673377710805845,8.647419261014399,0.282605181036403,8.76913134811235
123.0,17.582200042284658,9.171864762329282,0.3293102544581079,8.299312338139474
124.0,18.55356839363411,9.740002027634123,0.34615337331813256,8.189032083629998
125.0,19.498425867046198,10.429193747847485,0.360846269509391,8.101882384655797
126.0,20.378561469427222,11.256623848058185,0.3754279461729039,8.004188697883775
127.0,21.203733552627483,12.19138140466866,0.39031922261374163,7.901830859579937
128.0,21.99623831850664,13.186840352147291,0.4060210427675045,7.804688817318535
129.0,22.75346837912621,14.228024035916606,0.42400525926102617,7.700072530469421
130.0,23.326062719838465,15.44088804861368,0.47128712600761785,7.335557357478311
131.0,23.788184084821236,16.71812460560503,0.49057521391396475,7.233615082429848
132.0,23.995226959900045,18.16702810614757,0.5069367703548392,7.148925568125615
133.0,23.941576369337973,19.75593832459591,0.522601915679592,7.052212438855964
134.0,23.695883862002642,21.39363075995742,0.538013955622301,6.948076176743647
135.0,23.28634611284965,23.040734515245855,0.5535854843350944,6.850576887018898
136.0,22.72624106468955,24.676197940112086,0.5696487401478136,6.767098005836432
137.0,22.042340154025965,26.26558386013377,0.5865314957361604,6.693329839681505
138.0,21.232364320882223,27.802330847139793,0.6053044083983701,6.61423909618609
139.0,20.277448012630952,29.298723904329464,0.6280878490533892,6.510906665472947
140.0,19.258836666608502,30.671731129569785,0.6486160721535997,6.431424152249663
141.0,18.24356994306114,31.85755341909868,0.6642011962596104,6.393686107326185
142.0,17.241405115250444,32.85282751087741,0.677530249895344,6.376890051474911
143.0,16.26889804687195,33.64942083905718,0.6895358286089245,6.373834552101713
144.0,15.344493550997772,34.239077015105195,0.7004673095817343,6.382567523289052
145.0,14.483659773545572,34.61812080484835,0.7103431815343496,6.402546969251921
146.0,13.698897699562423,34.78716826683607,0.7190857250322454,6.433643064608643
147.0,12.997494837202693,34.75289898969172,0.7266778239774166,6.475317110209722
148.0,12.374437614217632,34.53477624601024,0.7334689681541676,6.524898822541033
149.0,11.809485791926337,34.167904691299775,0.7401541440726721,6.578314897325463
150.0,11.273074160554405,33.697152929785965,0.7471327154734205,6.635555583435771
151.0,10.717931804350636,33.18564677079038,0.7544456937417626,6.702294284194088
152.0,10.113432909474517,32.680554757392244,0.7621482028894868,6.787736457997252
153.0,9.517411628537241,32.140894105283394,0.7702776642599428,6.902844346049059
154.0,8.989406223300698,31.523383178799932,0.7785423058192792,7.047232480585249
155.0,8.548871817429538,30.82422895047651,0.7862446755731726,7.188747263736424
156.0,8.238155522652027,30.016115404665484,0.7926698774677475,7.305917613098938
157.0,8.140157360825675,29.030288549016202,0.7975539653308596,7.406374597104574
158.0,8.223943605996261,27.91116489734115,0.8012792747732,7.502091956308207
159.0,8.365191816932454,26.79759190642825,0.8050219429474696,7.600445914511447
160.0,8.448242735341005,25.821425902338976,0.8098079605359233,7.713730844013145
161.0,8.504766645664626,24.968938897840307,0.81591565668269,7.866759049779108
162.0,8.658048779524924,24.133496520682403,0.822722564009557,8.069231961061398
163.0,8.932452637053455,23.30728301943103,0.8287863676168133,8.248786795010064
164.0,9.421890417278954,22.41512135084354,0.8331601995730032,8.38307967122809
165.0,10.197023926662382,21.402527251632023,0.8362044766699593,8.499112386609474
166.0,11.096193484320207,20.445257783474492,0.8392390717336681,8.617683214618085
167.0,11.982138751143324,19.695840216518427,0.8435017576718022,8.764005999964402
168.0,12.98310592099119,19.03982940778765,0.8491305636978357,8.977516432256111
169.0,14.178909057269534,18.400222902449137,0.8547132650417937,9.20705505211096
170.0,15.548604592645637,17.806381260366155,0.8587041519993721,9.37041409439831
171.0,17.200051839147584,17.148932746882817,0.8612640818636123,9.503355316162972
172.0,18.9721408409168,16.57662720126104,0.8638673194200163,9.640171836670028
173.0,20.719611523688343,16.22804066051638,0.8678439406001061,9.82193952779651
174.0,22.707740149261838,15.823335731486344,0.8729103875075384,10.088337933873847
175.0,24.688690119289877,15.57882931706382,0.8771187785258776,10.308002678865344
176.0,26.768925736232745,15.37479685035332,0.8796118795112164,10.464443212927282
177.0,28.874676319908662,15.247161704973832,0.8816466010830304,10.613131778857879
178.0,30.868437343038316,15.320147558226559,0.8848905170148084,10.806909768508946
179.0,33.22288515753562,15.092926701204211,0.8893034626137799,11.10273333761838
180.0,35.22955094812909,15.22613034705935,0.8927865998450446,11.336855627136643
181.0,37.14280877577603,15.473262916285158,0.8946564804701848,11.504340043395255
182.0,38.92968979649033,15.83651656800583,0.8965762773486647,11.677911827943479
183.0,40.83882366726518,16.078806014781954,0.8999910745406096,11.944307728811578
184.0,42.99627466225358,15.997337285098098,0.9036292943400412,12.258062921109218
185.0,44.46622778604543,16.55922537336129,0.9055851602666879,12.458156049524877
186.0,45.83876583474409,17.180280033461976,0.9069943096638532,12.642175234814033
187.0,47.43251000168092,17.56095541354346,0.9097961267165828,12.917574872154553
188.0,49.52194282856569,17.34345561810005,0.9130107031199152,13.266305675008018
189.0,50.65355648373869,18.035837536495766,0.9145374552151573,13.48230396668113
190.0,51.731523411448094,18.766807687926526,0.915821829986016,13.693516810154195
191.0,53.76181086863994,18.533169799444003,0.9186321279884104,14.05414161431908
192.0,55.301026153424466,18.68318125105022,0.9209114304811943,14.372285427472413
193.0,56.28138715988597,19.404998900384044,0.9217463924577506,14.591358474606507
194.0,57.747165075017406,19.68112980827685,0.9236678337566113,14.90110635493504
195.0,60.06019578489879,19.021024998682304,0.9261037789393657,15.312175459180228
196.0,61.0263015407535,19.7140386234634,0.9268501759387088,15.557449413355062
197.0,62.52720051196478,19.953544364393967,0.9283454913879231,15.87501408228927
198.0,65.091536352622,19.049640016792186,0.9305166259357499,16.32369716729705
199.0,66.14574084449565,19.68226690058686,0.931035803359514,16.587760782812126
200.0,68.25641624121342,19.35856183346496,0.9326266636711389,16.985568423833904
201.0,70.49747007224931,18.799957688897212,0.9341725304364418,17.407486676585673
202.0,71.63961558668284,19.44376298182724,0.9345777491183214,17.696690264002093
203.0,74.90132036288604,17.992154853491854,0.9364577387911357,18.226017969281838
204.0,76.12962604218993,18.51709589496186,0.9369512738053016,18.550408305528443
205.0,78.50819647406345,18.04252125717031,0.9380954379901545,18.992060445143792
206.0,80.84954285121567,17.483827847643607,0.9391723332393881,19.45118225236062
207.0,82.33924620746332,17.919979343079337,0.9396394934444896,19.810704416467104
208.0,85.5865552598054,16.18448157110581,0.9410128267885141,20.380633478480405
209.0,86.63780562493949,15.983194966059663,0.9411771077077636,20.72828982558266
210.0,89.94181332041464,13.143175005145176,0.942547698212386,21.339500490245875
211.0,90.728229727592,12.723731661172813,0.9426170678959344,21.697751296836504
212.0,93.78871870769075,10.048876773139808,0.9438803437392059,22.33252031905461
213.0,94.22225985890813,9.964955705726643,0.9439154830303589,22.706565417605024
214.0,96.8627423279317,7.670579825510736,0.9450483803875249,23.359825182250827
215.0,96.83024092672144,7.950547467623421,0.9451012083948108,23.75618587260323
216.0,98.91389634886191,6.076794374544705,0.9460332046369619,24.41564371553454
217.0,98.79232243765235,6.256674657525731,0.9462412800569312,24.86980095843456
218.0,99.88585868785532,5.2233603847608965,0.946814450975689,25.49445112053525
219.0,100.55528000781248,4.482889846392841,0.9473339481526029,26.12200187444852
220.0,100.04519648696245,4.93862502889422,0.9474652535694815,26.59909297356159
221.0,101.13129416352064,3.6420881502406437,0.9482529319762913,27.315284993003868
222.0,99.72419277729793,4.70977505756715,0.9482107396848122,27.756793619056708
223.0,100.53402475556379,3.523176131221182,0.9487834958966761,28.468745170416216
224.0,100.47836906480502,3.158014044740277,0.9491292741443313,29.140434967401855
225.0,99.29249280165223,3.9296266545655802,0.949151874754759,29.63558960054018
226.0,99.94405436439281,2.7533928958908684,0.9497705724894854,30.393251392184713
227.0,98.84709736632449,3.2378796314404834,0.9498597708432527,30.96319222276944
228.0,98.22779638130093,3.2601556530295963,0.9499731280044935,31.59067987853117
229.0,98.58342903309428,2.2965124882803107,0.9504942677281126,32.36837591775549
230.0,97.17459523910127,3.0021777581535245,0.9505185939988497,32.9315813934199
231.0,96.52648623718402,2.9269677931619955,0.9505969574099057,33.596975012821844
232.0,96.7674272449829,2.008962594471722,0.9510384605091206,34.39345055315358
233.0,95.76337012422579,2.327437473909574,0.9510901081869794,35.07087429847484
234.0,94.43456556096956,2.8824180144359195,0.9510679322322563,35.65000054376971
235.0,94.56788099066512,1.9688362063722593,0.9514074554036447,36.45840083681017
236.0,94.27108759256531,1.6326551440744148,0.9515864891652726,37.24491723810862
237.0,92.30723193283437,2.78649641658273,0.9514933031509182,37.76407647238584
238.0,92.06174126010586,2.139771315507736,0.9516190660181548,38.55521014184891
239.0,92.01753726981215,1.489709473027583,0.951900107330715,39.38494399134345
240.0,91.07273591244817,1.756153555209777,0.9518981960596271,40.13245007374665
241.0,89.43794843274688,2.5241289208057274,0.9518228504631339,40.696868610007435
242.0,89.32214699121337,1.7592840771007041,0.9519726630995345,41.523755832301795
243.0,89.19074009852125,1.2431547481408618,0.952174084961614,42.365623943009986
244.0,88.13655522245995,1.628998490427599,0.9521290802344324,43.11311716109292
245.0,86.5790001512916,2.3032217890806206,0.9520499810503869,43.697407024856865
246.0,86.33792520284632,1.6551757677718295,0.9521475903361706,44.535425229160175
247.0,86.17356603753686,1.1636578909779838,0.9523124359642187,45.39035676280368
248.0,85.41396692716465,1.3108805128461514,0.9522855803891869,46.1941780275531
249.0,83.63971643930871,2.21751049988362,0.9521932416356718,46.74559267628501
