Time,J,A,S,tau
0.0,100.0,100.0,0.9812480540680941,9.25925925925926
1.0,99.89453879172977,97.59949675605935,0.9811237441153514,9.585099722881067
2.0,99.79489579118975,95.25561603269685,0.980994572814668,9.910539361850436
3.0,99.70146417366496,92.96725280176973,0.9808597238300735,10.235222116536981
4.0,99.61460533534078,90.73301579900028,0.9807182516553206,10.559054004432676
5.0,99.53482730093496,88.55152641508292,0.9805695801752606,10.881965112402208
6.0,99.46294526765799,86.42142602352953,0.980413553053939,11.203787694030733
7.0,99.39933801717625,84.34148033569855,0.9802485446353997,11.524420142427283
8.0,99.34459606030889,82.3104318156791,0.980073924223585,11.843775442203718
9.0,99.29926483589749,80.32706966712097,0.9798888079827953,12.161773416500392
10.0,99.26419541737397,78.39020301501172,0.9796925345243975,12.478231843884942
11.0,99.23991363900541,76.4986949269558,0.9794840739401872,12.79309531360631
12.0,99.22705507297218,74.65143745209522,0.9792624172803281,13.106251778622594
13.0,99.2262715031796,72.84734758510317,0.9790266328362693,13.41760113194182
14.0,99.21753246829226,71.10585618780075,0.9786397462074532,13.553629066625616
15.0,99.19551456613726,69.43094689650394,0.9785495732711195,13.538012150977933
16.0,99.18062187127161,67.80123735110334,0.9784582930826317,13.52143990155582
17.0,99.17288455151026,66.21621091748746,0.9783642467140825,13.503849452949863
18.0,99.17235431952192,64.67540740527454,0.9782641305640861,13.485167930646748
19.0,99.1786842046845,63.178305706444334,0.9781528149508407,13.465257886895323
20.0,99.19167153235011,61.724535579457104,0.978023944790413,13.443931480617975
21.0,99.21098678982652,60.31375814078036,0.9778703736300639,13.42092756678397
22.0,99.23647082328019,58.94551570691448,0.9776852125452935,13.39586852914541
23.0,99.26782809292014,57.6194937603464,0.9774633984491375,13.36823344738517
24.0,99.30443009931055,56.335397454574604,0.9772026337520797,13.337239470378005
25.0,99.34588153051432,55.09290105439443,0.976903803382039,13.30168718970598
26.0,99.3915422809163,53.89174764833565,0.9765707155482606,13.25957852036281
27.0,99.4405931263858,52.73177641449095,0.9762079419340054,13.206673263005241
28.0,99.48807190627453,51.61696103101109,0.9758194090703503,13.1278939676791
29.0,99.38364601507664,50.69456964580845,0.9754088633112604,12.949345276663333
30.0,99.3718414411552,49.71640701972291,0.9749796705158009,12.827610147065666
31.0,99.4050960480028,48.732216267778966,0.9745336630410328,12.760779260234704
32.0,99.43834139293361,47.78637045976084,0.9740761695712122,12.708199284261227
33.0,99.46991711280408,46.87933316975207,0.973623209316652,12.662757575616938
34.0,99.498798797186,46.01080675271156,0.9731944508470264,12.621667331431281
35.0,99.52395980072893,45.18039167981615,0.9728078580212329,12.583263245214024
36.0,99.54417426928941,44.38772037017363,0.9724692496381511,12.546339596557303
37.0,99.55825094499312,43.63232946601746,0.9721654982347906,12.50990227909631
38.0,99.56477049218523,42.913752314000085,0.9718630152839853,12.472988855759217
39.0,99.56271801851452,42.2312991514369,0.9715164082794525,12.434579765202544
40.0,99.5510029336858,41.58409571443899,0.9710849445156844,12.393390437873018
41.0,99.5287130456571,40.970827183339324,0.9705483907534016,12.347599417103309
42.0,99.49729715614696,40.38837002353847,0.9699127256267569,12.29432097362427
43.0,99.45385331250937,39.83755519272013,0.969200536485024,12.228053091636927
44.0,99.37386536378328,39.340063963645356,0.9684351464072082,12.131307715726317
45.0,98.90108903342504,39.241375871568486,0.9676300186392305,11.927978741671867
46.0,98.681160993952,38.887278156836345,0.9667941877068422,11.802750465607097
47.0,98.52943208376884,38.47266403743401,0.9659376709598344,11.727468132086639
48.0,98.36216805098115,38.08118191655238,0.965089742967338,11.667985641429839
49.0,98.17472148276563,37.71559702883501,0.9642988199381233,11.616884391321753
50.0,97.96473330009765,37.37609089420297,0.9636071032106691,11.570545696776406
51.0,97.73068538839063,37.061840357802666,0.9630143103595477,11.526664687519864
52.0,97.47163141592507,36.77152808080037,0.9624632477084937,11.483471050784512
53.0,97.18774293950212,36.5027706644019,0.9618585423086708,11.439326130485826
54.0,96.87994472914298,36.252668003083635,0.9611100262731672,11.392383565550752
55.0,96.54934875918109,36.01875302924048,0.9601768671491018,11.34014472410017
56.0,96.19806543060834,35.797435907488236,0.959076794149485,11.278581933546038
57.0,95.82822355009914,35.585844018884124,0.9578588047550576,11.199777760971033
58.0,95.33491428600915,35.48587785259724,0.956564855144389,11.07568390857541
59.0,94.4800132933705,35.72135886344359,0.955213242400052,10.886100666397454
60.0,93.97863867440333,35.58100149876298,0.9538163376782719,10.780771833714496
61.0,93.51072035208436,35.3950639455532,0.9523978385113842,10.707774510664631
62.0,93.028565112866,35.21216846415326,0.9510206983691589,10.648967273068637
63.0,92.52687376490381,35.037272486716645,0.9497648078472547,10.598062063249989
64.0,92.00388442140861,34.87144264589971,0.9486777267412815,10.551579670236055
65.0,91.46101555135093,34.71277804054986,0.9477193609980055,10.507222502745837
66.0,90.89977063960795,34.55937287082416,0.9467650371418355,10.463177793501307
67.0,90.32535115603643,34.40614228693128,0.9456598171735234,10.417703349926201
68.0,89.74281901816357,34.2486304807776,0.9442959677885698,10.368748689962759
69.0,89.15922003020997,34.080998028490725,0.9426568809027112,10.313421334699887
70.0,88.57777386175002,33.90184001792135,0.9407993636576054,10.246994665903403
71.0,87.97696926922771,33.73331139931242,0.9387967931526515,10.160082458209642
72.0,87.20922413394649,33.72021990134065,0.9366937182212819,10.025681487124166
73.0,86.34064423106508,33.78953199925223,0.9345092776123872,9.875138684781858
74.0,85.68653813423447,33.63241001350457,0.9322549011366009,9.780494262596413
75.0,85.05644891992704,33.444614964733134,0.9299677710218208,9.71098776339282
76.0,84.41937074871872,33.25841303589275,0.9277332052298848,9.654592599104175
77.0,83.76690250187822,33.08211698359964,0.9256595816544504,9.60588387336159
78.0,83.09534376575675,32.91911126050298,0.9238202242775305,9.561720408635024
79.0,82.39973940766554,32.77374216819404,0.9221883066634393,9.520043605553187
80.0,81.68203986276323,32.643398474866416,0.9206234278573995,9.47930782301194
81.0,80.95005650475034,32.519889011649845,0.9189257526928117,9.438146574349775
82.0,80.21424226731206,32.39304486671816,0.9169215955279924,9.395129207608237
83.0,79.47827202778383,32.259930598598444,0.9145313584838922,9.34848795565828
84.0,78.73608264677907,32.12694808793657,0.911780987286113,9.295732739527407
85.0,77.9807791754888,32.00069982876788,0.9087590239962903,9.232980098027808
86.0,77.19639228946558,31.896064262519182,0.9055511193252203,9.153638371396516
87.0,76.3178730074098,31.87585589760612,0.9022072322299418,9.0457289887993
88.0,75.33920007485156,31.9422905481987,0.8987463371003488,8.920320915529677
89.0,74.45677642569655,31.899729222651246,0.8951788589521441,8.825090568870758
90.0,73.5983952279795,31.82264112992068,0.8915305785247255,8.754229221961566
91.0,72.7227526528369,31.752488940366728,0.8878688089488269,8.697603868699646
92.0,71.8172144190811,31.701058098713936,0.8843086249288898,8.649852522741535
93.0,70.87369022843562,31.675107621885733,0.8809739760003543,8.607787519794428
94.0,69.88564508401994,31.679925373747174,0.8779487574602647,8.56937096889052
95.0,68.85490429697381,31.71268073350222,0.8752186410597599,8.533202366571047
96.0,67.78977725028923,31.764568875903468,0.8726552822348163,8.49823687990501
97.0,66.70006784684443,31.825826722855336,0.870051831591019,8.46360146366265
98.0,65.5933460156081,31.889198370729396,0.8671889364012498,8.428472796276841
99.0,64.4759190882832,31.948847395563657,0.8639034969922107,8.391978127781396
100.0,63.352455445743345,32.000526108204284,0.8601296030360206,8.353073355167567
101.0,62.225361298650284,32.04260143418526,0.8558980495991495,8.31040789998642
102.0,61.09123287762528,32.0793921129833,0.8512982796824864,8.262103304706192
103.0,59.94518571579384,32.11676768315762,0.846431859358551,8.205503238767212
104.0,58.77944522949074,32.163271299771,0.8413747548544465,8.136989152631081
105.0,57.57475411773576,32.238886464532065,0.8361681029505811,8.052984077948011
106.0,56.33161222199706,32.34373008765416,0.8308319369803733,7.959361485067166
107.0,55.109421569461425,32.41969669720844,0.8253752753405477,7.876010987261959
108.0,53.907709121081986,32.469244959136354,0.8198138247772045,7.809011751095083
109.0,52.70596932734363,32.51452193875023,0.8141839996311864,7.754593992712538
110.0,51.49656996383512,32.564590659868365,0.8085579442931272,7.709048737609203
111.0,50.27496207117312,32.625364247205454,0.8030400660458323,7.669717724858934
112.0,49.036927537234874,32.70242460183327,0.7977505119322235,7.634780351879594
113.0,47.78148421487486,32.79820140008736,0.7927945025270261,7.602985288436632
114.0,46.51183769556817,32.911093278772775,0.7882244046602901,7.573448724724517
115.0,45.2338925889348,33.03697917128998,0.7840234273221374,7.545513678363169
116.0,43.954355249334675,33.170973732085386,0.780100706822025,7.518666942088481
117.0,42.67973592659386,33.308407795644854,0.7763064884825572,7.492505107907015
118.0,41.41581230391099,33.44530281220488,0.7724616752663206,7.466671419689546
119.0,40.16800952162312,33.57792126602736,0.768393023079168,7.440841286352609
120.0,38.941703650359344,33.702573009536735,0.7639643006119877,7.414693457463213
121.0,37.74190404132715,33.8158616043712,0.7590971819866944,7.387891684287377
122.0,36.57190813138799,33.91609080584058,0.7537718635429983,7.360066756007478
123.0,35.43275762440481,34.003777809219464,0.7480244383594373,7.330796283869421
124.0,34.323835452581115,34.081004844811645,0.7419232051413565,7.299569315234429
125.0,33.24332085422699,34.151030801022024,0.7355500707940498,7.265788292949565
126.0,32.189020248504534,34.217375201090384,0.7289833679897293,7.2287396301846325
127.0,31.15918849811442,34.28299898008247,0.7222862783807664,7.187623955279516
128.0,30.152577293468358,34.350249499010744,0.7155051535401419,7.1416981219381155
129.0,29.16807529670588,34.42122504640702,0.7086674556426997,7.090649249528976
130.0,28.205160402020216,34.497356411664605,0.7017924067005097,7.035406693524759
131.0,27.26679810829826,34.57648718062412,0.694893263102796,6.979077191167786
132.0,26.358449555495383,34.65396550471838,0.6879802583925346,6.925863468126282
133.0,25.482455781983624,34.728058911350786,0.6810659061136767,6.87838062742934
134.0,24.63825673138302,34.79986054338045,0.6741641123692544,6.83705651792473
135.0,23.82501264542283,34.870549735815146,0.6672918365864372,6.801261000865704
136.0,23.04232996533943,34.94083294867794,0.6604742456828254,6.770108461411433
137.0,22.289951647423365,35.011174396463865,0.6537356484537051,6.742775275004391
138.0,21.567396649320212,35.08211989015344,0.6471067433083398,6.718577968151819
139.0,20.87414541899273,35.15415467730947,0.6406183991235895,6.6969757884442185
140.0,20.209829407533256,35.227523920716926,0.6342961845330254,6.677553642064299
141.0,19.574362388954192,35.30207610001044,0.6281595271897974,6.659990254629644
142.0,18.96795031594267,35.377259640559224,0.6222210035606984,6.6440373813137406
143.0,18.390984358712824,35.45224023144165,0.6164847156134882,6.629505800667496
144.0,17.8439039897676,35.526062169086295,0.6109462973176778,6.616246367778629
145.0,17.327087869087922,35.59774715270173,0.6055922269802925,6.604139957771962
146.0,16.84065667027391,35.6664721058559,0.6004085672787588,6.593093540986716
147.0,16.38451012955103,35.73156499405068,0.5953753091961075,6.583028502126952
148.0,15.958270278073503,35.79254537611208,0.590474096478272,6.573876788240779
149.0,15.561325351506097,35.8491076857261,0.5856875012509065,6.565580332496577
150.0,15.19289878548764,35.90106693254573,0.580999001166585,6.558089333099136
151.0,14.852020269312675,35.94836694534009,0.5763954478194002,6.551361895871105
152.0,14.537654648625992,35.99100930491053,0.571865835338657,6.545360971454969
153.0,14.248644392986618,36.02906901492959,0.5674023483695204,6.54005559999646
154.0,13.983824371443024,36.06263001661335,0.5629985953440068,6.535421474838639
155.0,13.741962666524527,36.091823881419835,0.5586513016546887,6.531436513492561
156.0,13.521843194126536,36.1167920454449,0.5543586466667635,6.528080231595137
157.0,13.322203717751439,36.13771397428891,0.5501213630515908,6.525329768024223
158.0,13.141776172143867,36.15479117812859,0.545942296634182,6.523160770682896
159.0,12.97932734000038,36.168230645163995,0.541825655342275,6.521549835039994
160.0,12.833628505612646,36.178264552641146,0.5377773274577157,6.520467385091266
161.0,12.703454804850937,36.185147702107855,0.5338046407604881,6.519881755263366
162.0,12.587594083248435,36.18916480027998,0.5299171604764122,6.519754670866411
163.0,12.484893595921578,36.19058865939717,0.5261248889757467,6.520048484963551
164.0,12.394189864675292,36.18973214776007,0.5224388644959127,6.520719356117246
165.0,12.314367133749203,36.18691377701064,0.518871284396701,6.52172156117793
166.0,12.244360063482237,36.18244244797169,0.5154339165560997,6.523011602233451
167.0,12.183085790839646,36.176689918516445,0.5121426861480205,6.524530230469362
168.0,12.12958557988838,36.16996223537543,0.5090094002594352,6.526232586918146
169.0,12.082851483480997,36.162630159242205,0.5060493696125684,6.5280604449372674
170.0,12.041973367468835,36.15502766386128,0.5032762605041254,6.52996243304535
171.0,12.006087058994646,36.14748555817291,0.5007035017844936,6.531885435495264
172.0,11.974416213730972,36.140287643412286,0.4983416188062598,6.5337874229921455
173.0,11.946185250808396,36.13375857296158,0.496203795108251,6.535614254213408
174.0,11.920701687408355,36.12815775893127,0.4942991017515873,6.537329694037661
175.0,11.897324874784875,36.12373478960691,0.49263598761326033,6.5388960837208305
176.0,11.875456355727167,36.12072886166115,0.4912227392303355,6.540278452740966
177.0,11.854573981014417,36.11932985036885,0.49006466654720826,6.5414536867326865
178.0,11.834180226765989,36.119719779322395,0.48916652460808524,6.542400121441561
179.0,11.813852053533262,36.122054698405535,0.4885320774799112,6.54309926034014
180.0,11.793179642103869,36.12646499950687,0.4881636799607529,6.543540311713811
181.0,11.771827845069492,36.13305514212602,0.4880628127571321,6.5437162364003045
182.0,11.74944378007188,36.1419344554771,0.48823140776220514,6.543619565290204
183.0,11.725766621330632,36.15315098215192,0.4886682320206951,6.543257219517692
184.0,11.700529763777086,36.166761064188975,0.48937316275114323,6.542631412920722
185.0,11.673536071592773,36.18276788605081,0.4903432871909468,6.541757958474237
186.0,11.64458496100122,36.20117777797239,0.491576641542563,6.540647387079414
187.0,11.613528323196396,36.22195123722146,0.4930685839948529,6.539323413015179
188.0,11.580299851155909,36.24499439449591,0.49481302816407197,6.537813751783128
189.0,11.544794958941713,36.270216040936766,0.49680307132294316,6.536149879590981
190.0,11.506993504199327,36.297470617157984,0.4990298263870462,6.534369500857079
191.0,11.46687743838181,36.32660407137138,0.5014847187420785,6.532508605363412
192.0,11.42454615835062,36.35735226190822,0.5041525024846927,6.530627392911802
193.0,11.380034833500106,36.38950229017386,0.5070221242389891,6.528769399825319
194.0,11.33348209406238,36.42274586265794,0.5100769157383789,6.526996668758122
195.0,11.285024835155298,36.45677293227929,0.5133013960628298,6.525366780582899
196.0,11.234810402104925,36.49126578558335,0.5166798338582539,6.523935910503635
197.0,11.183003729865689,36.52588606849325,0.5201963072282284,6.522760693887158
198.0,11.129838032792527,36.5602299531364,0.5238309334931153,6.521908197345702
199.0,11.075439776531407,36.593992719740804,0.5275724390991668,6.5214200587063385
200.0,11.020002137158343,36.62681145663669,0.531405206989966,6.521348135263588
201.0,10.963676517869402,36.6583640098767,0.5353176189153954,6.5217327176852145
202.0,10.906631368468165,36.68830206759495,0.5392970595829318,6.522616232480551
203.0,10.84898543262794,36.71633171329544,0.54333495898423,6.524028708538794
204.0,10.790825910701646,36.74219147887806,0.5474249893208366,6.5259931929943065
205.0,10.732261056413089,36.7656044011532,0.5515623564264012,6.528532834049271
206.0,10.673342937634434,36.78634423325236,0.5557446612950296,6.531661879882329
207.0,10.614108847340498,36.804210489786854,0.5599718601251791,6.535392696990794
208.0,10.554563143039898,36.81904138455247,0.564246452170562,6.539732030672734
209.0,10.494712316453413,36.830672865540386,0.5685723693882727,6.544694224937059
210.0,10.434526464062907,36.83898037122327,0.5729560891179256,6.550292849696183
211.0,10.373961377074876,36.843857258193765,0.5774059489113081,6.556548440604223
212.0,10.312929117715395,36.84525755615463,0.5819316006799897,6.5634872147766
213.0,10.25131118812166,36.84317446280142,0.586545247046401,6.571145453883805
214.0,10.188924373497974,36.83767118816458,0.591260139099287,6.579573885909648
215.0,10.1254828834202,36.82892882291028,0.5960930138680086,6.588826697872568
216.0,10.060560982391557,36.817278494969315,0.6010631602470389,6.598968677695659
217.0,9.993620819547735,36.80317155493454,0.6061891153785599,6.610075294733447
218.0,9.923973237633737,36.787233327922856,0.6114912247853832,6.622228310181235
219.0,9.850879584538243,36.770148384498825,0.6169856806124286,6.635525107284892
220.0,9.773642005902312,36.752583095454824,0.6226841635167748,6.650083126465408
221.0,9.691757102232136,36.735044846536795,0.6285903615788339,6.666052776823252
222.0,9.605063640786051,36.71769957323224,0.634699733150963,6.6836233261401485
223.0,9.513880640782341,36.70027652736099,0.6409988515908686,6.703037713368919
224.0,9.418954275487266,36.68206440719002,0.6474664972009794,6.724608911450132
225.0,9.32144159806217,36.66202909169999,0.6540752617915617,6.7487408048413045
226.0,9.222566693889634,36.63906002717173,0.6607951110059139,6.77595418182697
227.0,9.123494592565013,36.61214890464927,0.6675948089360161,6.806891698258722
228.0,9.025244512307099,36.58045217424335,0.6744483402005991,6.842300831714652
229.0,8.928930874430447,36.54312955573343,0.6813314792670117,6.882938095770511
230.0,8.83571771586928,36.499242786288285,0.6882263003144828,6.9292526450145955
231.0,8.746598438134484,36.4481244310183,0.6951195175499792,6.980675585080565
232.0,8.660819997473789,36.39074535347391,0.7019980057191748,7.034804970317325
233.0,8.57601002120727,36.32976824029948,0.7088515748665045,7.087987825685488
234.0,8.49121726818762,36.26657505961446,0.7156662250629136,7.137452358901879
235.0,8.407123276734731,36.20071474962989,0.7224224956346827,7.1822246220754815
236.0,8.324745675375857,36.13139942602846,0.7290900467510056,7.222475791696773
237.0,8.245274381443965,36.057676020010824,0.7356222689017584,7.258828941567238
238.0,8.170558616141891,35.977902404338636,0.741951990732178,7.291995873533172
239.0,8.10333284832539,35.889512135079904,0.7479941732191205,7.322638635299821
240.0,8.046738970470104,35.78950170481904,0.7536561881012311,7.351324368640582
241.0,8.00335418269412,35.67542867365012,0.7588530030751085,7.3785254650756595
242.0,7.974130292610886,35.546460417617084,0.7635304459153,7.404642371164715
243.0,7.958105388097477,35.40367701612798,0.7676843162495266,7.430020536251279
244.0,7.952809349124133,35.24967480534755,0.771375011559325,7.454967943077094
245.0,7.9549252948777625,35.08795173913643,0.7747292649864135,7.479775604543194
246.0,7.960631353544253,34.92255424508952,0.7779274018686877,7.504718902621494
247.0,7.965773496683641,34.75792631423123,0.7811757218147701,7.530087303647105
248.0,7.966071979257368,34.598671279566446,0.7846686973206913,7.556206028649018
249.0,7.957397760219631,34.44929978135934,0.7885531388464618,7.583473614781124
250.0,7.936254347659732,34.313729328819974,0.7929048006318747,7.612374837029143
251.0,7.9008841021429355,34.19414285615468,0.7977180600455014,7.643539392261358
252.0,7.852579935845531,34.08967546837948,0.8029155860839247,7.677817721588841
