Time,J,A,S,tau
0.0,100.0,100.0,0.6583019305664292,17.543859649122805
1.0,97.43514082558478,96.86956642464769,0.6577794445950593,17.48546720575825
2.0,94.92883069297403,93.83139834512923,0.6572490180841164,17.42579085404525
3.0,92.48151456487555,90.88612587933763,0.6567084397190514,17.36429505633376
4.0,90.09199922195384,88.03099960341623,0.6561578073387797,17.30099090660297
5.0,87.75915015188744,85.26337122088663,0.6555972179969038,17.235904993034445
6.0,85.48183225118852,82.58065187437346,0.6550267898740896,17.169054499055598
7.0,83.25883819362932,79.9802897867874,0.6544464352529751,17.100424957257495
8.0,81.08906190729063,77.45982703322932,0.6538563111188641,17.03002472116478
9.0,78.97148126630567,75.0169181901783,0.653256508405313,16.957888553923112
10.0,76.90501826746895,72.64924050003718,0.6526470734827824,16.88401912382076
11.0,74.88864696733889,70.35454862623615,0.6520280778740991,16.808427722625037
12.0,72.92137675489039,68.1306629485242,0.6513996024042175,16.731127162320515
13.0,71.00225327345917,65.97546698282247,0.6507617335546863,16.652131092638403
14.0,69.13036148207554,63.88690539484372,0.6501145622583208,16.57145379274226
15.0,67.30482987745071,61.86298221522566,0.6494581834446841,16.48911009718883
16.0,65.52483564333772,59.90175917797234,0.648792695749158,16.405115381968056
17.0,63.78965408196876,58.00137368961458,0.6486462542821061,16.390110234254927
18.0,62.09852506921825,56.16001262291295,0.6485233148424129,16.368520482846005
19.0,60.450851590896505,54.37588395767206,0.6483964621088301,16.34648198361771
20.0,58.84603945766655,52.64726619442996,0.6482651296660316,16.323878206471274
21.0,57.283612612481015,50.97249324045281,0.6481289145500931,16.300613592223616
22.0,55.76327053194484,49.34994605001376,0.6479873083059096,16.276568636517695
23.0,54.28468552773482,47.77805924460433,0.647840172115015,16.25163858203235
24.0,52.84771819951743,46.25531347671128,0.6476874287991301,16.22572488057747
25.0,51.452473105923815,44.78023548888902,0.6475291629873166,16.19876327008357
26.0,50.099148652683745,43.35140834885064,0.6473656664698024,16.170711893908575
27.0,48.7879954774712,41.967453825339064,0.6471975857489629,16.141611549882136
28.0,47.51963960371929,40.627065985943254,0.6470258123475299,16.11153892053074
29.0,46.29481220589982,39.329004592682246,0.6468513536731605,16.080698482881253
30.0,45.11425607949352,38.07211599647036,0.6466756160882889,16.049339674184395
31.0,43.97913942153763,36.85533640871912,0.6465000511509502,16.017840367793696
32.0,42.891128491776136,35.67752724520435,0.6463261933385389,15.986614940854345
33.0,41.85191279897492,34.537669459670134,0.6461553990855217,15.956057048204995
34.0,40.86348675820379,33.43471694939998,0.6459888918931209,15.926536513664052
35.0,39.92812577504912,32.367594250775674,0.645827573967479,15.898304406697815
36.0,39.048081842043075,31.335532231894884,0.6456724643124605,15.871509050642516
37.0,38.22589596839799,30.33778930431871,0.6455239537275511,15.846220021077864
38.0,37.464469062703095,29.373725517243454,0.6453824434773549,15.822430627883156
39.0,36.76669889985283,28.442799636028273,0.6452480326858107,15.80008732482314
40.0,36.135530072590576,27.544561735638137,0.6451205241455285,15.779100449392958
41.0,35.573972233787835,26.67867302822589,0.6449998763491553,15.759383654663202
42.0,35.08494548271384,25.84491253677553,0.6448856980169007,15.740826095723257
43.0,34.6712912698763,25.04321172676006,0.6447777234419195,15.723340025562763
44.0,34.33545609850336,24.273631469690457,0.6446756476484706,15.706834532925019
45.0,34.07958344574534,23.536405149797112,0.6445790669441304,15.691220031929435
46.0,33.90530033485973,22.83194099389622,0.6444876307736854,15.67642213716791
47.0,33.81345609291926,22.16085392291434,0.6444009811718632,15.662372027583613
48.0,33.80410388719434,21.523914312804894,0.6443188082838598,15.64901193856068
49.0,33.87624256990788,20.922093739146796,0.6442408142971092,15.636290448017613
50.0,34.027616571307405,20.356609523008913,0.6441667463164518,15.62416180310393
51.0,34.254765420641256,19.828826948504908,0.6440963080608376,15.612588047613635
52.0,34.55260612264683,19.340327985782935,0.6440292699989554,15.601534378377155
53.0,34.91439505573891,18.892867268770708,0.6439654389752242,15.590968181880744
54.0,35.33172434015436,18.488343447474968,0.6439046206702479,15.580864560260201
55.0,35.79444769905091,18.12876495487552,0.6438466367513059,15.571202023175427
56.0,36.290621885115115,17.816229816640398,0.6437913407122541,15.561962031076579
57.0,36.80666153561148,17.55288831838778,0.6437386011795965,15.5531274973326
58.0,37.32744479256195,17.340852246821452,0.6436883121853717,15.544686188199034
59.0,37.83663255837958,17.18216387601946,0.6436403665118551,15.536625540738813
60.0,38.31679000612402,17.07871579705651,0.6435947003836752,15.52893662694061
61.0,38.75000498992226,17.032187069026413,0.64355124395085,15.521612893183317
62.0,39.118249022042846,17.043938508044302,0.6435099371460177,15.514647145180026
63.0,39.403882597242614,17.114922599385455,0.6434707352290815,15.508034657691077
64.0,39.59029888699068,17.24559043469002,0.6434336123325682,15.501772282844822
65.0,39.66250477350274,17.43579233229605,0.6433985475205486,15.495856558127997
66.0,39.60777625994143,17.684628965129203,0.6433655241292086,15.490287572936138
67.0,39.416163282894495,17.990435288639247,0.6433345277191429,15.485063133660542
68.0,39.08098768116989,18.35061114711498,0.643305567284552,15.480184064381232
69.0,38.59920053219683,18.761589603013128,0.6432786391561425,15.475650332871806
70.0,37.971601945135916,19.21879451361875,0.6432537563812762,15.471463184588428
71.0,37.20298512607823,19.716524784197297,0.6432309175159302,15.467623306378561
72.0,36.30179135032879,20.248124958911223,0.643210129547231,15.46413083886492
73.0,35.27994092634818,20.805910447751668,0.6431914174544777,15.460989299018786
74.0,34.15230115080863,21.381323253138888,0.6431747910935676,15.458199362960602
75.0,32.93608204155993,21.96509367134686,0.6431602555953431,15.455760010556455
76.0,31.65034566087078,22.547281042960577,0.6431478273817729,15.453676076439951
77.0,30.31509919840703,23.117729371045083,0.6431375175356139,15.451947434798377
78.0,28.95072031830167,23.666200724916767,0.6431293325815783,15.45057417703266
79.0,27.577375839653932,24.1826449371086,0.6431232820048002,15.449558807349456
80.0,26.214303418235527,24.65763585434702,0.6431193701579783,15.44890048506008
81.0,24.87942098740619,25.082580843544044,0.6431175994469345,15.448599796788846
82.0,23.58885291258532,25.4500816562342,0.6431179704261792,15.448656554837097
83.0,22.35660675466098,25.754188761881586,0.643120484384802,15.449071128638069
84.0,21.194428136653052,25.99059613799553,0.6431251262112366,15.449841140091161
85.0,20.111583202494494,26.156790570039774,0.6431318968578545,15.450966921648508
86.0,19.114955608287364,26.25204231616771,0.643140783008211,15.45244778226939
87.0,18.209181401731264,26.277405157592423,0.6431517703373005,15.454282599322156
88.0,17.39674063643888,26.23555927389896,0.6431648418739352,15.456467447831953
89.0,16.678376610870302,26.130550441251692,0.6431799824912694,15.459001059655419
90.0,16.05336789558611,25.967520202359943,0.6431971724449599,15.46188187365312
91.0,15.519874089906901,25.752421397363744,0.6432163966678432,15.465109000431935
92.0,15.07524479294396,25.49174082043531,0.6432376375991911,15.468678968119082
93.0,14.716356590585008,25.192171713492563,0.6432608772004696,15.472589702267165
94.0,14.439850215965087,24.86039907626341,0.6432861061177105,15.476840750779571
95.0,14.242289140929635,24.502923649400376,0.6433132906747291,15.481428686903126
96.0,14.120320306472621,24.125892140468245,0.643342431948513,15.486354734472933
97.0,14.070693002602036,23.735074302251945,0.6433735336130335,15.491616895098058
98.0,14.090325328015322,23.335748954105913,0.6434065857495884,15.497214599760024
99.0,14.176216932896969,22.932744845081405,0.6434415971994685,15.50314800801754
100.0,14.325463406217327,22.530429565282954,0.6434785806327729,15.509419055303123
101.0,14.535066548836234,22.132763198944176,0.6435175544952824,15.516029602074386
102.0,14.801950712940686,21.74332492121742,0.6435585449597496,15.52298340275324
103.0,15.122760325903554,21.36537672321068,0.6436015900683468,15.530284010552931
104.0,15.49378512905738,21.001939309300447,0.6436467485026908,15.537936412971602
105.0,15.910924557635807,20.6557521072558,0.6436940777995113,15.545948111945023
106.0,16.369494716689207,20.329375505760513,0.6437436602153134,15.554327997556182
107.0,16.864279445631663,20.02521503943427,0.643795576869925,15.563085078205317
108.0,17.389442868122902,19.745470313255105,0.6438499385464186,15.572234600344517
109.0,17.938451913825833,19.492263807890975,0.6439068664982845,15.581789597894408
110.0,18.504115060697124,19.267566779194603,0.6439665067469462,15.591768257263245
111.0,19.07864874364558,19.073203221599243,0.6440290179254234,15.602190219789275
112.0,19.653700117989004,18.910838153977284,0.6440945941658645,15.613081107542854
113.0,20.22049417473101,18.78197888139889,0.6441634328615721,15.624467699552056
114.0,20.77000480568549,18.687909819994395,0.6442357423998785,15.636381772266526
115.0,21.292950336366676,18.629703943894313,0.6443117827368239,15.648859833412798
116.0,21.78008173016917,18.608171059415174,0.6443918284963427,15.661945091310683
117.0,22.222449778035333,18.62383817169541,0.6444761668543535,15.675683618669018
118.0,22.61160922190644,18.676819953880003,0.6445651026841037,15.690132159831064
119.0,22.939809188674047,18.7669011832153,0.644658955653169,15.705351376730016
120.0,23.200268982633215,18.89341432418206,0.6447580474939166,15.721408900895218
121.0,23.387362242051797,19.05519638413312,0.6448627366026383,15.73838217570644
122.0,23.496913581044307,19.250547276613784,0.6449733353313053,15.756352094356052
123.0,23.526390581118815,19.47707474096018,0.6450901639539697,15.775410260542227
124.0,23.475044445795874,19.731784005643796,0.6452134841017847,15.795644919737454
125.0,23.344067702614783,20.010866875675095,0.6453434991970126,15.817144970211462
126.0,23.13666283177191,20.309746195771627,0.6454803250178935,15.839989326717507
127.0,22.857975733621863,20.623020687478064,0.6456239114172998,15.864234460118285
128.0,22.51477841134603,20.944846777694814,0.6457740427219737,15.889898280331922
129.0,22.11469646740393,21.269414358943845,0.6459303047659772,15.916945614076663
130.0,21.665584867648487,21.591673756211556,0.6460920184477873,15.945263635576076
131.0,21.174490442120263,21.908010626950816,0.6462582668483229,15.974650648071076
132.0,20.647465450047644,22.21640565072811,0.6464279238097104,16.004817138496755
133.0,20.089713996025147,22.51616464353267,0.6465997035603289,16.035406310081076
134.0,19.50632371544843,22.806920579615078,0.6467722179542428,16.066033280669394
135.0,18.903223107612458,23.087784018920555,0.6469440619950614,16.09633539404472
136.0,18.28784311054033,23.356298740841464,0.6471138905090809,16.126010111256633
137.0,17.669211203992738,23.608445981534338,0.6472805037443508,16.15483961698325
138.0,17.057148017351153,23.839279496102176,0.6474429519738757,16.18269341568739
139.0,16.46132750402899,24.043870452934332,0.6476005436818003,16.209518303168807
140.0,15.890553112523136,24.218073707309586,0.6477528038581859,16.235315677482077
141.0,15.352181206854901,24.358945775602443,0.6478995255032921,16.260134386169323
142.0,14.852242400635712,24.46473051602559,0.6480406789351387,16.284048309387078
143.0,14.39561552654854,24.534655506460105,0.6481763907276207,16.3071484110122
144.0,13.98605085834297,24.56885269067711,0.6483069215977318,16.32953249354442
145.0,13.62635310074093,24.568189169263196,0.6484326499871175,16.35130149197755
146.0,13.31848809484092,24.534226480094603,0.6485540253916682,16.37255373392242
147.0,13.063545361688629,24.469075549070244,0.6486715667930015,16.39338481912311
148.0,12.86198849368369,24.37528172255022,0.6487858701036789,16.4138896767858
149.0,12.713671271086275,24.25573216535224,0.6488975819270819,16.434161337360827
150.0,12.617949163881041,24.1135911172384,0.6490073952256251,16.454289398155428
151.0,12.573784178909397,23.952121495967962,0.6491160485867061,16.474366574211015
152.0,12.579726984608008,23.774720216454885,0.6492243231839804,16.494483134995004
153.0,12.634143380471949,23.58469548055344,0.6493330289685357,16.514735567630456
154.0,12.735083750902534,23.385358200692103,0.6494430254493795,16.535220604369325
155.0,12.880499473848545,23.179821372338672,0.649555198960843,16.556044532965608
156.0,13.068188234271416,22.971040892403085,0.649670456571023,16.577321441421876
157.0,13.295779610240551,22.761782966374085,0.6497897655339016,16.599175866950734
158.0,13.560818883775621,22.554585221642437,0.6499140912626251,16.621746143703362
159.0,13.860746520621026,22.351761740784475,0.6500444052987233,16.64518812581072
160.0,14.192817448890159,22.155401289882928,0.6501817016674292,16.669678699658785
161.0,14.55412213061378,21.967449592814116,0.6503269394001158,16.695414701938706
162.0,14.94164010446518,21.789652828957333,0.6504810038230867,16.72261665202586
163.0,15.352268225647201,21.62352583542901,0.6506446742902118,16.751521678641627
164.0,15.783161452071052,21.46998006189162,0.6508185224214431,16.782373074032453
165.0,16.23237585680378,21.328842212593134,0.6510027939201026,16.815396887224935
166.0,16.699238275001427,21.198318548286547,0.6511972446283019,16.850752903722764
167.0,17.184592148464134,21.074719464990192,0.6514009584948784,16.88846604036883
168.0,17.689066202019227,20.95427485630734,0.6516122484171161,16.928341793567682
169.0,18.20900333236101,20.837143062305305,0.6518286367533506,16.969880181470227
170.0,18.733562291543702,20.730124845243356,0.6520471759907254,17.012264880361382
171.0,19.246910022599476,20.645022981847074,0.652264788397822,17.05449107121705
172.0,19.734081552725005,20.592717579193362,0.6524783860595202,17.095600707523698
173.0,20.185786243636844,20.578238336871078,0.6526851890534208,17.134899647413167
174.0,20.598778249382566,20.600496482758803,0.6528830611610527,17.17201851196625
175.0,20.972786877118338,20.65543514731268,0.6530706472929149,17.20686085170272
176.0,21.307476510352647,20.739064738442245,0.6532474128529984,17.239519922005027
177.0,21.601697831880458,20.848407047119533,0.6534134216708477,17.27018845855373
178.0,21.85394497789725,20.981191761520996,0.6535691579296542,17.299106783071768
179.0,22.062710788842097,21.135545589634642,0.6537153762319524,17.326521553451038
180.0,22.22665242873084,21.30986990350205,0.6538530282505904,17.352668895796732
181.0,22.344832089124953,21.502673989507365,0.6539831582729394,17.37776708578104
182.0,22.41680475465113,21.712492902605543,0.6541068782159639,17.402013224197262
183.0,22.44268247549623,21.937782524460577,0.6542253136121342,17.425586870822386
184.0,22.422910619486295,22.17703793399218,0.6543396111749177,17.44865124455975
185.0,22.358461948792428,22.428722746093023,0.6544509072186834,17.471357589240974
186.0,22.250716236875604,22.691273940188218,0.6545603297315206,17.493847515935123
187.0,22.10156852061245,22.962971266667395,0.654668985642126,17.516257444940706
188.0,21.913498397690194,23.241922075724226,0.6547779620849994,17.538721669783325
189.0,21.68951515489014,23.52600445452334,0.6548883188547758,17.56137448047838
190.0,21.433173151538906,23.812892650715355,0.655001100404058,17.584353294514447
191.0,21.148671563493355,24.0999734616307,0.6551172988077619,17.60780274445174
192.0,20.840708704655814,24.384400480315403,0.6552378608413413,17.631877563158316
193.0,20.51438879938406,24.663200771291017,0.6553637254026444,17.65674339784218
194.0,20.175241666640158,24.93324272617949,0.6554957239953426,17.682580577271285
195.0,19.82921038914979,25.191243590901582,0.6556345924141842,17.709582299069567
196.0,19.48255509597141,25.4338000875181,0.6557809058928139,17.737951618878427
197.0,19.1416662955607,25.657511211990066,0.6559350759864518,17.767892156301674
198.0,18.813562475123426,25.858477423645258,0.6560972107712574,17.79958987151981
199.0,18.506500176482614,26.03154985329058,0.6562670014045762,17.83318165391145
200.0,18.2296193100464,26.17060146395101,0.656443605840503,17.868705987714055
201.0,17.9909506631119,26.270447173394174,0.6566255799247076,17.906048379761344
202.0,17.793890855366723,26.330259336372308,0.6568108755945311,17.944872228413164
203.0,17.634950763426776,26.355890129044255,0.65699716543207,17.984579195598478
204.0,17.504874986866387,26.35852346681104,0.6571822121409812,18.02435013943149
205.0,17.39268447141772,26.35109841571796,0.6573639584709352,18.06330555607967
206.0,17.29004010041641,26.343568764682253,0.6575404121864211,18.10072034995508
207.0,17.19451638813147,26.33977515163206,0.6577097990819281,18.136148871872507
208.0,17.109459012727534,26.33761518293979,0.6578707099761586,18.169396297489982
209.0,17.04061547863513,26.33230939438342,0.6580224145575887,18.200464201473487
210.0,16.99313297453334,26.3195427506056,0.6581646548070453,18.229466694567655
211.0,16.970214545744366,26.296809313718104,0.6582976279158529,18.256581636982993
212.0,16.97335321277165,26.26326000392946,0.6584217735612305,18.28200693724498
213.0,17.002859750233732,26.21915849132834,0.6585376828375895,18.305940303207827
214.0,17.05808633633665,26.165635833393676,0.6586460521443415,18.328566336199433
215.0,17.137923935287,26.104169208778963,0.6587476098490662,18.350055164504077
216.0,17.240803618603827,26.036576662640783,0.6588430766771786,18.370554563200386
217.0,17.364964957497616,25.964717067095837,0.6589331665817882,18.390195012793576
218.0,17.508410299420532,25.890475650375123,0.6590185578518843,18.409089649949152
219.0,17.66898008421254,25.815702143539497,0.659099897438895,18.427338128845665
220.0,17.844437568965933,25.742123395738194,0.659177783970514,18.445027298133656
221.0,18.032500537727657,25.671351942868633,0.6592527743139676,18.46223318892688
222.0,18.230905645610235,25.604796710238713,0.659325374431167,18.479021996459014
223.0,18.437498551270625,25.543591864875587,0.6593960391162988,18.495453176293278
224.0,18.65012178311238,25.488756411951506,0.6594651916180662,18.511576700017816
225.0,18.866859181288948,25.441009091245377,0.6595331956823585,18.52743981369693
226.0,19.085774556758096,25.400957939020987,0.65960037606736,18.543082399184055
227.0,19.30505531742967,25.369066250229576,0.6596670089090267,18.55854120837994
228.0,19.522858013997595,25.34575342607068,0.6597333381121506,18.573846839609384
229.0,19.737414153996298,25.33134289193664,0.6597995490307239,18.589028298330085
230.0,19.94696055608967,25.326177770189382,0.6598658178761967,18.60410837357956
231.0,20.149764126558072,25.330499305677602,0.6599322411280582,18.61910931907086
232.0,20.344102539214813,25.344562656653583,0.6599989017077326,18.634047355303906
233.0,20.52833668927445,25.36853236508908,0.6600658604290874,18.648935449942268
234.0,20.70095343717192,25.40246192017548,0.6601330848019554,18.663784397769668
235.0,20.860453653533853,25.446403465338165,0.6602005871295199,18.678598917944814
236.0,21.005649605812962,25.50019186490961,0.6602683020935274,18.693381823904158
237.0,21.135456860687842,25.56362406401377,0.6603361182912215,18.708129554597097
238.0,21.249037641863893,25.636318070080375,0.6604038978493916,18.722832960438616
239.0,21.345783469226916,25.717734617259318,0.6604715216961164,18.737480285071527
240.0,21.425378966210616,25.807155016675416,0.6605388000434094,18.75205256096912
241.0,21.487782001036702,25.903684038363743,0.6606054897497311,18.76652503557505
242.0,21.533075370014434,26.006451544228224,0.660671459031235,18.780869537649895
243.0,21.56166254477842,26.114348585911255,0.660736436985703,18.795050497443647
244.0,21.57408520208208,26.22622041874097,0.6608001343783899,18.809026226950493
245.0,21.570978178761123,26.340983439772376,0.660862347105623,18.822753819094533
246.0,21.55307605396918,26.457573547866588,0.6609228622761594,18.836187816571822
247.0,21.52105419212283,26.575000273362296,0.660981388199871,18.84927438890355
248.0,21.475619291653015,26.692409579752905,0.6610376926469276,18.861962120354594
