Time,J,A,S,tau
0.0,100.0,100.0,0.8313023177239346,27.027027027027028
1.0,99.9107369508125,36.78890097977299,0.8305901679505427,28.02222417226142
2.0,99.82293970154156,13.53391167657423,0.8298886990741198,29.017685451104278
3.0,99.73652100220686,4.9789740675764795,0.8291973007715429,30.01336117738198
4.0,99.65139880220305,1.8318182480428726,0.8285154450020066,31.009227406776052
5.0,99.56749417021705,0.6740512463737808,0.8278425977602095,32.00526519529588
6.0,99.48473103702528,0.2481306981918975,0.8271782175719357,33.00146052214309
7.0,99.4030334833273,0.09143890446999975,0.8265217707019799,33.99779825851741
8.0,99.32233601995253,0.033790398267820265,0.8258728038172096,34.99426422245997
9.0,99.242553490405,0.012578153708235425,0.8252307019324315,35.99084386597646
10.0,99.16363572200314,0.00476999838425406,0.8245950832244285,36.98753185987835
11.0,99.08550982487252,0.0018934720310955222,0.8239654404541326,37.984312634057765
12.0,99.0081108882158,0.0008315821600738036,0.8233412916197793,38.98117717504779
13.0,98.93137591680815,0.00043766732498159354,0.8227221737221772,39.978115935155586
14.0,98.8552431917412,0.00028984506131407675,0.82210762657891,40.97512058421663
15.0,98.7796520794472,0.00023291907621557012,0.8214971992937774,41.972182715312464
16.0,98.70454317665086,0.00020975607313651845,0.8208904454233941,42.969294820466814
17.0,98.62985804647825,0.0001993354720522277,0.8202869262149179,43.966449417113346
18.0,98.5555391937143,0.00019390222498643253,0.8196862072587043,44.96363955687623
19.0,98.48152969393654,0.00019059104230466025,0.8190878571326783,45.960858548393475
20.0,98.40777341463084,0.00018833823636985825,0.8184914496730876,46.958099888840955
21.0,98.33421474201953,0.00018674475449744876,0.817896561741534,47.95535725870351
22.0,98.26079847003714,0.00018566072667880947,0.8173027731017479,48.95262439298932
23.0,98.18746987787766,0.0001850213701189105,0.8167096660965291,49.94989523875549
24.0,98.11417413507641,0.00018480640328399429,0.8161168224909872,50.94716366507084
25.0,98.04085675579812,0.0001850105932728166,0.8155238273066003,51.94442345378252
26.0,97.96746328824649,0.0001856270159796908,0.8149302650648445,52.94166848994992
27.0,97.893939099964,0.00018666153467284497,0.8143357198129014,53.938892467278414
28.0,97.82022962465724,0.00018812013377661027,0.8137397769492095,54.93608892432546
29.0,97.74627953191711,0.00019001465925307996,0.8131420165353808,55.9332512080286
30.0,97.6720335084319,0.00019236009298016665,0.8125420204119589,56.9303723719887
31.0,97.5974358009458,0.00019517795680732629,0.8119393689111366,57.92744509095048
32.0,97.52242968676892,0.0001984821058552272,0.8113336352838652,58.924461849625125
33.0,97.44695805837638,0.00020230782129236085,0.8107243934685596,59.921414466378
34.0,97.37096295185735,0.00020667272161032044,0.8101112114356119,60.918294536985144
35.0,97.29438541920945,0.00021162410215928024,0.8094936544063661,61.91509273190392
36.0,97.21716549605273,0.0002171892851097637,0.8088712807821203,62.9117994146734
37.0,97.13924209585646,0.0002234240575840689,0.8082436458829102,63.908403882127594
38.0,97.06055312878051,0.00023037512573832432,0.8076103003459926,64.90489478391292
39.0,96.9810344533591,0.00023809866670911474,0.8069707837360924,65.90125973515617
40.0,96.90062164697565,0.00024666243324803074,0.8063246394582795,66.89748528068026
41.0,96.81924706708874,0.0002561407265878139,0.8056713913511434,67.89355671639788
42.0,96.73684304932381,0.0002666066811467974,0.8050105697936139,68.88945816481211
43.0,96.65333898217798,0.00027815975652213236,0.8043416906320792,69.88517202869814
44.0,96.56866252752747,0.00029090513656712577,0.8036642652200503,70.88067899982924
45.0,96.48273945808639,0.00030496019801428586,0.802977800129188,71.8759578724545
46.0,96.39549243733144,0.00032044698575150343,0.802281788053891,72.8709853559562
47.0,96.30684266996633,0.0003375175653624813,0.8015757238939998,73.86573567276312
48.0,96.21670846937792,0.00035632717583160994,0.8008590934358187,74.86018044184574
49.0,96.12500539691989,0.00037706875603892227,0.800131377916239,75.8542880964412
50.0,96.03164623599515,0.00039994216648540085,0.7993920547983151,76.84802369765097
51.0,95.93654048556249,0.0004251763565005955,0.7986405956988628,77.8413485543567
52.0,95.83959441369535,0.00045302907525823533,0.7978764700605618,78.83421965960743
53.0,95.74071091040815,0.000483793681172607,0.7970991475422472,79.82658905726642
54.0,95.63978933457567,0.0005177887181281073,0.7963080983598092,80.81840353574147
55.0,95.53672512086527,0.0005553785955312375,0.7955027949997124,81.80960375588286
56.0,95.43140937844822,0.0005969693715259809,0.7946827130086367,82.80012351333617
57.0,95.32372878234689,0.0006430202143885798,0.7938473343504518,83.78988897116554
58.0,95.21356646246745,0.0006940414702292971,0.7929961602562476,84.77881768608717
59.0,95.10080021806733,0.0007506163037811815,0.7921287032775461,85.76681737720592
60.0,94.98530287791155,0.0008133642092687862,0.7912444929203636,86.75378539953618
61.0,94.86694166780255,0.0008830235104521338,0.7903430837386397,87.73960640976046
62.0,94.74557862160016,0.0009604015772114037,0.7894240619132037,88.72415172283198
63.0,94.62106996788347,0.0010463969071896,0.7884870518893906,89.70727721262186
64.0,94.49326480106252,0.0011420180858824802,0.7875317133314117,90.68882181458459
65.0,94.36200715961266,0.0012483933666959854,0.7865577705342489,91.66860532283128
66.0,94.22713369179154,0.0013667873371609595,0.7855650072834327,92.64642578577651
67.0,94.08847320462927,0.001498573145344615,0.7845532693081314,93.62205823643973
68.0,93.94584748827604,0.0016452985843606713,0.7835224899298011,94.59525127431858
69.0,93.79907043920208,0.0018087133581128187,0.7824727036415853,95.56572324714274
70.0,93.6479474465148,0.0019907269138911034,0.7814040481311225,96.53316071494457
71.0,93.49227491325006,0.0021934017511157024,0.7803167823683788,97.49721434435553
72.0,93.33184033469617,0.0024190390221759607,0.7792113020136348,98.45749599304354
73.0,93.16642152284045,0.0026701773280164726,0.7780881582912309,99.41357394214207
74.0,92.99578616050283,0.0029495788650295406,0.7769480729392103,100.36496919952573
75.0,92.8196913213791,0.003260158738250706,0.7757919436584864,101.31115331612871
76.0,92.63788330192135,0.003605180348141694,0.7746208765837194,102.25154197746066
77.0,92.45009714394352,0.003988161279390511,0.7734362012254137,103.18549106672181
78.0,92.25605579255668,0.004412664740629529,0.772239463694518,104.11229586099067
79.0,92.05547082674839,0.004882363857257886,0.7710324367278977,105.03118956128183
80.0,91.84804147073747,0.005401114954076463,0.7698171259324845,105.94133995360211
81.0,91.63345455558623,0.005972913197237498,0.768595778601487,106.84184693433902
82.0,91.4114812142075,0.006740772894675361,0.7673708782630995,107.73174215417909
83.0,91.18192898745582,0.00781443622180012,0.7661451394886154,108.6099894650319
84.0,90.94442193350353,0.008989252001923166,0.764921482167918,109.47548704879911
85.0,90.6986245307323,0.010263835932641968,0.7637030139139831,110.32707170974668
86.0,90.44420146116785,0.011652285579085053,0.7624929970491776,111.16352329625892
87.0,90.18081715136249,0.013172817307639034,0.7612947941852221,111.98357218479092
88.0,89.90813645703092,0.014840491937801906,0.7601118379018156,112.78590788672686
89.0,89.62582451370507,0.016669240234139585,0.758947557964935,113.56918871953496
90.0,89.33354989989454,0.018671840418226684,0.7578053241316549,114.33205436166743
91.0,89.03098609997967,0.020860715591211013,0.7566883813640018,115.07313632903391
92.0,88.71781445578915,0.023247082522329328,0.7555997779078861,115.79107308345196
93.0,88.39372495166437,0.025842628690172793,0.7545423032489527,116.48451810099675
94.0,88.05842116608515,0.02865801433625351,0.7535184168529232,117.15215777897475
95.0,87.71162080521816,0.03170343634299167,0.7525301978709024,117.79271766346143
96.0,87.35305953995584,0.03498973944910942,0.7515792889998181,118.40497474795195
97.0,86.98249323049752,0.0385271256065217,0.7506668541488554,118.98776468475329
98.0,86.59970205967366,0.042327318331670034,0.7497935523518264,119.53998752801901
99.0,86.2044907867182,0.046400870852132015,0.7489595185423572,120.06061024129554
100.0,85.7966955705471,0.050762016747721135,0.7481643546771932,120.5486690558115
101.0,85.37618338612825,0.05542275837668966,0.7474071222042187,121.00327068461617
102.0,84.94285654489734,0.06039687157461329,0.7466863659664805,121.4235856882864
103.0,84.4966588426433,0.06570535825708665,0.7460001276706151,121.80884771007807
104.0,84.03757625362704,0.07136336771714605,0.745345964383193,122.15834761626456
105.0,83.56564747349086,0.0774003502623651,0.7447209920326101,122.4714254008962
106.0,83.08096730790777,0.08384500454752682,0.7441218947958366,122.74746742928279
107.0,82.58369304355928,0.09072666153771501,0.7435449644460089,122.98589744729638
108.0,82.07404138276507,0.0980756325002001,0.7429861342410836,123.18617179894005
109.0,81.55232502331631,0.10595085850478532,0.7424410091269736,123.34776946641648
110.0,81.01893108779065,0.11439086096470814,0.7419048939566748,123.47018802890747
111.0,80.47435974983345,0.12346271380176405,0.7413727948469758,123.55294401551448
112.0,79.91922889539363,0.13324158871213918,0.7408394612573408,123.59556355227834
113.0,79.35430696851344,0.14383180301502274,0.7402994009030651,123.59757719999247
114.0,78.78051736523703,0.15532293338184822,0.7397468691994269,123.55852473866663
115.0,78.19899226356128,0.16786804546726838,0.7391758476025455,123.47795962291251
116.0,77.61109437833754,0.18163340203395373,0.7385801194487961,123.35543238355339
117.0,77.01849071841374,0.19682394620183838,0.7379532057808572,123.19050601784319
118.0,76.42321874603772,0.21373359219158908,0.7372883397047708,122.98276144750182
119.0,75.82781336275094,0.23275266993236157,0.7365784842438774,122.73179269634402
120.0,75.23544384055785,0.2543784836385286,0.7358163390212206,122.43721304275016
121.0,74.65017291896132,0.27936850688091985,0.7349941921157063,122.09868142928363
122.0,74.09361481383624,0.2924796532451361,0.7718433306627414,61.42134397710995
123.0,73.5666820668477,0.24946064080196145,0.7984482386874271,37.66092300946244
124.0,72.98354020342855,0.23288886505842007,0.804901285338361,32.392145156076744
125.0,72.37412440372613,0.2432674432092171,0.8090016667403037,28.61338919585218
126.0,71.77073844235127,0.27465366880685094,0.8103247900403338,26.470734803605527
127.0,71.18506967861903,0.3181412018423173,0.811257972838101,24.524638477392788
128.0,70.62999555557388,0.37798127872145526,0.8109078925051083,23.259400605929216
129.0,70.13110085310441,0.4473419378841378,0.8112020449068249,21.626684686471016
130.0,69.6994160081944,0.5354656848386509,0.8103472590495524,20.583342777005335
131.0,69.35680654393398,0.6422633503566194,0.8093249061347532,19.606714278328432
132.0,69.12282092767579,0.7706904207906425,0.8081667277924942,18.70199478726226
133.0,69.01347994306163,0.9268366274642266,0.8061083141842583,18.265517510340185
134.0,69.06038823931681,1.1010744507642536,0.8047008640391892,17.454880616258865
135.0,69.27412809572456,1.3049494422712877,0.8028684759186437,16.67088481054609
136.0,69.65038129867843,1.558184540871213,0.8007589035090106,16.336498879246946
137.0,70.23172126186643,1.8337299109889098,0.7984175477726916,15.626210202246089
138.0,70.99776421173549,2.1538885417997617,0.796264670301559,15.333747791390486
139.0,72.01220210818641,2.403088827911019,0.793433364321232,14.701481153266284
140.0,73.12893692736795,2.6791749217759313,0.7910564710716246,14.439935789138085
141.0,74.32117402045111,3.0042036003827586,0.7879581483296009,14.110800244754596
142.0,75.54792706774226,3.411816451262439,0.7845994943690214,13.640258636930882
143.0,76.74709304286941,3.950848277013334,0.7821452177083353,13.427912885905691
144.0,77.88180653226331,4.619689923855951,0.7787502757377645,13.189753926298335
145.0,78.8553204080264,5.437922993879791,0.7746306534258468,12.767899161712013
146.0,79.49616905969137,6.470266816653446,0.7710876683642364,12.57206780675752
147.0,79.66763110254706,7.723185791229296,0.7683296780035036,12.406811055102795
148.0,79.23500311698832,9.195080670095649,0.7645762794563875,12.227568695189172
149.0,78.08470082949478,10.888169546636567,0.7598519306243755,11.941266273665338
150.0,76.13650543983746,12.819700039487275,0.7550527033560815,11.728189069904191
151.0,73.4717854405827,14.910627063513616,0.7511401004193249,11.586816178627004
152.0,70.22970782966199,17.083506176274085,0.7478880651202136,11.46383696067485
153.0,66.48639185827489,19.348771072898888,0.7443151838968303,11.342695941458176
154.0,62.322019333496755,21.716836318921047,0.7398095655975201,11.209764005338847
155.0,57.8234079358992,24.186304094375316,0.7345794120204988,11.043081945038335
156.0,53.12781187215831,26.69538005934728,0.729171752554272,10.86712144597313
157.0,48.51114432995927,29.033527301408462,0.7240071189643358,10.740910698876034
158.0,44.208736343156744,31.017100602583923,0.7194658515215665,10.639598796696674
159.0,40.33583170592738,32.56739622878772,0.7155128036180618,10.551103175393651
160.0,36.950531207987915,33.649382174673995,0.7118193001442633,10.468996224101536
161.0,34.06512099999418,34.264320321762625,0.7079803130200903,10.388724752958217
162.0,31.63378913838818,34.465451523496775,0.7037031398935751,10.306615196429764
163.0,29.576236242523965,34.33702622184906,0.6988995292184285,10.219438600530859
164.0,27.80528060607965,33.96854359170584,0.6936712018511602,10.124331746591738
165.0,26.25412138435363,33.4286853949866,0.6882221114579483,10.020982160695986
166.0,24.91120659589304,32.73092319711797,0.6827473954595056,9.919795759292827
167.0,23.745627755107968,31.908364123587667,0.6774144635970709,9.831648936813783
168.0,22.68715207773581,31.03345460378151,0.6723764967781588,9.755877103402193
169.0,21.69768178588213,30.146296190038473,0.667724053234742,9.689414939320868
170.0,20.763069456755634,29.263219819343405,0.663471796632415,9.629808837566689
171.0,19.877420705027546,28.39232277610235,0.6595633972556887,9.575141695774255
172.0,19.03824224586463,27.53839595439163,0.6558976520670499,9.523918104679655
173.0,18.244937158698193,26.70438618096473,0.6523529208039073,9.474972257301074
174.0,17.498028468479752,25.892151632802598,0.6488146867897331,9.427374785133022
175.0,16.798499995282317,25.10308744395675,0.6451933477491278,9.380372941861578
176.0,16.147427186622988,24.338448212821966,0.6414336916029699,9.333345088443355
177.0,15.545849820400601,23.599405117297405,0.6375170427401234,9.285808899410897
178.0,14.994606975058485,22.88713198953518,0.6334562984305389,9.237409272537102
179.0,14.494123329703745,22.202964660948002,0.6292873425963476,9.187982162399592
180.0,14.044041249533386,21.548614914023165,0.6250590509440811,9.137594739510496
181.0,13.643309442100447,20.926110419660404,0.6208247103414947,9.086655718965472
182.0,13.290774088565179,20.33703255520441,0.6166333071827599,9.035974106067526
183.0,12.985928700978302,19.78166681545707,0.6125292158880936,8.986683477221296
184.0,12.728480566593028,19.259513779698363,0.6085485392011081,8.939896262285584
185.0,12.51681630752241,18.770543257461913,0.604722068209536,8.896331993438269
186.0,12.347536920994603,18.31572568891548,0.6010737884081941,8.85623216021497
187.0,12.215926244404477,17.896581874182296,0.5976211804537838,8.819528699450899
188.0,12.116403841768967,17.514660724223365,0.5943751904355659,8.785997507446432
189.0,12.04285986614997,17.171307927174098,0.5913403949390666,8.755366564894144
190.0,11.988720020044457,16.867617874099423,0.5885166315708092,8.727354019932495
191.0,11.947222348344033,16.60434535238207,0.5858986532254085,8.701699535440827
192.0,11.911565436004643,16.381825468687072,0.5834792125416947,8.678173308559817
193.0,11.875268608901793,16.199883980146723,0.5812482375971432,8.656580235853262
194.0,11.832325946139983,16.057778833998665,0.5791957842147412,8.636753758193208
195.0,11.77755054271738,15.954118709269176,0.5773108134216719,8.618557168653087
196.0,11.706681954928097,15.886892474471773,0.5755834631254295,8.601879501693531
197.0,11.616543119872135,15.853505136727115,0.57400465149222,8.586630674593705
198.0,11.505090023669341,15.850850224437885,0.5725665382351556,8.572738476761636
199.0,11.371402091472278,15.875408325268003,0.5712630308114978,8.560145872698577
200.0,11.21568190303618,15.9233339372139,0.5700887979073647,8.548807107931527
201.0,11.039135200113325,15.990584485383629,0.569039957951921,8.538686589437747
202.0,10.843850570335192,16.073021117503547,0.5681136936267132,8.5297567185241
203.0,10.632670556518475,16.1665257078983,0.5673076370698353,8.521996653265365
204.0,10.40891525071273,16.267111921321106,0.5666207488989179,8.515392034962826
205.0,10.176277469094897,16.371042971112487,0.566052128526668,8.5099308797394
206.0,9.938578398556805,16.47490952955169,0.5656011662401417,8.50560514273128
207.0,9.69957892992495,16.575730173526495,0.5652676077616888,8.5024072773454
208.0,9.462883480841896,16.67093930839172,0.5650511526025763,8.500336264961575
209.0,9.23171842669667,16.758528729369747,0.5649515127703034,8.499383813225185
210.0,9.008943969799605,16.836935707130166,0.5649683393878149,8.499551564091416
211.0,8.796905622592726,16.905126512469845,0.5651011994705218,8.500835480380479
212.0,8.597461475619173,16.96252506203703,0.5653495450049857,8.503235639320838
213.0,8.41198145530584,17.00897669899087,0.5657126175292091,8.506750811727628
214.0,8.241333522904831,17.044683220815855,0.5661899059914179,8.511381360367698
215.0,8.085962832298959,17.07016497302041,0.5667811050451494,8.51713249419884
216.0,7.945925214577734,17.086184351619544,0.5674859118258714,8.524007471051624
217.0,7.820941030563629,17.093702747011065,0.5683046102087287,8.532014514979368
218.0,7.710438236948135,17.09381516754345,0.5692379686393314,8.541163208702116
219.0,7.613643723034999,17.08770664575078,0.5702874880751595,8.551471285198463
220.0,7.529592796110734,17.076626449053478,0.5714556489138697,8.562959785071989
221.0,7.457195686027369,17.061823701924265,0.5727460023066767,8.575659874764984
222.0,7.395279412428692,17.04455126637118,0.574163429180692,8.58961147723764
223.0,7.342608579391035,17.026022353558478,0.5757142082163255,8.60486597437039
224.0,7.297962584154724,17.007381202067833,0.5774061385114233,8.621491582745323
225.0,7.2601500986329155,16.989685429927764,0.5792483564804383,8.63957144748467
226.0,7.2280595817240805,16.97388064215477,0.5812511601749338,8.659206869476423
227.0,7.200752533755807,16.96073502275348,0.5834250990126193,8.68052281443394
228.0,7.177443822551658,16.950839945256558,0.5857813418911392,8.7036684098802
229.0,7.157606295821479,16.944554157417144,0.5883298143935897,8.728819800255486
230.0,7.1409927000401865,16.941970106146037,0.5910789075814921,8.756180674901275
231.0,7.127661672287546,16.942904228147626,0.5940341414975971,8.785975170745239
232.0,7.118073146353996,16.946831666780103,0.5971966810088216,8.818439226716583
233.0,7.113102466733115,16.952867519005675,0.6005626467163249,8.853795086159316
234.0,7.113964270521224,16.95983835629303,0.6041220469678126,8.892203671174675
235.0,7.121882241755222,16.966607274606773,0.6078586965957444,8.93369264140924
236.0,7.137362747301658,16.972859601944887,0.6117493772736463,8.978046136408489
237.0,7.15933535199676,16.979874065158953,0.6157643011330086,9.024710362957675
238.0,7.185278470347582,16.99042194179405,0.6198671717315287,9.072826047795974
239.0,7.21267075157981,17.007386421662314,0.6240140713394785,9.12144249883491
240.0,7.2405917026118285,17.03209663276692,0.6281541812346421,9.169782217428548
241.0,7.270050715360826,17.064018424473048,0.6322321984006735,9.21736464106635
242.0,7.303085055260181,17.10162030302773,0.6361941232651372,9.263997821483223
243.0,7.341966624591068,17.143192993870443,0.6399939216205428,9.309726251731114
244.0,7.388772285025823,17.187264847628985,0.6436035179193486,9.354777272673306
245.0,7.445027258506327,17.23296973284154,0.6470219751163732,9.399510257151592
246.0,7.511329484780391,17.280419719510622,0.6502819320497849,9.444395961654049
