Time,J,A,S,tau
0.0,100.0,100.0,0.9999243671349364,5.555555555555555
1.0,211.1740780584028,88.08311067926203,0.9999195340625219,5.853530153465248
2.0,370.6914093081215,81.75872586590972,0.9999131700438405,6.124632486644294
3.0,565.1966467389243,80.12795812246507,0.9999050292350136,6.368331937228028
4.0,755.0338827173447,80.0495407581597,0.9998948324377795,6.5841351460952335
5.0,925.9499653111395,79.97144563339255,0.9998822630274489,6.771566047598908
6.0,1078.7186506387418,79.8935046639259,0.9998669617791838,6.93016957945809
7.0,1214.2597957261676,79.81553266605006,0.9998485224268345,7.059510781730643
8.0,1092.755208410812,262.0806810722519,0.9998302723781538,6.678481913759782
9.0,910.5501492418776,442.3077487524087,0.9998143008355396,6.524711369148579
10.0,710.6236195852933,638.5199409201362,0.9997991351664925,6.387648070450934
11.0,526.7584733433528,817.0732585789224,0.9997759708566091,6.19114673519283
12.0,223.69623185241068,1113.210130832292,0.9997472520241021,5.7373410775777405
13.0,97.4293879690663,1231.147299460654,0.9997196393589545,5.593838329222348
14.0,97.05624113183946,1222.341643378148,0.999697295756978,5.482942899454787
15.0,97.04795482081649,1212.9675540897747,0.9996715743953599,5.3725142034566
16.0,97.0390251851963,1203.3905448740798,0.9996339461577607,5.233889439327515
17.0,97.02894213206093,1193.6094550584362,0.9995871255855773,4.924112532680541
18.0,97.01755029344028,1183.621043667285,0.9995352156085261,4.726235556759105
19.0,97.00469736709049,1173.4276031829265,0.9994836884856623,4.61989802188227
20.0,96.99019561047996,1163.0284825808506,0.9994387964356585,4.534173244959991
21.0,96.97384353607848,1152.4230396852226,0.9993968500716343,4.455072577804003
22.0,96.95541576179538,1141.6113567943382,0.9993446258324448,4.374689339109293
23.0,96.93466122943894,1130.5939388419192,0.9992737550082693,4.284760374889442
24.0,96.91130270418604,1119.3717559544618,0.9991857146955415,4.169881455903946
25.0,96.88503680510941,1107.945834964701,0.999084238090444,3.99551527366115
26.0,96.85549521064745,1096.316182819933,0.9989705817321349,3.836305310606102
27.0,96.82232277381122,1084.4856579269576,0.9988465419423409,3.737746921162325
28.0,96.78510195961037,1072.4573549685024,0.9987169299825741,3.663905699720669
29.0,96.74336476693507,1060.23375427399,0.9985897014904073,3.602289977779244
30.0,96.6966048562018,1047.8178481869156,0.9984703874882245,3.5475196222424095
31.0,96.64426251080239,1035.2130863830482,0.9983559319215578,3.496526135518398
32.0,96.58572500788297,1022.4233815319851,0.998234494914565,3.447204860640305
33.0,96.52032207384825,1009.4530923877755,0.9980911543245472,3.397864015935569
34.0,96.44732067743092,996.3070100862501,0.9979147141018075,3.346917366829622
35.0,96.365922341259,982.9903844812081,0.997700780794563,3.2926616608159613
36.0,96.27525661981488,969.5089042979453,0.9974500956163029,3.2331041078620206
37.0,96.17437773722253,955.8687062563339,0.9971649077688607,3.1659167850958965
38.0,96.06226365109846,942.0762777381495,0.9968464477393285,3.0892338993526987
39.0,95.93780747922244,928.1383557846619,0.9964944511159578,3.0055764654783443
40.0,95.7998717976208,914.0622905355038,0.9961075069483111,2.925310054177215
41.0,95.64708578162667,899.8557835272552,0.9956834601306656,2.856411884736643
42.0,95.47817139933429,885.5273556173742,0.9952224649135266,2.798769539299258
43.0,95.29164862409765,871.0857141928761,0.9947259397418631,2.7498126258554096
44.0,95.08596542601657,856.5398530721471,0.99419898324056,2.707305220706661
45.0,94.85947090036917,841.8991385559278,0.9936495409370477,2.6696218940491985
46.0,94.61043805582118,827.1732708025526,0.9930877845197789,2.635587082103557
47.0,94.33703255948583,812.3722641320308,0.9925233607539242,2.604346264319253
48.0,94.03734211099328,797.5064267307034,0.9919632233829955,2.575262259886276
49.0,93.70937300761041,782.5863867220808,0.991409475636768,2.5478521517591157
50.0,93.35104594797104,767.6229855008088,0.990858331526424,2.5217410822859296
51.0,92.9602317453463,752.6272911267208,0.9903005504496122,2.496631427808787
52.0,92.53473087038334,737.6105727250915,0.9897223955979974,2.4722841088861722
53.0,92.07231019368021,722.5842918083771,0.9891078026227529,2.448501640802772
54.0,91.57070059998178,707.5599910552559,0.9884403838684134,2.425122494669991
55.0,91.02761040691296,692.5493070408882,0.9877052581267817,2.4020101293194274
56.0,90.4407754816134,677.5639786925925,0.986890604963903,2.3790443631041414
57.0,89.80794909456475,662.6157498256648,0.9859879803779877,2.3561261447674324
58.0,89.12693866723728,647.7163506261384,0.984992262506065,2.3331704787525496
59.0,88.39564504422762,632.8774984521274,0.9839016349780878,2.310116769711415
60.0,87.61206474824208,618.1107988429187,0.9827160500845243,2.286921063721156
61.0,86.77435009340773,603.4277200378007,0.9814373191511631,2.2635676667647107
62.0,85.88087848985607,588.8396602796322,0.9800687924735194,2.240070899661214
63.0,84.93010364255531,574.3577267080593,0.9786115817601367,2.216486507439397
64.0,83.92082833999804,559.9927889607925,0.9770696478340882,2.1929039454456025
65.0,82.85208834529517,545.7555389413313,0.9754453568614951,2.169466940376867
66.0,81.72329389520836,531.656372848524,0.9737422680448503,2.1463561407388094
67.0,80.5340826885927,517.7053353753977,0.971961951172753,2.1238016094254664
68.0,79.28458876379743,503.912174657963,0.9701080178343633,2.1020498223823676
69.0,77.97523915954396,490.2861889760472,0.9681830440197186,2.081366924304384
70.0,76.6070026148462,476.8363632912456,0.9661910094572672,2.0619862156568276
71.0,75.18111705990356,463.57111440097714,0.9641355638693501,2.044131764904368
72.0,73.69951213534053,450.49857049346264,0.9620213652455533,2.0279660024936312
73.0,72.16433345963803,437.6262802220544,0.9598530526582382,2.0136140850967466
74.0,70.57843493495629,424.96142893663904,0.9576360990961362,2.0011317344021484
75.0,68.94484559089422,412.5105478687028,0.955376158655309,1.9905369759275595
76.0,67.26714687485008,400.2797600862779,0.9530794126765715,1.9818086952576357
77.0,65.54942003112644,388.2746216014362,0.9507527466022867,1.9748941859076854
78.0,63.796131320064745,376.50011482962793,0.9484037352201662,1.9697111592367842
79.0,62.011931104135854,364.96074097241626,0.9460402925939834,1.9661582263633268
80.0,60.20185388721826,353.66049049633176,0.9436706701374866,1.9641242560000496
81.0,58.37123615825581,342.60280095656935,0.9413037100394955,1.963478464982521
82.0,56.5255710335719,331.7905691929356,0.9389484786009882,1.9640886499543462
83.0,54.6704952796657,321.22616868873564,0.9366149224410465,1.9658047906698335
84.0,52.81174726533727,310.9114468649544,0.9343126268476747,1.9684813316080774
85.0,50.95510304885595,300.84779593187955,0.9320517268954525,1.9719737212746056
86.0,49.10622218536106,291.0360180284818,0.9298426575201082,1.9761225554187083
87.0,47.270642231082206,281.47653636419824,0.9276955415950985,1.9807816355277177
88.0,45.45380485315266,272.1692474664982,0.9256204645168624,1.9858136671644764
89.0,43.660898904592905,263.11362975512077,0.9236276577825452,1.9910801032446768
90.0,41.89683713143688,254.30871245926176,0.9217269465428344,1.9964537569056109
91.0,40.166407621360136,245.75318625385657,0.9199278484269324,2.001822332055974
92.0,38.47394700995273,237.4453599526245,0.9182395031004156,2.0070812226052293
93.0,36.823666193286364,229.38326477691183,0.9166708948315161,2.0121307517269535
94.0,35.21942541289191,221.5647059634458,0.9152302594450527,2.0168951049868946
95.0,33.66496607193955,213.9873702241513,0.9139255312055712,2.02129948286958
96.0,32.16396029274233,206.6489327193108,0.9127631785667065,2.025282683855402
97.0,30.719956642621593,199.54716542290208,0.9117499697966397,2.0287948752195724
98.0,29.33657715064502,192.68019623264752,0.9108910993059597,2.0317977501499684
99.0,28.017610641126687,186.04666343269557,0.9101913495060874,2.0342564016588307
100.0,26.7669697767628,179.64599672729972,0.9096546433753846,2.036148780124978
101.0,25.58880651503656,173.47863316751895,0.9092838039731646,2.0374585143312216
102.0,24.48737408040071,167.54631654908312,0.9090811436535398,2.03817419885972
103.0,23.466970752375012,161.85232193848745,0.9090479783986819,2.0382869246745763
104.0,22.53163727653451,156.40162165288686,0.909184092299895,2.0378041056910656
105.0,21.68493369640458,151.20100242396546,0.9094889341899487,2.036717918083257
106.0,20.929304042156517,146.2589640994972,0.9099604429735886,2.035048735382858
107.0,20.265499180786865,141.58554448391752,0.9105965104158953,2.0328061104186403
108.0,19.691895876053767,137.191648305266,0.9113931823887623,2.030016955050338
109.0,19.203666115692965,133.08833827458866,0.9123463899918249,2.026706711940976
110.0,18.792379454003772,129.28555199304446,0.9134507054065358,2.0229173190444687
111.0,18.445620729262075,125.79061453647599,0.9147001871250281,2.018692547984511
112.0,18.147418398220157,122.60662136234333,0.9160880741022682,2.0140872283567433
113.0,17.879320377246675,119.73060299316957,0.9176069555375553,2.009169863153961
114.0,17.622099933558378,117.15229673908509,0.9192486686882548,2.004017246705494
115.0,17.358087786385127,114.85365694706185,0.921004746854203,1.998719325693405
116.0,17.073207907076913,112.8094119432832,0.9228661767796612,1.9933750971038788
117.0,16.75850474288003,110.98772325323652,0.9248234872829293,1.9880931005230928
118.0,16.410595088182312,109.35318227492903,0.9268669307688427,1.9829973353298904
119.0,16.031253813141895,107.86930130614101,0.928986556410588,1.9782156875724222
120.0,15.625959627987479,106.50121363925577,0.9311721664462019,1.9738895721917222
121.0,15.202199729048992,105.21784487209212,0.933413691521065,1.970159981575107
122.0,14.76802129299035,103.99296104772509,0.9357007180288959,1.9671799605667597
123.0,14.33079598505415,102.80576509914977,0.938023182510731,1.9650925767795264
124.0,13.8966993279423,101.64050636309199,0.9403711479359963,1.9640436232777074
125.0,13.470520835138549,100.48583444063782,0.9427348449295384,1.9641785767851832
126.0,13.055783711828987,99.33396932064235,0.94510485669401,1.9656323828520033
127.0,12.654868306533404,98.17986129818982,0.9474721331195356,1.9685340469375834
128.0,12.269324766632497,97.02053864695309,0.9498280476722843,1.972996854450045
129.0,11.90006520550997,95.85454152384233,0.9521644125496918,1.9791274057136488
130.0,11.547509726852534,94.68151933223889,0.9544736706769026,1.9870074132830848
131.0,11.211784339630091,93.50179981384571,0.9567486549944183,1.9966979539303593
132.0,10.89278084114471,92.3161803503924,0.9589828361202888,2.0082301932953044
133.0,10.590176835027904,91.12594030575063,0.9611700235744476,2.021600254813866
134.0,10.303586078736425,89.9329358853306,0.9633049555578515,2.036761482321663
135.0,10.032491774982988,88.73866763323586,0.9653825044076474,2.053619354181784
136.0,9.776374747469438,87.54474274282093,0.9673980333589698,2.072027808356926
137.0,9.534700428717498,86.35290298613826,0.9693475868741871,2.091799351308347
138.0,9.306941946694597,85.16480804912969,0.9712275833687802,2.112705071179634
139.0,9.092561584986495,83.98211657496753,0.9730347282301713,2.1344993782119652
140.0,8.891065519600522,82.80642628508117,0.9747660640845097,2.1569356719254364
141.0,8.702027680607335,81.63928525918398,0.9764187246869064,2.179782949600931
142.0,8.525102844368888,80.48217928734032,0.9779897759999364,2.2028456790246156
143.0,8.359951801092526,79.33657226264836,0.9794764060622451,2.2259645755614232
144.0,8.206363971332076,78.2038756128201,0.9808754086173109,2.249025950908591
145.0,8.064231798507418,77.08543429628315,0.9821836521402146,2.2719565298452573
146.0,7.933620871588006,75.98247249033933,0.9833978506280093,2.2947222205847755
147.0,7.814906738859434,74.89599629612258,0.9845152437799707,2.3173195990966735
148.0,7.708914924390857,73.82664700939834,0.9855339920263638,2.3397737255366637
149.0,7.61700404295988,72.77467358969047,0.9864542820499118,2.362131875926879
150.0,7.541050583666942,71.74002160573143,0.987278713836282,2.384458008826095
151.0,7.483064726579612,70.72279026138055,0.9880132022875322,2.406835213236399
152.0,7.444605209409928,69.7239485618919,0.9886678107315992,2.4293589849543187
153.0,7.426156163646581,68.74615224719086,0.9892563471514226,2.45213908977165
154.0,7.426715479210483,67.79435196486575,0.9897957813332532,2.475303198009633
155.0,7.444120082352363,66.87570617172442,0.9903047057958619,2.4990013847698123
156.0,7.476280070091992,65.99863849513127,0.9908012003093748,2.523412156242826
157.0,7.52283959553693,65.17147912474502,0.9913004868764177,2.5487551649340094
158.0,7.586364951876732,64.40160586274384,0.9918129510459709,2.575300738826313
159.0,7.672644347965425,63.695459838447775,0.9923428386042518,2.6033878581054695
160.0,7.789908088081503,63.05955880785029,0.9928878747303367,2.6334451147647475
161.0,7.947490436902317,62.50198189091268,0.9934403054522751,2.6660278553617136
162.0,8.154473364751489,62.03362518705263,0.9939889135579768,2.7018664271298394
163.0,8.418980429442488,61.66846724152762,0.9945218474056734,2.7419357494192877
164.0,8.748762417212513,61.42249957475767,0.995028818095982,2.787541287949549
165.0,9.156827442173428,61.30807960635678,0.995503053633651,2.8403862268500832
166.0,9.692274033640382,61.30593360929624,0.9959410868077131,2.9024094148566397
167.0,10.5069953802546,61.299935816443195,0.996342157589576,2.9744109120614177
168.0,11.651545476860115,61.26991893781115,0.9967072977795994,3.052380157029262
169.0,12.82669295776408,61.53864661677539,0.9970381391265956,3.1277696658322895
170.0,13.96857730140913,62.181774564475646,0.9973355077833516,3.1955481529196126
171.0,15.09949687982532,63.14977801667187,0.9975987161103219,3.2557608141860945
172.0,16.152188947096203,64.45246478632248,0.9978247639773783,3.310107250081961
173.0,17.04688887149695,66.10087533521822,0.9980101600084271,3.360361456573347
174.0,17.74025073109157,68.07294306871218,0.9981546142391743,3.4080846529152735
175.0,18.22864434584859,70.32259104544609,0.9982648393692436,3.4546626923437356
176.0,18.546645826216732,72.78890142266076,0.9983555084093171,3.501426466450928
177.0,18.76098463249902,75.40475746917403,0.9984449410445622,3.549811528892041
178.0,18.95438133733117,78.11083430626975,0.9985471581515055,3.6015920100694365
179.0,19.206509581014632,80.86848330820297,0.9986655749824473,3.6592694196141915
180.0,19.58193829237748,83.66552259650412,0.9987932483798522,3.726886200866954
181.0,20.155987301876166,86.49899271183905,0.9989194250792793,3.8122263199879356
182.0,21.76500908606193,88.8052552811543,0.9990370916264228,3.9334904810663365
183.0,26.283281856114655,88.96688843236603,0.999143220145523,4.09286708277229
184.0,29.09812118250103,91.71333314112913,0.9992367781429189,4.218512334242113
185.0,32.09501804431165,94.97068841303803,0.9993140948185693,4.312724139724184
186.0,35.349168725020334,98.49545455928101,0.9993696975069201,4.392360402309954
187.0,38.50186999334049,102.59328250367575,0.9994035216911666,4.465882684317386
188.0,40.70160367536767,107.88169851493436,0.999428869316609,4.539150523594135
189.0,42.21551462344148,113.85777330123756,0.9994632448210973,4.6182203575829135
190.0,43.168471973631405,120.33726023659109,0.9995111263250402,4.712791963736847
191.0,43.72781573814998,127.22875816084567,0.9995636597421832,4.851475761430735
192.0,53.093024913644896,126.72342202863857,0.9996128301476976,5.116651055682223
193.0,56.26211864888476,133.80103887348835,0.9996546326879678,5.284164509595156
194.0,59.469410057606666,141.22827685267916,0.9996827660415839,5.3963578515946065
195.0,63.11430129433732,148.60447092734253,0.9996958348806975,5.49444040591001
196.0,67.45806338603124,155.92431093842055,0.9997084886072345,5.594468352687547
197.0,72.65472272648782,163.27984159733276,0.9997324749141615,5.716007768471762
198.0,80.31965656216649,169.95438007417783,0.9997616254440919,5.96844260304864
199.0,93.98728572743875,172.41977351530372,0.9997876827198987,6.275560895625754
200.0,102.1857211714465,182.84230350241447,0.9998036768849737,6.414762787033806
201.0,110.77534603145371,193.52493454115472,0.9998093988667449,6.533544033187285
202.0,114.53131723490488,196.3396644381351,0.9998201011431685,6.664491894884523
203.0,117.11689892396925,185.85108002165603,0.9998385294173557,6.929794245680327
204.0,132.17863901657552,161.24266018134418,0.999855458143218,7.314451836893957
205.0,142.6914533547847,147.05506668498032,0.9998630366482437,7.465023609854847
206.0,158.51841516758086,133.5036540725045,0.9998669482651519,7.605322234939055
207.0,179.47136248223032,123.00874065439011,0.9998785654080888,7.824770662068081
208.0,238.574183938107,95.48883762528362,0.9998910207373021,8.32331303230615
209.0,303.0346784810898,89.92608643774658,0.9998954911576771,8.49033631851003
210.0,376.06536123491196,84.97537684660581,0.9998993133270708,8.656024795660082
211.0,504.8611645879595,62.313148562768234,0.9999092710446817,9.206206298659628
212.0,659.8502792987368,56.308104339271864,0.9999152948354014,9.44015025820043
213.0,853.6714658355327,52.2607346271098,0.9999169799327398,9.615560756240688
214.0,1129.0564120108152,36.598851984429764,0.9999244053563991,10.18715864041291
215.0,1342.2104588571701,43.67239466382998,0.9999289858093219,10.453439379901232
216.0,1576.7764556312088,53.337625258585476,0.9999305811418091,10.650251427353941
217.0,1855.9971150657732,35.58344038858989,0.9999369285393606,11.308990043648247
218.0,2057.0252330893018,53.494736850772796,0.9999385508745379,11.529309313097821
219.0,2306.1001169215456,53.82151783669701,0.9999419845460137,11.865400846842281
220.0,2444.5321102066996,51.725540970907154,0.9999455635855888,12.452712620126093
221.0,2556.529159726897,96.82016234466391,0.9999467627162733,12.691019187143239
222.0,2673.1510860525186,60.7281577046533,0.9999507779567315,13.40733202119306
223.0,2728.892073697342,107.87524583131885,0.999951298253561,13.647966104306166
224.0,2827.2991288748967,65.86479178705699,0.9999548892273709,14.395459302362886
225.0,2860.5081552548313,115.90027823154712,0.9999552710989676,14.650453300957105
226.0,2947.9544970763377,69.47289507062426,0.9999582569703747,15.418468736488185
227.0,2923.4802653052598,155.74630036114738,0.9999587710445447,15.701040283477926
228.0,2955.6279006691557,95.02069847015342,0.9999608687822212,16.471424980722603
229.0,3005.2874826022817,110.62662172893245,0.9999620777243771,17.13287881513633
230.0,2923.493736145022,153.21722120555586,0.9999628440609021,17.551807867677837
231.0,2964.7121241749724,90.42778482562106,0.9999648278512047,18.370989018102705
232.0,2857.3019795302052,187.16705930730106,0.9999649912691446,18.68375073989952
233.0,2844.340917422571,124.80964260186266,0.9999662820852581,19.50248380638055
234.0,2901.0266431247246,85.85511075192728,0.9999675892724725,20.337292992207384
235.0,2734.9337111245413,207.4479843008773,0.9999676710626584,20.671241164579897
236.0,2738.4949074719925,119.66796626635906,0.9999686585241233,21.51649138179529
237.0,2844.9304225688393,67.65778264734618,0.9999698301091031,22.383943593371136
238.0,2890.5779801110825,104.75822411598836,0.9999700303117867,22.808348566197026
239.0,2757.509848262733,157.3871452013599,0.999970373289292,23.588821717116346
240.0,2785.026870903503,96.58824007836915,0.9999713350455244,24.478511392055243
241.0,2929.4148337358065,56.016559401670335,0.9999720780691118,25.36688556878333
242.0,3047.452002323902,76.96410518947333,0.9999722091721853,25.8597858235915
243.0,2977.9900092866465,118.81173820595376,0.9999723836568009,26.619209702603385
244.0,3074.3682960930178,67.53720389309103,0.9999729775785382,27.525248611220924
245.0,3265.2064619042176,39.112590735469254,0.9999736654563359,28.443176231915007
246.0,3451.359387370267,33.051934085705575,0.999974089758327,29.35233461743295
247.0,3500.979129729212,87.20214755320684,0.9999741832726793,30.072905324215153
248.0,3447.6304881626124,122.39969409392842,0.999974246667204,30.657855767805536
249.0,3488.5871836134643,76.12317972502346,0.9999745397535027,31.575325557055383
250.0,3625.714541827258,33.97041800584476,0.9999749862494594,32.511092482430634
