Time,J,A,S,tau
0.0,100.0,100.0,0.8769941521969633,2.092050209205021
1.0,90.65251301642958,89.41348030902242,0.8346485501094908,2.3122595327165985
2.0,82.23521590400247,79.99063894559177,0.7947149981619194,2.5317162420123465
3.0,74.66915151711716,71.60019922698956,0.7561733913946396,2.7278369429031204
4.0,67.87118088512821,64.14337431244549,0.7572738717984737,2.7249219758618684
5.0,61.79346214017546,57.51353445902455,0.75839332144126,2.7219716677347185
6.0,56.388565444363245,51.6288255905919,0.7595310253694115,2.718988762348877
7.0,51.61700476002358,46.4218458469985,0.7606865631087121,2.7159765643048
8.0,47.44367089754121,41.839175932251855,0.7618594647074874,2.71293524372968
9.0,43.83287965105421,37.84054685271355,0.7630495284723113,2.7098642248670934
10.0,40.74232589948637,34.39718602278343,0.7642553293820109,2.7067744207827564
11.0,38.117094282047546,31.489067155502934,0.7654765723760699,2.7036653079366246
12.0,35.8858626226677,29.10036219597244,0.7667127915116757,2.7005393360683425
13.0,33.962121023332124,27.213248506504637,0.767962628940496,2.697402138504212
14.0,32.251589807351195,25.801190152339153,0.7692262860098634,2.6942538286754876
15.0,30.66543076369618,24.82282351885334,0.7705028764149556,2.6910978863904567
16.0,29.134345905139075,24.219482598574395,0.7717915123039006,2.6879382594047816
17.0,27.618313191178135,23.917571337763825,0.7730912427975066,2.6847796637917405
18.0,26.107742799373934,23.83601859062566,0.7744013517146137,2.681626311945942
19.0,24.61663327728334,23.89625358027443,0.7757206569189523,2.6784837835875495
20.0,23.171106085478115,24.031473595785677,0.777048749336161,2.6753538444413465
21.0,21.79832807309946,24.19225520073133,0.7783847497379135,2.6722408691435984
22.0,20.518960479674625,24.347669520697078,0.7797269098739774,2.6691535173189314
23.0,19.343970309954244,24.482805022690503,0.7810749247174245,2.666092961558366
24.0,18.275269021356156,24.59414803954161,0.7824273922291581,2.663065961126634
25.0,17.307993118273615,24.684910105705328,0.7837834830375112,2.6600770363536816
26.0,16.433404043171237,24.761126006589485,0.7851417671093904,2.657133812495456
27.0,15.641201851850413,24.829109492570964,0.7865016124408108,2.6542383370695304
28.0,14.92126542285351,24.894054560716945,0.7878615303602711,2.651398771334511
29.0,14.264479568317977,24.959574932039587,0.7892204530399697,2.648619815404226
30.0,13.66315489457309,25.02778248868863,0.7905772139315619,2.6459073296838116
31.0,13.110995039597805,25.099605457894945,0.7919308132351229,2.6432656324131574
32.0,12.602899964369714,25.17518983536778,0.793280043830248,2.640700958823452
33.0,12.134709110324644,25.254270742071604,0.7946238621702071,2.6382181518496552
34.0,11.702934065475993,25.336414628183565,0.795960981332995,2.635823466449436
35.0,11.30457870123185,25.421205705434947,0.7972902165850797,2.6335224268791024
36.0,10.936933678496692,25.50833109575547,0.7986107090729229,2.631319005016901
37.0,10.59757250640517,25.597583662552708,0.7999212795116427,2.6292187896311248
38.0,10.284217857152383,25.688870347491637,0.8012209818502805,2.6272260569479626
39.0,9.994781683741508,25.782163506864478,0.8025088512249454,2.6253450388261736
40.0,9.727316196700135,25.877526848633472,0.8037840382627073,2.623579611793259
41.0,9.480016815957187,25.975013887899205,0.8050457838760697,2.621932751618081
42.0,9.251237412593683,26.07471007620746,0.8062933910712947,2.6204073787001114
43.0,9.039471204696934,26.17669282720267,0.807526142989932,2.6190063744904064
44.0,8.843353989985479,26.281028955358064,0.8087432836608117,2.617732931111855
45.0,8.661621116738493,26.38777873618536,0.8099443494539297,2.6165885618978213
46.0,8.493124627530818,26.497022356776025,0.8111288906315586,2.6155744840988016
47.0,8.33684162279095,26.60879945649227,0.8122964047472394,2.614692367331962
48.0,8.191833027362138,26.723162394132533,0.8134465818510646,2.6139427189654167
49.0,8.057231290067163,26.840158677521053,0.8145791258424077,2.613326164747504
50.0,7.932241123712426,26.959849553284094,0.8156938316828223,2.6128427720846994
51.0,7.816168263649455,27.082257737195402,0.8167902183294388,2.6124943804629948
52.0,7.708315688484924,27.207452634493436,0.8178686395791828,2.6122773526832725
53.0,7.608091170550612,27.33547545618262,0.8189289695042579,2.6121912594398013
54.0,7.514922445383507,27.466382385248803,0.8199714353643173,2.6122337695339737
55.0,7.428298282421353,27.60019062414674,0.8209956439087484,2.612405592249278
56.0,7.347761289507525,27.73694005058564,0.8220018688526338,2.612704096105837
57.0,7.272862875927484,27.876682534643063,0.8229906410025333,2.6131249010076285
58.0,7.203224377450002,28.01943021017475,0.8239617618847143,2.6136678281021544
59.0,7.1384458016774195,28.165206965550876,0.824915388742198,2.6143304336747986
60.0,7.078197073013912,28.314041455810198,0.8258519643081039,2.6151090331309264
61.0,7.0221897869187675,28.465942523534576,0.8267716618602227,2.6160013170634557
62.0,6.970107664115975,28.62093356802777,0.8276748449678573,2.6170036481283656
63.0,6.921682406076543,28.779012810885717,0.8285617737342602,2.6181130955718936
64.0,6.876677452932982,28.94018244436744,0.8294327464947887,2.619326610775459
65.0,6.834858663277283,29.104445359016097,0.8302883719053137,2.6206391030613516
66.0,6.796005936224758,29.27178896282079,0.8311286916515,2.6220488044775623
67.0,6.759936842977255,29.442193891109756,0.8319542305482123,2.62355122583645
68.0,6.675058890925668,29.430730780155862,0.8327652486270998,2.625143373041677
69.0,6.486698691288112,28.863240962845424,0.8335619459342603,2.6268222091246503
70.0,6.301170118359335,27.803217956288613,0.8343446934538038,2.6285841629471927
71.0,6.301083026028553,26.468941326940378,0.8351138139861604,2.630425824676852
72.0,6.579599114429415,24.95076051294441,0.8358697737473527,2.6323425025301703
73.0,7.015445329326922,23.477748531145174,0.8366129754714516,2.6343303679129906
74.0,7.5471780976758405,22.15060372557782,0.8373437046305516,2.6363858223975813
75.0,8.105108336202075,21.032627319458918,0.8380620951074242,2.638506761098878
76.0,8.63410946536678,20.137491413760475,0.8387685341275889,2.640688691078505
77.0,9.08824416388426,19.459840582834268,0.8394631508827155,2.64292916997638
78.0,9.44462901024131,18.962186422470932,0.8401460046272085,2.645226710867628
79.0,9.701523269205056,18.599210617334013,0.8408175715685798,2.6475764164775293
80.0,9.874178301413295,18.32282491474576,0.8414779386626848,2.6499759690193976
81.0,9.986762174274117,18.092516236119508,0.8421270915545664,2.6524241904134427
82.0,10.065803840946622,17.879668275495327,0.8427654498871102,2.654916471481979
83.0,10.132125304608,17.668584369678282,0.8433931207916331,2.6574508190270083
84.0,10.19950638931214,17.45419645312118,0.8440101992558309,2.660024434593558
85.0,10.2740083783433,17.238205239517992,0.8446168051153667,2.6626350784095583
86.0,10.355172167575686,17.026746426043346,0.8452130777365898,2.665279858425816
87.0,10.440606249205647,16.823612416764288,0.8457990958125681,2.667956751082378
88.0,10.52597710883178,16.63287299855191,0.8463748847525572,2.670663799431799
89.0,10.607820656747203,16.45555953312194,0.8469405918195507,2.673398502270529
90.0,10.684741562598983,16.29099186710504,0.8474962447928537,2.676158345690467
91.0,10.755235451100587,16.138538742658394,0.8480421047443369,2.678938849305467
92.0,10.820248834592041,15.995154353685914,0.8485780985826126,2.681738679510501
93.0,10.880835252999514,15.859430711858463,0.8491041490826555,2.6845573295447283
94.0,10.938286138956869,15.72949045627411,0.8496203067398856,2.687392394831718
95.0,10.994748259621943,15.605624076784553,0.8501265973819684,2.690241903617613
96.0,11.048017986223547,15.485852454157033,0.8506230773167653,2.693102721532183
97.0,11.100363568153524,15.368543535995787,0.85110980688658,2.6959719891607885
98.0,11.152753396398678,15.257536095433032,0.8515867331134047,2.698848310039035
99.0,11.202477335615653,15.15040509089365,0.8520538933515436,2.70172883277784
100.0,11.25216434178816,15.049389334999063,0.852511210245445,2.7046113970636116
101.0,11.299134697807325,14.952827708418429,0.8529587475697361,2.7074934964742674
102.0,11.344616026845511,14.859168904425577,0.85339644881148,2.710372842180064
103.0,11.388325127339646,14.76857242344484,0.8538242329417911,2.7132482983514374
104.0,11.43160389509087,14.681856567095553,0.8542422191481025,2.7161138337752972
105.0,11.473791135118447,14.597786229682171,0.8546503605120348,2.7189681533326864
106.0,11.515498389633246,14.516726481147908,0.8550485589224911,2.7218108798228777
107.0,11.555436806274383,14.439644352391715,0.8554368331048211,2.7246366996181837
108.0,11.594481469927777,14.3644091489554,0.8558151001833796,2.7274449586302016
109.0,11.632574181570947,14.292244228211166,0.8561833895396237,2.7302307653160334
110.0,11.669973219453826,14.222559300153586,0.8565416493414661,2.732991271183011
111.0,11.706178410744226,14.154882108829348,0.8568898502085688,2.7357238768429273
112.0,11.741744152345962,14.089832430347155,0.8572279500428049,2.7384260578272
113.0,11.776066586986058,14.027431121717557,0.8575558519930906,2.7410956790888177
114.0,11.809728874363243,13.965971355966358,0.8578735797092205,2.7437288698627316
115.0,11.842526997397625,13.907388064111611,0.8581810921344097,2.746321987095554
116.0,11.875455034060037,13.851297860816198,0.8584782574225506,2.748871265822978
117.0,11.907378055102333,13.797462793096793,0.8587652303649465,2.751373927394284
118.0,11.938297617990369,13.74573259471456,0.859041846476786,2.7538271430489214
119.0,11.967763620976184,13.695740795120892,0.8593081431689793,2.756226722986904
120.0,11.995932692613176,13.648714246737205,0.8595640004061755,2.758569513661148
121.0,12.023369140903565,13.602812789509574,0.8598093794946559,2.760853241596199
122.0,12.050658178568927,13.559033557933585,0.8600443819812,2.7630692933396386
123.0,12.07658387501452,13.517787250178342,0.8602688036961762,2.765220349020177
124.0,12.10055312115562,13.477421839029788,0.860482751059955,2.7672991663136988
125.0,12.123710255509563,13.439148405793633,0.8606861351331573,2.7693037505880693
126.0,12.146411182142364,13.404441864187808,0.8608790035285664,2.7712288671766205
127.0,12.16811030679023,13.372127169350069,0.8610612404704725,2.7730723395367516
128.0,12.187844228721694,13.341474411333815,0.8612328963197401,2.774829349150536
129.0,12.206109552638086,13.311619053643128,0.861393990593708,2.7764959167499947
130.0,12.223518889829792,13.284301414055003,0.8615444206047183,2.7780704156797236
131.0,12.240476091145917,13.258777090331012,0.8616842424912281,2.7795472775594177
132.0,12.25646564088303,13.23513131481776,0.8618134185255112,2.780923630221528
133.0,12.270791439831612,13.214078699336964,0.861932005616169,2.782196654248135
134.0,12.284855144659847,13.194139617627899,0.862039903602324,2.7833641543447842
135.0,12.296744343509758,13.177194871402309,0.8621371740535655,2.784422173647571
136.0,12.307420484048306,13.16124051807802,0.8622238118370216,2.785367040243338
137.0,12.317980927935114,13.147822006713941,0.8622998105969012,2.7861970379556085
138.0,12.326602511058901,13.136620256628003,0.8623651765998586,2.786910228587584
139.0,12.333923831431045,13.126902480185471,0.8624198945839174,2.7875048829853974
140.0,12.339893154940645,13.118792388354281,0.8624640107731848,2.787978517978112
141.0,12.344614267472897,13.113802055711211,0.8624974752436114,2.7883297467887314
142.0,12.34894604022975,13.111309552137982,0.8625203671119203,2.7885553893062354
143.0,12.350266357118088,13.109829627944828,0.862532590147262,2.788660171234106
144.0,12.350831109489643,13.111546353150645,0.8625342383382707,2.78863736590101
145.0,12.349883711673607,13.114842264783466,0.8625252102502666,2.788492835748615
146.0,12.347635133618056,13.11982255587542,0.8625055725986398,2.7882223124405145
147.0,12.344430084751284,13.127264886287902,0.8624753640715196,2.787826823059424
148.0,12.339110250719306,13.136149622237303,0.862434471858828,2.7873097453350337
149.0,12.333098717968705,13.148307082236244,0.8623829797208626,2.7866708386041545
150.0,12.32634107202459,13.16240340989616,0.862320819779733,2.7859126505737315
151.0,12.317585209355627,13.17721684478784,0.8622480347210023,2.7850379320537773
152.0,12.308570394067145,13.19408509330851,0.8621646502577514,2.784046651259104
153.0,12.297591160517754,13.211645739450237,0.8620705764308711,2.7829446376880127
154.0,12.286056121226007,13.232398474399373,0.8619658631195382,2.7817324845556968
155.0,12.273934668906866,13.25589562032868,0.8618505342326659,2.7804133948278498
156.0,12.260187307679184,13.280681931271294,0.8617245388415158,2.7789910496401764
157.0,12.245230827419967,13.30880346919476,0.8615879180868041,2.777468542145601
158.0,12.22861225031824,13.338701961464258,0.8614407000093267,2.7758470511887974
159.0,12.211354804195219,13.370226506864638,0.8612828413843997,2.774132468996823
160.0,12.193076798628448,13.403048367329633,0.8611143674972683,2.7723280778993704
161.0,12.173818838830845,13.43825864992801,0.8609352720650847,2.7704383318266914
162.0,12.154050283676348,13.474914024419498,0.8607455605664441,2.768466475922629
163.0,12.13307624235491,13.514322636355061,0.8605452688229848,2.766417131254824
164.0,12.111032271296255,13.554871301740626,0.8603344039964389,2.7642932203486748
165.0,12.088569420808117,13.598339723673348,0.8601130413733602,2.7620963120798447
166.0,12.064481736643883,13.644142219588216,0.8598812092039642,2.7598317397584107
167.0,12.039248188849696,13.69162454574058,0.8596389073272025,2.7575027696418246
168.0,12.01356523600312,13.740985200256352,0.8593861713575033,2.7551140555051092
169.0,11.98719221935153,13.792818038605628,0.8591229708913752,2.7526686208187523
170.0,11.960039530136784,13.846353517695714,0.8588493985432224,2.7501692173167043
171.0,11.932200331321296,13.901922450354794,0.8585654040089912,2.7476210903558553
172.0,11.902959038663905,13.95858157178397,0.8582711290553174,2.7450268715489274
173.0,11.873878935845095,14.017891425801958,0.8579665849380238,2.742390112353392
174.0,11.844208487284282,14.079254282957008,0.8576518201379362,2.739712353487245
175.0,11.813593158697607,14.143819454919155,0.8573267687717895,2.736999362181717
176.0,11.78159184775156,14.210961941395261,0.8569916340324043,2.7342517241575717
177.0,11.749241744709039,14.280204529189772,0.8566462917701326,2.7314738908962877
178.0,11.716131383529254,14.352588056140991,0.8562908585851631,2.7286692897686295
179.0,11.680443335586464,14.425820392323228,0.8559252946851541,2.725842690650277
180.0,11.645677101050225,14.502649035087659,0.8555497474145706,2.7229932015834923
181.0,11.610610946092045,14.581419131482324,0.8551640625406939,2.7201274060144236
182.0,11.574714432370389,14.663276698150137,0.8547684671915606,2.7172450413917315
183.0,11.537520099681565,14.748261344632036,0.85436290110016,2.7143501385295217
184.0,11.499763382029956,14.837167864190004,0.853947407517344,2.711446437568131
185.0,11.460831517062271,14.928155822588364,0.853521986858939,2.708535736656032
186.0,11.419845492370593,15.022497058217407,0.8530867019457443,2.705619505451668
187.0,11.379546272282301,15.121495128046963,0.8526415295850968,2.702701458506941
188.0,11.337107099012101,15.224139978258194,0.852186449437571,2.6997837414482895
189.0,11.293971318473128,15.330484850550992,0.8517215698912941,2.696868241027396
190.0,11.249626204035565,15.442063932109898,0.8512468108111704,2.693957696735397
191.0,11.20320079850835,15.55716756710079,0.8507621385926737,2.691056159214391
192.0,11.155358344232921,15.676575868735979,0.8502676207898542,2.688164458987082
193.0,11.107160901558434,15.801565563334815,0.8497632260117154,2.6852848039521597
194.0,11.057091062480733,15.9328302950507,0.8492489255968689,2.6824188906507307
195.0,11.004819841939238,16.0701309762255,0.848724701097838,2.679569959898224
196.0,10.951188161552308,16.213563850679133,0.8481904560991682,2.6767412642059623
197.0,10.895707175705109,16.36467454809648,0.8476461710957294,2.673934448743269
198.0,10.838340952176326,16.522721491281153,0.8470919041332968,2.671150518895472
199.0,10.779002094646064,16.689293141059057,0.8465275156633039,2.6683922180091786
200.0,10.716584006598824,16.86415432811914,0.8459528734006536,2.6656631749706774
201.0,10.651978459018006,17.04802530150818,0.8453679988718564,2.662964953588928
202.0,10.585054971763611,17.24509157855651,0.8447726581055232,2.6603006380666905
203.0,10.513851674669253,17.453083154821382,0.8441667257839044,2.657673493849658
204.0,10.44023624101406,17.6777210339968,0.8435502813928711,2.655083921425383
205.0,10.361929682082584,17.91805739974732,0.8429231201420142,2.652534847676929
206.0,10.279538634681172,18.175138771141278,0.8422850310963602,2.6500294813407956
207.0,10.191436563566121,18.45349889264986,0.8416358608834069,2.647571112742077
208.0,10.097907672781373,18.755198599260023,0.8409754295478917,2.6451627196283245
209.0,9.998180413590248,19.08374334821503,0.8403036064662083,2.6428063356054006
210.0,9.891991675445727,19.445088892178017,0.8396200222901855,2.6405057300402492
211.0,9.778207431649996,19.84701910544037,0.8389246717555713,2.6382625351179367
212.0,9.655750633242402,20.298110232114045,0.8382172297779229,2.6360807337061956
213.0,9.523850742615346,20.813265318264058,0.837497368593893,2.6339641472363304
214.0,9.38271948671118,21.42044597109899,0.8367649350805532,2.631915034749911
215.0,9.233456244412539,22.157506964810768,0.8360196503452466,2.629937246067924
216.0,9.095409226572134,23.144133216983278,0.8352610659762801,2.6280346178256284
217.0,8.935356907095922,24.467014885028288,0.8344888156787987,2.626211129821633
218.0,8.598296744147797,25.861362026007413,0.8337028106769837,2.624468635392796
219.0,8.041573013472046,27.114947121100503,0.832902738131743,2.62281068710956
220.0,7.386264918110248,28.176648921302096,0.8320883073635842,2.621240629545435
221.0,6.861408294285154,28.891058029668862,0.8312590010405604,2.6197631504166856
222.0,6.471995111589585,29.324150119741972,0.8304143854410398,2.6183821772701044
223.0,6.210242345149579,29.53543508693583,0.8295541934741623,2.617100747647669
224.0,6.046511475896354,29.59125671143247,0.8286786617718582,2.6159187136400477
225.0,5.952178378234794,29.54452786708157,0.8277872076791443,2.614841125163684
226.0,5.904820801683279,29.43343517146977,0.8268795879691501,2.613870875884706
227.0,5.888381865227963,29.28398686449651,0.8259553509809843,2.6130119498276785
228.0,5.892022166855431,29.113140058626172,0.8250139865680874,2.612268854610609
229.0,5.908542585597279,28.9317464573959,0.8240558322555915,2.6116410729281387
230.0,5.933272470371442,28.74653908271755,0.8230803828975882,2.611132799697714
231.0,5.963214202682611,28.56159958401651,0.8220874420599041,2.610746603475978
232.0,5.996461751254605,28.379301219131793,0.8210768734119459,2.6104844056577994
233.0,6.031874054180545,28.200931850790045,0.8200484954630713,2.6103486088504293
234.0,6.068749106262897,28.027134174019697,0.8190022304303017,2.6103410162361254
235.0,6.1066880519107265,27.858139546852232,0.8179380204129122,2.6104630878426076
236.0,6.145489434527254,27.693959901525027,0.8168558832466001,2.6107160021274107
237.0,6.1850790266107225,27.534481224470596,0.8157557715030781,2.611101203315017
238.0,6.225397363523516,27.379553983417495,0.8146379465907314,2.6116179858337576
239.0,6.266463918004133,27.229003571326707,0.8135025730746327,2.612267076150286
240.0,6.308306519532257,27.082649374554098,0.8123498408693636,2.6130487041992194
241.0,6.350928576054129,26.940336537402338,0.811180022800759,2.613962076121373
242.0,6.394365358601025,26.80191262029588,0.8099933963729893,2.6150073182303566
243.0,6.438609729974475,26.667257591327807,0.8087903736074646,2.6161828700574454
244.0,6.483645273739335,26.536267051639882,0.8075716053971137,2.61748592424638
245.0,6.529471729513224,26.40883609013859,0.8063374885863464,2.6189158552266862
246.0,6.576051441875435,26.28487107982187,0.8050887416087317,2.6204695706545764
247.0,6.6233810473820975,26.164276377990415,0.8038259409526675,2.6221449185612538
248.0,6.671416488235601,26.046972441585442,0.802549849298374,2.6239386669479865
