Time,J,A,S,tau
0.0,100.0,100.0,0.7338336162572993,9.433962264150944
1.0,99.13498445836687,41.93377971829723,0.7267014258693553,10.371089926395195
2.0,98.10110473786264,17.357538670474984,0.7196431821912525,11.310813483259908
3.0,97.00139734304992,7.091048058801963,0.7126589942333991,12.252925850856514
4.0,95.8886222573156,2.857944622174667,0.7057492475990538,13.197233809021503
5.0,94.78422071074972,1.1369408699417716,0.6989135887303816,14.143579650771104
6.0,93.6956795950083,0.4471803299636985,0.6921513379086967,15.091828265759572
7.0,92.62494138137745,0.17257724282994696,0.6854623144931081,16.041821544308483
8.0,91.57271970837263,0.07122014598933572,0.6788459019157504,16.99341648581147
9.0,90.53824848491642,0.033626921044984784,0.6723014614368821,17.9464756444348
10.0,89.52079014965561,0.019515651411608298,0.6658280576914336,18.90087504961603
11.0,88.51964185200022,0.014066318070668467,0.6594247456414771,19.856494828866637
12.0,87.53412205997326,0.011825562355028733,0.6530904618315014,20.813220078375533
13.0,86.56358294845683,0.010785768920457888,0.6468241095436882,21.770941667511025
14.0,85.60739671738833,0.0102072073385672,0.6406245025318429,22.729554756243118
15.0,84.6649669185891,0.009816481312979138,0.6344904452109797,23.688959423255657
16.0,83.735714703424,0.009512034165323755,0.6284206791592819,24.64905890987752
17.0,82.81908275526241,0.009255583951568275,0.6224139133833415,25.609759921804034
18.0,81.91453901344423,0.009032119666088193,0.6164688637816976,26.570972457168455
19.0,81.02156697721354,0.008835393726329683,0.6105842136007438,27.53260860433734
20.0,80.13967166678263,0.008662398162419494,0.6047586579164775,28.494582813659456
21.0,79.26837529179316,0.008511417781565382,0.5989908932154105,29.45681112029447
22.0,78.40721780430903,0.008381278498470292,0.5932796326854902,30.419210831717148
23.0,77.55575444641117,0.008271102979315055,0.5876236022971578,31.381700019940045
24.0,76.71355910667796,0.008180115397834977,0.5820215707917794,32.34419745966502
25.0,75.88021750526796,0.008107727482387868,0.5764723207759234,33.306621671477636
26.0,75.05533071211168,0.008053442023109382,0.5709746772380221,34.26889092402842
27.0,74.23851377499739,0.008016849182578977,0.5655275088919659,35.230922742299704
28.0,73.42939293156687,0.007997674128139762,0.5601297209436515,36.19263326739244
29.0,72.62761072750894,0.007995639693419362,0.5547802895962768,37.15393750919943
30.0,71.8328177330123,0.008010648490892391,0.549478227181217,38.11474793728568
31.0,71.0446797703757,0.00804260220791416,0.5442226238402369,39.07497513623621
32.0,70.26286951254531,0.00809156801213781,0.5390126127953084,40.034526262124274
33.0,69.48707499020847,0.008157589354301891,0.533847418943436,40.99330582287482
34.0,68.71698936565494,0.008240884890820236,0.5287263120725207,41.95121395096703
35.0,67.95232074148093,0.008341650449922267,0.5236486648328025,42.908147193001376
36.0,67.19278157952768,0.008460236382733858,0.5186139001562032,43.863996854309875
37.0,66.43809667473435,0.008596996345470499,0.513621537684147,44.81864962967093
38.0,65.68799870592389,0.008752382771722165,0.5086711785601066,45.77198640284064
39.0,64.94222972324344,0.008926861389878254,0.5037625137641567,46.7238822094222
40.0,64.2005381694559,0.009121034185634008,0.49889531340074217,47.67420532981817
41.0,63.46270170067965,0.009596824772345868,0.4940694500070406,48.622817327461036
42.0,62.728478704442274,0.010101169974221154,0.48928487767057693,49.569572148386065
43.0,61.99764080241471,0.010605671864607608,0.4845416504898112,50.51431595529424
44.0,61.26997007357135,0.011119491435130616,0.47983992235499956,51.45688703055564
45.0,60.54525098996479,0.011651418630297079,0.47517992081020927,52.39711376602637
46.0,59.823281123859594,0.012209395239002253,0.4705619895654321,53.3348167186665
47.0,59.10386289959968,0.012800416468841865,0.4659865515113732,54.26980668092712
48.0,58.38680635194099,0.01342789244240117,0.4614541255627792,55.20188468186113
49.0,57.67192775145887,0.014095579174809615,0.4569653117581398,56.130841783879724
50.0,56.95905181839561,0.014808130908147867,0.4525207977951705,57.05645932534908
51.0,56.248011280780645,0.015568614191731675,0.44812135468578473,57.97850866870833
52.0,55.538642949639154,0.01638075535396919,0.44376781216198363,58.89675034670138
53.0,54.83079509464819,0.017247204919301547,0.4394610765175154,59.810936270502765
54.0,54.12431814515098,0.01817083630266879,0.4352021022544565,60.72080646019833
55.0,53.419074917547725,0.01915644727877075,0.43099190085238087,61.62609322437833
56.0,52.71493572338097,0.020206843148601147,0.42683151860847346,62.52651989193202
57.0,52.0117751876916,0.021322720292336745,0.422722027264521,63.42179950071002
58.0,51.30947984046879,0.022510305054829666,0.41866451762244156,64.31163863333303
59.0,50.60794233811426,0.023771390466527632,0.4146600826375194,65.19573550262717
60.0,49.90706638092331,0.025111262134568237,0.41070981088912817,66.07378264391117
61.0,49.20676286076872,0.026531559765472567,0.4068147726170012,66.9454657363437
62.0,48.50695330686794,0.02803665074472666,0.4029760082203978,67.81046601540969
63.0,47.80756805978002,0.02963021549942804,0.39919451612443224,68.66846003316726
64.0,47.10854788616249,0.0313142232844474,0.39547125114694903,69.51912069369156
65.0,46.4098443818674,0.03309269076154135,0.39180709526462293,70.36211937313418
66.0,45.711418990522,0.03497252816667779,0.3882028869825057,71.19712320824729
67.0,45.01324544875958,0.03695431420438313,0.38465936696191744,72.02380066743949
68.0,44.315308029917944,0.03904487612843539,0.38117722006962174,72.84181719805252
69.0,43.61760331446026,0.041244515331257434,0.3777570398767502,73.65083928493992
70.0,42.92014059172758,0.043562295077264564,0.37439934524989144,74.4505330402808
71.0,42.222941169040105,0.04600347792809732,0.37110458367620136,75.24056378731055
72.0,41.526040883355314,0.04857274968624032,0.36787310462697953,76.02059956930415
73.0,40.82948723940158,0.051275518274572836,0.36470522672925726,76.79030436196045
74.0,40.13334377769937,0.05411879300679713,0.36160116364354056,77.54934619995927
75.0,39.43768737668335,0.057114856580975155,0.35856111098345744,78.29738841606721
76.0,38.74261083747922,0.06026716593883671,0.35558518564637404,79.0340965168866
77.0,38.048222666830654,0.0635865043462236,0.35267347716698944,79.75913310736806
78.0,37.35464838096578,0.06708543043642723,0.3498260453450927,80.47215869912512
79.0,36.66203052414643,0.07077772483856665,0.3470429418857817,81.17282952667604
80.0,35.97053028822685,0.07467405061336518,0.3443241929159224,81.8607997497936
81.0,35.280327765285236,0.07878968374792603,0.3416698437832551,82.53571716487846
82.0,34.59162457916449,0.08314574776238152,0.33907994310832,83.19722501360395
83.0,33.904643492313454,0.08776214217026804,0.3365545794688669,83.84495835898126
84.0,33.21963106520896,0.092659235935195,0.33409385733612534,84.47854671949814
85.0,32.53685958843,0.09786595485172575,0.3316979347092788,85.0976103025118
86.0,31.72744213201148,0.21966795557557706,0.3471168880552123,80.60239673887
87.0,31.114119225953566,0.14354341073627563,0.3760040834975372,72.6132831265315
88.0,30.49446661713477,0.09469929033891568,0.41523582410469145,62.569938636496126
89.0,29.870866321481447,0.0632772077487358,0.45849825198355887,52.581547987427356
90.0,29.245225359611855,0.04292432438176262,0.4966076524051778,44.69224634981683
91.0,28.618747333503595,0.02985156543227136,0.5247503768835534,39.4334890933049
92.0,27.992512576908734,0.021487508916788026,0.5483521468499128,35.29087633558828
93.0,27.367303787595578,0.01626691826396617,0.5704027127487643,31.581756098410604
94.0,26.7435265490867,0.013389902378690189,0.5841995531202431,29.364483900649134
95.0,26.121948383460726,0.01198087996947223,0.601286704470661,26.70853652319226
96.0,25.50261050752364,0.01208889551499971,0.6101963272494088,25.345003363910205
97.0,24.886419732242928,0.013030089953866833,0.6226232819722572,23.509542184981868
98.0,24.273004821446357,0.01552580456067116,0.6304760189103532,22.341297370390176
99.0,23.663907212313912,0.018543931206723,0.6423633378793829,20.67795455816133
100.0,23.05880884229391,0.023152117257600004,0.6498335998753109,19.619612054714185
101.0,22.45848614620351,0.02946921686572482,0.6570071881115067,18.62047622203683
102.0,21.863745097846117,0.037986560081432225,0.6639517982957794,17.672149061556176
103.0,21.26593829707002,0.059348156778968805,0.6674757344004654,17.15028561820913
104.0,20.685174920749667,0.08413233644793552,0.6731927077923299,16.375054674852038
105.0,20.135512387287033,0.09584092040272317,0.6797689503350144,15.513894802125488
106.0,19.603128558613026,0.10141728671635428,0.6860528569853704,14.705633853793907
107.0,19.08279400575531,0.10391724560766327,0.6882738540444694,14.37229429078254
108.0,18.573032208228977,0.10383186839722514,0.6943059451461141,13.598702096289022
109.0,18.070602887819984,0.10407228550262558,0.6963724823478987,13.298028801887709
110.0,17.57650415331527,0.10384756505754994,0.7019331081762104,12.58953461448327
111.0,17.088678644142846,0.10595855629310708,0.7038244319590556,12.322173285501268
112.0,16.610308646481062,0.10865487517558264,0.7088863805507016,11.664133461747953
113.0,16.13838793495805,0.11724891953165424,0.7105839513407823,11.425288141682232
114.0,15.678652844072605,0.1298176508927024,0.7137813869635513,10.984022882441273
115.0,15.229638691831594,0.15630648408677028,0.716515153454078,10.587759633295475
116.0,14.800179451083782,0.19967023797326916,0.7179243374961929,10.386401401188087
117.0,14.417479920617343,0.239561768095938,0.7201803396979426,10.030743878712826
118.0,14.08143295677269,0.27972581506909405,0.7226243266748946,9.644992491643125
119.0,13.784396374891955,0.32969301337193263,0.7236977134932161,9.469653976114746
120.0,13.538380919188949,0.37911488402364585,0.7247010651241578,9.286146857050731
121.0,13.35291308715423,0.4209764303471233,0.7268105007975373,8.909523926582017
122.0,13.216856579587837,0.4703694499455386,0.7278339424293978,8.660615012076752
123.0,13.12544471810362,0.5388642611354155,0.7284939149188038,8.512867027365667
124.0,13.08703222138646,0.6340344077209551,0.7290958238020849,8.37543694073469
125.0,13.129386932207142,0.7557726254963084,0.7296216363036271,8.200758472991499
126.0,13.293631214486679,0.8955967195261979,0.7307383543673955,7.900346897579062
127.0,13.583801979537448,1.080025030121549,0.7311470016680738,7.700676814830338
128.0,14.012568887914346,1.3221973454832758,0.7313896576482003,7.573484069254558
129.0,14.610221755344607,1.613398299461971,0.7316182394236164,7.465875142971452
130.0,15.395032902581391,1.9524568842681422,0.7317850468331443,7.356273286616879
131.0,16.378764049329643,2.336989207567515,0.7318620540020149,7.222841153010272
132.0,17.562524300174463,2.771679335195869,0.7320091443459283,7.029108399398142
133.0,18.9006425523132,3.303643362169942,0.7321403925084257,6.826087040990272
134.0,20.298392462064374,4.017023490314483,0.7320221327948508,6.693681960023994
135.0,21.702526902360486,4.928736838291982,0.7319020614306414,6.595804442750197
136.0,23.052952674625914,6.020286398535883,0.731798918639816,6.511942821212974
137.0,24.22891319448806,7.292146548064508,0.7316786074058392,6.4319223432323245
138.0,25.073521003175077,8.75990423845384,0.7314936780216444,6.348407196606301
139.0,25.442192569993935,10.428043924009529,0.7312221442405173,6.25274017013797
140.0,25.246722547174535,12.265080938983104,0.7308819533408377,6.132906553571685
141.0,24.45319147606178,14.223318134228377,0.7305336886007362,5.985197072423272
142.0,23.007042851501655,16.325575059644123,0.7301200118609277,5.848121358188435
143.0,21.03563738570991,18.46060472273938,0.7296452978762343,5.745032334335044
144.0,18.865629462820195,20.35687758305629,0.7291739059594076,5.665399035791812
145.0,16.7135393879136,21.881297930584335,0.7287309723065158,5.598814317966573
146.0,14.721860021437477,22.983748996165748,0.7283209691096543,5.53917075361392
147.0,12.985421732894823,23.655598140677768,0.7279225049013441,5.482970936377394
148.0,11.552286072798458,23.922782376071375,0.727495419758069,5.427984662900225
149.0,10.430853359252163,23.838050972522158,0.727001238189956,5.37238820662343
150.0,9.599045868225689,23.47265064753516,0.7264197016809061,5.314212676268611
151.0,9.011396976753359,22.910063440903613,0.7257503298830601,5.251088162189862
152.0,8.604006106261364,22.241976714394024,0.7250038664068922,5.180448648325622
153.0,8.303744814769926,21.560444673127044,0.7241948031555361,5.100845187071618
154.0,8.071700145767936,20.91625913580071,0.7233363791782115,5.015086831629442
155.0,7.941675096521847,20.282243677477265,0.7224333983839817,4.9317175545945435
156.0,7.949651399420542,19.62505975495707,0.7214903244227422,4.858555368586324
157.0,8.07308551332925,18.96529509636515,0.7205190784451103,4.797282500230381
158.0,8.262212907066033,18.34592734846156,0.7195322544745737,4.745939146610901
159.0,8.477539163810079,17.795280408131795,0.7185423381814234,4.701977069568024
160.0,8.693195699880256,17.324750612483193,0.7175619403853063,4.6633073183439135
161.0,8.890029620047503,16.93715537221523,0.7166020149564665,4.628414080316518
162.0,9.053690460348882,16.630053177831712,0.7156696047470328,4.596245380725368
163.0,9.175115636464366,16.396663314107094,0.714765575761122,4.566097293008382
164.0,9.250833885091552,16.226681777892896,0.713884331268044,4.537516223820928
165.0,9.282743595332313,16.107347280141614,0.7130146547889908,4.51022819926995
166.0,9.277176047915644,16.02479626070568,0.7121418427209646,4.484078698161335
167.0,9.243586069266724,15.965385746877729,0.7112506418853487,4.4589847327096575
168.0,9.192826569091618,15.917025486655758,0.710327938356168,4.434897300495513
169.0,9.135076036112919,15.87066414814483,0.7093642997900391,4.4117788199155745
170.0,9.078607956879752,15.8206698703272,0.708354879634349,4.389588993225884
171.0,9.029838096688838,15.764075525481097,0.7072985791467983,4.368285073540105
172.0,8.99312557721449,15.700051054421593,0.7061976906750557,4.347819907002559
173.0,8.970682851927824,15.629492771549469,0.7050564044504309,4.328147142963839
174.0,8.962829608009251,15.554439273143759,0.7038801902846503,4.309230972762007
175.0,8.968265009805599,15.477589183297322,0.7026751912946725,4.2910385172814705
176.0,8.984695955107384,15.401709402058215,0.7014475180335712,4.273548840028748
177.0,9.009300769817568,15.329256162163375,0.7002029836195727,4.256752543095671
178.0,9.039161792591011,15.262130534892602,0.6989475586528413,4.240644592198765
179.0,9.071697455274734,15.201511321952806,0.6976864848987749,4.225231407362144
180.0,9.104806800296258,15.147896982441035,0.696424902364677,4.210521242185054
181.0,9.137005729251445,15.101178467620883,0.695167625253475,4.196523884412518
182.0,9.167450325068124,15.060780040101571,0.6939192098558941,4.183251820783988
183.0,9.195803180689218,15.02584033425802,0.6926838086941072,4.17071459531531
184.0,9.222147825952044,14.995364405453367,0.6914653087378286,4.158920583786077
185.0,9.246801892236956,14.968381404901749,0.6902675711001702,4.1478701653408665
186.0,9.270211922747547,14.94403235833575,0.6890944564356579,4.1375571274529275
187.0,9.292826490261174,14.921624849389618,0.68794941497415,4.127972532005051
188.0,9.315017607773148,14.90066396680306,0.6868356849996717,4.119103131988418
189.0,9.337024129300184,14.880845918732826,0.6857565953471967,4.110927365338881
190.0,9.358966902862862,14.862024020098652,0.6847153506390378,4.103420256960347
191.0,9.380817618859519,14.844164456204469,0.683714595417557,4.096557623889095
192.0,9.402469696822614,14.82730756701318,0.6827573181706843,4.090307838274322
193.0,9.42372844972143,14.811560802669788,0.6818463275336977,4.0846376335489385
194.0,9.444355741508021,14.797016767490208,0.680983786013538,4.0795187428794275
195.0,9.464134875682062,14.78375743069033,0.6801722012607709,4.074918415374056
196.0,9.482831893037526,14.771850020244514,0.6794138313540166,4.0708043193149885
197.0,9.50024757199905,14.761350772976352,0.6787108735902323,4.067144469242213
198.0,9.516187322498855,14.752262622421425,0.6780648559461064,4.063913993260719
199.0,9.530522272656691,14.744598270287474,0.677477679208114,4.061084251438126
200.0,9.543117314452378,14.738365473411218,0.6769508561953025,4.05862994959225
201.0,9.553924965427194,14.733519700612739,0.6764860933702417,4.056526187828361
202.0,9.56284079049663,14.73006201539442,0.6760843508549768,4.054755159372644
203.0,9.569820524819542,14.727959665998299,0.6757467191432799,4.053299401596367
204.0,9.574817033103946,14.727211853817556,0.6754742678381219,4.052141116047132
205.0,9.577795162977878,14.72780889202553,0.6752677335581101,4.051268217780429
206.0,9.578726114484803,14.72972556966586,0.67512746819904,4.050674273781914
207.0,9.57758778000066,14.732960604200366,0.6750539488226985,4.050351243207439
208.0,9.574360973583314,14.737498734559118,0.6750472158340275,4.050297418888829
209.0,9.569044812818078,14.743339591457895,0.6751075973254723,4.050508544704018
210.0,9.561612252183894,14.750462452883584,0.6752345423541989,4.050990999491848
211.0,9.552084972378104,14.758861835258413,0.6754281048332831,4.051745508311981
212.0,9.540446925400955,14.768505701442649,0.6756872318509807,4.05278632436903
213.0,9.526739964907884,14.77937340386321,0.6760116016877902,4.0541195963822565
214.0,9.510986659912055,14.791444191411994,0.6764003683377154,4.055757974583698
215.0,9.493242514913579,14.804709814863767,0.6768529130766595,4.057712346638515
216.0,9.473518972171608,14.819084772174271,0.6773670690431042,4.060013188992449
217.0,9.451905244393966,14.834564388606285,0.6779422965902697,4.0626706569992
218.0,9.428481344830788,14.851073989566363,0.6785765204075057,4.065715907526404
219.0,9.403316132559446,14.868598201695127,0.6792680365326138,4.069172590149602
220.0,9.376531319591631,14.88706990369754,0.6800150674328028,4.073067640904971
221.0,9.348238524174668,14.90646590186348,0.6808158893239641,4.077425194797267
222.0,9.318566056295074,14.92672458768164,0.6816678421052846,4.082281674688045
223.0,9.287642672616633,14.94784304902898,0.6825690804994323,4.087660171105975
224.0,9.255614177951772,14.969777974216958,0.6835166550193134,4.09359731865236
225.0,9.222645618630654,14.992518350389508,0.6845082346949919,4.100119481915908
226.0,9.188903871083642,15.016058660013657,0.6855408121387956,4.107258359145993
227.0,9.15456148034293,15.040416768950282,0.6866115964339258,4.115038757363454
228.0,9.119796163571905,15.06562710466657,0.6877175330869508,4.1234845320320765
229.0,9.084800998456553,15.09173714579136,0.6888552750438011,4.1326180012684715
230.0,9.049758066756722,15.118826733090918,0.6900215212509778,4.142454226329617
231.0,9.0148617267136,15.146983696974685,0.6912127515483486,4.153004368324854
232.0,8.98033022229027,15.176310764601038,0.6924252934327215,4.164274963454952
233.0,8.946383220454868,15.206931052133932,0.693655319857075,4.176266419801048
234.0,8.9132704739322,15.238965636528512,0.6948987995286721,4.1889750608518534
235.0,8.881279627203945,15.272526152724643,0.6961513917900429,4.2023950092039835
236.0,8.850716896600542,15.307731058978732,0.6974085599836678,4.21651664826106
237.0,8.821950742801675,15.34466242500773,0.6986654652584606,4.231330512264918
238.0,8.79537740275891,15.383400371364154,0.6999170052508286,4.2468275748557485
239.0,8.771480372358015,15.423974155499286,0.7011574158204543,4.263005632507513
240.0,8.75077279331022,15.466398081681588,0.7023807373807617,4.279866930433568
241.0,8.733801363210691,15.51067513482877,0.7035805291794796,4.297420796387099
242.0,8.721174127554551,15.556777099986553,0.7047498614498537,4.315689900231339
243.0,8.713462453462768,15.604725500675285,0.7058817536352664,4.33470330938866
244.0,8.711205545808713,15.65459618770374,0.7069693224361369,4.354500505378809
245.0,8.714840820754077,15.706582270290314,0.7080064697507299,4.375127039301628
246.0,8.724664163973989,15.761022693996086,0.7089887647033984,4.3966320215781165
247.0,8.740714123991793,15.818543850571277,0.7099146690816249,4.419055877115752
248.0,8.762774715170679,15.88002548173696,0.7107868437312268,4.4424303176981095
