Time,J,A,S,tau
0.0,100.0,100.0,0.9470007556509475,10.309278350515463
1.0,101.53303288862416,78.59326240014111,0.9476242058645029,10.803614888781825
2.0,103.27872831359826,60.26051378621995,0.9482526712919872,11.3131809797358
3.0,105.29713361159841,45.24745804635764,0.9488841866670823,11.83755572887048
4.0,107.68195261788014,33.35264332642502,0.9495168226974998,12.376356505803027
5.0,110.53455254920648,24.174821694559316,0.9501489084070883,12.929192953706373
6.0,113.83735701693892,17.25203621348329,0.9507788671178853,13.495700522853252
7.0,117.35478098433714,12.13447249711545,0.9514052577592307,14.075502799629314
8.0,120.71372179335052,8.418642351120646,0.952026732299759,14.66824704101222
9.0,123.5908467809895,5.765168032529599,0.9526421284042982,15.273566494492657
10.0,125.82932093159408,3.8996039798319893,0.9532503273571774,15.89112248425737
11.0,127.4339706966167,2.6065385333705793,0.9538504071586272,16.520561303174063
12.0,128.5044694589539,1.7225469369649464,0.9544414966549735,17.16154559656784
13.0,129.16974694545914,1.1258846567379424,0.9550227544789658,17.813754901285353
14.0,129.54922048085842,0.7281362233812584,0.9555934720788279,18.476869784917913
15.0,129.73747508915284,0.46609550343289713,0.956153015761074,19.150572583412735
16.0,129.8029263479785,0.2954057925959884,0.9567007579026062,19.834571986630237
17.0,129.7922444211212,0.1854272401384572,0.957236248215356,20.528554853438134
18.0,129.73598604834245,0.11531040188372382,0.9577590159825795,21.23223869460998
19.0,129.65357230480564,0.07105962184783103,0.9582686141469321,21.94535139371755
20.0,129.55704137074628,0.04340530032907726,0.9587648248938397,22.6675927919484
21.0,129.4536984637113,0.026287762808151763,0.9592473119598277,23.398701996341245
22.0,129.34788495798998,0.015790083242738406,0.959715900658172,24.13840334668235
23.0,129.24211795724162,0.009409182407432604,0.9601704622149035,24.88642858423539
24.0,129.13780821506495,0.0055641406656977204,0.9606108739259975,25.642519113808795
25.0,129.03570978090318,0.003266756168686289,0.9610370851581698,26.406417841185963
26.0,128.93619170604302,0.0019052961324662434,0.9614489715166156,27.1778976714706
27.0,128.83939486827563,0.0011048977575070147,0.9618467607779122,27.9566671554779
28.0,128.7453360159403,0.0006378669846781459,0.9622304649420795,28.742492634957088
29.0,128.65396708641788,0.00036737136027309496,0.9626000631029443,29.535165021113595
30.0,128.56519509148117,0.00021177695732595663,0.9629558868128981,30.334404345591572
31.0,128.47891527178143,0.00012285302978060208,0.9632979949874428,31.14000323854813
32.0,127.60996776563218,0.622510886336777,0.9635447331183985,31.761810297656222
33.0,127.63188877404531,0.36489195737294006,0.963630739577868,32.52493430982952
34.0,127.62208657931814,0.2019463023863682,0.9637952806502603,33.32454744568583
35.0,126.00026904311288,1.4111654015724655,0.9637643261364566,33.70977271431372
36.0,126.15382596774516,0.782355539583088,0.9638595536024559,34.50790406224545
37.0,126.20346870407884,0.43132809437717495,0.963972734338103,35.31942194189809
38.0,124.46061696813705,1.637107371128493,0.9639393940481609,35.713870529331786
39.0,124.57068191051042,0.9378625112663579,0.9639913928941489,36.52253569289483
40.0,124.61946226490986,0.5194976103312129,0.9640935383800915,37.35316129372467
41.0,122.97287969892177,1.5691086723763277,0.9640733344404238,37.77310208268809
42.0,122.69021929312756,1.1856446953333788,0.9640488991600193,38.5652079321533
43.0,122.72311779147746,0.6738021515720596,0.964144006418926,39.41249600347322
44.0,121.99678703897116,0.9335335583119034,0.9640915795198723,40.184684576703944
45.0,120.58605695862137,1.6581793794605992,0.964069714486403,40.636750013268006
46.0,120.49675625028792,1.0432812404757164,0.9641147608330936,41.487971818884915
47.0,120.26123215249021,0.7731380638390567,0.9641347879699276,42.336971233148304
48.0,118.78238557826538,1.5654225706523257,0.964103533147698,42.765180992357664
49.0,118.04190631297111,1.4744504506732963,0.9640400873366048,43.57983464668597
50.0,117.76208360756948,1.05298207459307,0.9640778573720419,44.44622878565869
51.0,117.14176403432684,1.0569660354327757,0.9640380494304129,45.29027890417352
52.0,115.84844404144009,1.5753561468921267,0.9639990091833579,45.70754846267066
53.0,115.1628475286538,1.4086551612413463,0.9639496326056383,46.55497267461733
54.0,114.67814412391853,1.1516529374182007,0.9639652707376325,47.42856637635847
55.0,113.8890701646022,1.2288200073057156,0.9638972240257657,48.270577524970975
56.0,112.92449678357197,1.4063898388061389,0.9638593217800798,48.68942649715652
57.0,112.2230537901561,1.3051961151547389,0.9638063325568128,49.54724108634598
58.0,111.62043447520747,1.1687831511440883,0.963804022091943,50.42490059189353
59.0,110.85613798939433,1.2102528016079184,0.9637245632604332,51.268950664689186
60.0,110.15614918704422,1.184920255324614,0.9636878896708543,51.684095966336606
61.0,109.50406975208332,1.1326589373298506,0.9636272146447812,52.54519344553893
62.0,108.88927329306557,1.0736517762656936,0.9636118616461582,53.42419436765066
63.0,108.22737245004893,1.074995961686179,0.9635251174517706,54.267306378949634
64.0,107.72774445185946,0.9536171326878251,0.9634904545324415,54.67512237710133
65.0,107.1753472291366,0.92447282180443,0.9634275039046181,55.537689838151955
66.0,106.62333521844825,0.9080609709309827,0.963401581928348,56.41476967837631
67.0,106.09538394408484,0.881517419653481,0.9633040244728491,57.240167902020815
68.0,105.74458361401135,0.7327914066347905,0.963273814235674,57.64811796662761
69.0,105.29667224844545,0.7230219593957249,0.9632201099154972,58.513407927119175
70.0,104.8453228121581,0.7213967067840756,0.9631797693795846,59.38298357320859
71.0,104.51130737359146,0.6339611243533062,0.9631469179993545,59.83984297446344
72.0,104.21569020609381,0.5547189595345615,0.9630517363719396,60.593942630958544
73.0,103.86009138194771,0.5564221458502132,0.9630147835887543,61.460197767888175
74.0,103.53392590257297,0.5369158395076814,0.9629371648829332,62.30142596802011
75.0,103.33887936096934,0.4271615217079876,0.9629100841206972,62.657598658544615
76.0,103.08110458168227,0.41215949866738766,0.9628495828992905,63.505743162395774
77.0,102.82088963651682,0.40711076921942185,0.9627952088107518,64.3539960858892
78.0,102.66145984628257,0.32874240547799316,0.9627720799084241,64.6902183146971
79.0,102.47612259051816,0.30256987197957574,0.9626990874387856,65.5178097822746
80.0,102.28063029654393,0.2965082796233203,0.9626457686908322,66.35551802699057
81.0,102.16006378784542,0.23628412659257675,0.962625473761092,66.66638832112628
82.0,102.01590908557718,0.21853456734573548,0.9625635923412794,67.48916566424508
83.0,101.87628370740902,0.20557116635350176,0.9624894482319217,68.29145424565571
84.0,101.78485622508798,0.16010443852924083,0.9624803521699553,68.5898359500469
85.0,101.66815690765472,0.1526642316886984,0.9624357438790555,69.40860885672943
86.0,101.58234380781788,0.12451693064414197,0.9624281970666084,69.67917872054836
87.0,101.49249244114641,0.1096435060214466,0.9623643800893522,70.46899994301612
88.0,101.4111937683678,0.09404152936174372,0.9623709645027134,70.77514774400083
89.0,101.33738328446925,0.07740527776743275,0.9622980619068033,71.49405393295484
90.0,101.26409858067846,0.06641138024588711,0.96230277654843,71.81760495032115
91.0,101.19697460290152,0.05349431224166224,0.9622394240167416,72.48249308568937
92.0,101.13081095504499,0.043981014710284115,0.9622533041683523,72.6989236477406
93.0,101.06548733021012,0.03597307647797011,0.9621832254421715,73.42879183158546
94.0,101.00270737530698,0.027801687583681796,0.9621837101329076,73.59212468887587
95.0,100.9378491851773,0.022894769240777994,0.9621103710804322,74.29638982151704
96.0,100.87440791798028,0.01713868457329683,0.9621290557881305,74.46316438104786
97.0,100.80980309835117,0.012955170432456989,0.9621337683701144,74.5790592688287
98.0,100.74364571893395,0.009925353590208717,0.9621517746617892,74.72425681616276
99.0,100.67615347953347,0.007369433003891537,0.9620631623399928,75.3488647672602
100.0,100.60708890271891,0.005267073576698384,0.9620738781299025,75.4236718980674
101.0,100.5360494337903,0.0037252259602184186,0.9620779197534582,75.46517014300416
102.0,100.46288717262921,0.0025994755084953014,0.9620793497622929,75.48258232054711
103.0,100.3874669543366,0.0017837296608875603,0.9620783055146659,75.47607209170157
104.0,100.30966257581579,0.0012016435897929173,0.9620733474260843,75.44359570164363
105.0,100.22935233397732,0.0007948986280276292,0.9620613802425714,75.37536413074308
106.0,100.14641472147238,0.0005150576401780112,0.9621535976540739,74.6902489220349
107.0,99.98371390690114,0.06672163581052848,0.9621342825355466,74.52774597615169
108.0,99.81596742691748,0.14404504732166695,0.9621068297541905,74.35166647767798
109.0,99.51141337949943,0.3327944164517535,0.9621849520208178,73.5157289997671
110.0,99.3447954697007,0.41040112593447836,0.9622578107886766,72.6229209021839
111.0,99.04109213310831,0.6213298552197165,0.962309638551916,71.72446385540748
112.0,98.94279067689205,0.6332978513298808,0.9623769869082754,70.67668111639867
113.0,98.78817158468314,0.750268194288187,0.9624359997012966,69.5636794420292
114.0,98.59081346680513,0.9032642105027509,0.9624799932705842,68.41822864849381
115.0,98.52776182562667,0.9560513013785746,0.9626357601569696,66.51821367766907
116.0,98.48454936303057,1.0534519705523733,0.9627837934507395,64.53478925435593
117.0,98.44634808099319,1.1930764942140535,0.9629228788422589,62.47198118643886
118.0,98.49979871418398,1.2843766665644833,0.9631604840102199,59.66882191452267
119.0,98.65615990875304,1.3241399507172806,0.9632891858152538,57.41796194322325
120.0,98.9207189125404,1.303204057767699,0.9635075559474668,54.45878668433979
121.0,99.26799137455282,1.2362192108842551,0.9637056764142428,51.46694074520576
122.0,99.67105904691887,1.1335054860314635,0.9638772869152903,48.47239751312664
123.0,100.10270296854726,1.0048104584166198,0.9640174647837569,45.500374243176275
124.0,100.53272507970861,0.8640848709186346,0.9641217319548147,42.575150875713845
125.0,100.93018030431261,0.7282090217615647,0.9640699244249453,40.37650810523255
126.0,101.28055669496959,0.6011533916416951,0.9640931353005596,37.5891879612024
127.0,101.57051017726037,0.4908776317230686,0.9639585098775033,35.524347274419924
128.0,101.79646681952694,0.39907329755438775,0.9637833153666852,33.524651322321766
129.0,101.96061002904482,0.3257072297598956,0.9635675367612556,31.5894062854661
130.0,102.06933793953279,0.270720187060661,0.9632041527962812,30.30671575389459
131.0,102.13416263644413,0.23290227152853948,0.9629081951149469,28.514826826565105
132.0,102.16668297846218,0.2044374882784091,0.9624719718322394,27.338955364877233
133.0,102.15601839736564,0.18962962500836592,0.9620971329399146,25.644696402190704
134.0,102.03223382666849,0.3531645253264191,0.9615856230552912,24.554404477396627
135.0,101.98381667938726,0.7956221344701093,0.9610498412972939,23.50805876991867
136.0,102.34652543144159,1.393798209831038,0.9604775421361114,22.493461283685615
137.0,103.18871866334256,2.156127105433538,0.9598630272350451,21.509365783171628
138.0,104.53038966290173,3.07622063898401,0.9592018811569233,20.55593223455592
139.0,106.3469918119737,4.101359211828104,0.9585071902666343,19.640014235472208
140.0,108.58159642623363,5.119852828311218,0.9577969853493125,18.924344380030682
141.0,111.28134664685784,5.910413983567077,0.957039818321554,18.374632123935683
142.0,114.45109334006791,6.359908539321235,0.9561771619975941,17.53238624023367
143.0,117.92367698213988,6.580214612275183,0.9553317535250143,16.761098813271122
144.0,121.65059893475713,6.594570284192873,0.9544955801335968,16.394739822976025
145.0,125.63745049113157,6.394728146915743,0.9534076761514184,15.630947931349443
146.0,129.69604885252105,6.1583871961461805,0.9525716328330285,15.317163634859867
147.0,133.85630457867427,5.845087257979437,0.9513443952170737,14.608739760985664
148.0,137.94214428418053,5.622248507026174,0.9504666800858871,14.323458174800617
149.0,141.49361560113644,5.969342078446427,0.9490539327170937,13.665439767637643
150.0,143.79244678700712,7.603030692202816,0.9481237002975091,13.407490394861785
151.0,144.74990619224266,10.294863481743782,0.9466787773971571,12.865585545068173
152.0,143.90489620228817,13.932080933334856,0.9453160355863541,12.546338649384703
153.0,141.65538794176098,17.77685051871154,0.9442451505782804,12.31618619088915
154.0,137.87362126752578,21.935474527021675,0.942417594812139,11.798752268034669
155.0,133.49748841843487,25.600552807322842,0.9409487875674445,11.548942650294455
156.0,128.80125495712812,28.72633560147156,0.9397919994579254,11.35293311541025
157.0,123.17219317157797,32.048352900829556,0.9378546424328603,10.995225976355162
158.0,117.23178913805833,35.041467233458626,0.9358148005875296,10.657701504986527
159.0,111.44183150498512,37.391620586729346,0.9344634914352198,10.483532642592209
160.0,105.37074699762395,39.63317215162599,0.9329824175523527,10.307617931200424
161.0,98.49833938387394,42.32472820794824,0.9306699964283038,9.99784080207221
162.0,91.96876982224538,44.37082143190123,0.9282491944125417,9.702054487544833
163.0,87.55838876059273,44.20187451949562,0.9265165782655069,9.542484526198187
164.0,84.1533017186107,43.09820042637659,0.9250265816947442,9.403756342264273
165.0,81.39731175291621,41.49510124078288,0.9229668103772256,9.2350909788539
166.0,78.39075066629857,40.31965575013637,0.9201475480947512,8.95298447100282
167.0,76.39577873926844,38.32411249764235,0.9173537278018565,8.720222806819063
168.0,75.06376554470654,35.931970011676434,0.9152223923662384,8.579254169981446
169.0,73.97613350849474,33.5832958303869,0.9135054307397622,8.462861699902378
170.0,73.12674208449445,31.300076012400073,0.9115569657040077,8.34164681751657
171.0,72.48787896831165,29.128329294526203,0.9088734002442729,8.182970358174837
172.0,71.84960464741435,27.288151539966265,0.9055479198830958,7.947609902195953
173.0,71.49517863510586,25.500359018566094,0.9022750328610561,7.751970024367132
174.0,71.39401262015411,23.814505145381062,0.8996039955215697,7.624816844817195
175.0,71.45902971034488,22.320305222019744,0.8974846797547625,7.524305811503152
176.0,71.6595837497028,21.03567404058204,0.8954919580207701,7.430287096651341
177.0,71.97768152056916,19.951185096423885,0.8931228638125783,7.328803207069748
178.0,72.35020430173826,19.085734682526976,0.8900453959903784,7.201764253258738
179.0,72.5623978400738,18.587222118770747,0.8863118328231513,7.02683251332717
180.0,72.56282677339176,18.41819638968599,0.8823945848304531,6.845140683917811
181.0,72.51613160085527,18.339808738563207,0.8788363644409238,6.7156252734165856
182.0,72.15324685791735,18.543229275008862,0.8758698580955495,6.620277014170143
183.0,71.3474702709954,19.07585991598084,0.8733920631158879,6.5407427282582535
184.0,70.1034588977823,19.872031861509488,0.8711093415430763,6.467193859541323
185.0,68.48465623369542,20.83409631199848,0.8686627348591743,6.393236507547475
186.0,66.59030603609568,21.85641982575752,0.8657470401489059,6.31264214229525
187.0,64.51470033443113,22.862235558822558,0.862202428479395,6.217241159386579
188.0,62.300471143743536,23.842216183084627,0.8580716445192306,6.097821206444781
189.0,59.99215336583204,24.792247029869372,0.8536040879497007,5.960224391590506
190.0,57.84701925324108,25.501632562072412,0.8491465741405338,5.837787169592432
191.0,55.900313207777835,25.981223501607932,0.8449773683069494,5.744263851820675
192.0,54.085240584298404,26.334563561925123,0.8412165281835969,5.6716156390959185
193.0,52.378683140102716,26.612273316286167,0.8378452383024526,5.611596332633454
194.0,50.77540114964317,26.838738784912135,0.8347706505810443,5.558967100255241
195.0,49.27654362301755,27.024545497505617,0.8318611246378957,5.510573166283833
196.0,47.870183628577955,27.186668490193536,0.8289507076153805,5.464718952649913
197.0,46.53886891488911,27.342238295981797,0.8258679217818241,5.4205657138290135
198.0,45.266707567321596,27.503219463040743,0.8224908481698834,5.377488151638874
199.0,44.04174516254321,27.675648770461084,0.8187654482795191,5.334842287236417
200.0,42.851021445819555,27.865927960913783,0.8146876750083824,5.292100713765788
201.0,41.68180292790422,28.08049859167679,0.8102834816810146,5.249047898519256
202.0,40.523113770201995,28.3248770795374,0.8055969106290479,5.205923275544752
203.0,39.36794176769958,28.601581430955225,0.8006807191274555,5.163483337340572
204.0,38.21488777327081,28.908628074110258,0.7955860291313658,5.1229949466875935
205.0,37.066524555690236,29.241011104183926,0.790356844139336,5.085987731878199
206.0,35.92755561316446,29.592526754684293,0.7850257173879626,5.053892877527105
207.0,34.80312957464461,29.95712977935037,0.7796144206474568,5.02770602124069
208.0,33.69807231952334,30.329621508722962,0.7741369189836874,5.007863859920828
209.0,32.616458719215174,30.7057332049808,0.7686021086997809,4.994372916009016
210.0,31.56159855312649,31.082259086117933,0.7630170655426093,4.986970787405217
211.0,30.53606261822906,31.45661420593695,0.7573887373073799,4.98528054584565
212.0,29.54181482549633,31.826851743599704,0.7517255566039043,4.988866843442043
213.0,28.58024996647154,32.191420509591694,0.7460368645213165,4.997279245136328
214.0,27.652362916424874,32.54911525972337,0.7403330736757933,5.010021348671765
215.0,26.75873016533075,32.8987438707957,0.734623855846097,5.026546270618469
216.0,25.899767685721585,33.23930339110176,0.728918333787083,5.04621652528597
217.0,25.075757415175033,33.56982531751775,0.7232241082477227,5.068301688344748
218.0,24.286990778879794,33.88925881768283,0.7175472492095956,5.092022641255925
219.0,23.53384634808076,34.19655237359924,0.7118917156656113,5.116615750728166
220.0,22.81681283964602,34.49046461596101,0.7062600373368897,5.1414036756634305
221.0,22.136873261945837,34.769552849733635,0.700655053903796,5.165826186836989
222.0,21.495316717958207,35.0320739734688,0.6950798474785871,5.189484499870048
223.0,20.893865018665593,35.27600435995991,0.6895388910176201,5.212123436093916
224.0,20.334381904588263,35.499305201779734,0.6840379153778468,5.2336215253371465
225.0,19.818157186189,35.70053203672304,0.6785834283318617,5.253972502944162
226.0,19.345348046323423,35.879359572484965,0.673180718095753,5.2732683046347635
227.0,18.914638296982343,36.03679881311437,0.6678319919990784,5.291697760039358
228.0,18.52372957780007,36.174734932265935,0.6625310273154899,5.30955428521137
229.0,18.1699173189445,36.29525827142672,0.6572585253348073,5.327269756344688
230.0,17.8508607507217,36.3999372670631,0.6519713310820905,5.345467183861691
231.0,17.565469814144066,36.48895688706391,0.6465852023356053,5.365086180978737
232.0,17.31453463918706,36.56054540173128,0.6409371678856096,5.3876257670206
233.0,17.101103694418814,36.610572589420094,0.6347178376496152,5.415570751466896
234.0,16.929367814160774,36.63375695924444,0.6274260537429251,5.452512314241068
235.0,16.79661957536988,36.63171291325547,0.618847200159028,5.499693385747588
236.0,16.680747238557405,36.62551359841039,0.6103350376582127,5.547755285071244
237.0,16.559120740879482,36.636827728647155,0.6034144583532242,5.58592549025523
238.0,16.429410940090396,36.66708295233793,0.598002558155723,5.614149978945449
239.0,16.2970487321762,36.70997231170001,0.5936048973660852,5.6357211834091245
240.0,16.16648030805182,36.760232428000016,0.5899048157577682,5.652974914791005
241.0,16.040219851976005,36.814550824072576,0.586733420170246,5.667237689179231
242.0,15.91964649691835,36.87085445490578,0.5839964245372686,5.679270280252343
243.0,15.805301886141619,36.92792210146473,0.5816419738811176,5.68949101990977
244.0,15.697407912232928,36.98493937591423,0.5796379751967597,5.698147164940767
245.0,15.595883967394142,37.041417825360625,0.5779644417476332,5.705381861548799
246.0,15.500499883378158,37.09707367825806,0.5766090822177545,5.7112716582413485
247.0,15.410975012151226,37.151743511135145,0.5755631668694305,5.715862858842088
248.0,15.326872387332159,37.20541873671966,0.5748214496863189,5.719174060807555
