Time,J,A,S,tau
0.0,100.0,100.0,0.7369108864276758,37.03703703703704
1.0,99.82659365847995,36.78872673672373,0.7356486401039062,38.03449581752593
2.0,99.65556204291364,13.533681423067721,0.7344028616995572,39.03214429911592
3.0,99.48677887203623,4.978730823963689,0.7331727613669016,40.02992865738534
4.0,99.32012499193452,1.8315769628929595,0.7319575384503443,41.02783720761204
5.0,99.1554847848092,0.6738167010730045,0.7307564136547499,42.02585892094237
6.0,98.99274552004702,0.24790456552880025,0.7295686827971366,43.02397394461831
7.0,98.83179737792672,0.091221047013713,0.7283936057176924,44.02217160340055
8.0,98.67253449013388,0.03357999506093785,0.7272304269263116,45.020448365411895
9.0,98.51484393041895,0.012374438287452277,0.726078379473026,46.018794054721695
10.0,98.3586361355247,0.0045727613966167445,0.7249368948989166,47.01719412210362
11.0,98.20380177389966,0.001701975259005875,0.7238051523255566,48.01565135784343
12.0,98.05025408197046,0.0006452597477984336,0.7226825761954073,49.014155629898156
13.0,97.89788991048493,0.00025598287461949687,0.7215684487117422,50.01270025319189
14.0,97.74661747917892,0.00011229444830891823,0.7204621199941804,51.01128109933274
15.0,97.5963442173085,5.9018162209101365e-05,0.7193629402647678,52.00989303171007
16.0,97.44698202937884,3.905792987165818e-05,0.7182702875907027,53.00853172168906
17.0,97.29844034830853,3.140240214085133e-05,0.7171835184162034,54.00719336932079
18.0,97.15063153041973,2.8322231256609447e-05,0.7161020107362449,55.00587414501171
19.0,97.00346702655288,2.6968669233386305e-05,0.7150251332859973,56.004570617967865
20.0,96.85686219686662,2.629203426763799e-05,0.7139522826758049,57.003279487208715
21.0,96.71073285847977,2.5904005487689528e-05,0.7128828578013209,58.00199760658921
22.0,96.56499502893276,2.566040730410889e-05,0.711816258363579,59.0007219179466
23.0,96.41956636336296,2.5506914749297478e-05,0.710751895439553,59.9994494558892
24.0,96.27436550477633,2.542387771260662e-05,0.7096891874907724,60.99817721571627
25.0,96.12931340430357,2.5401467254755707e-05,0.7086275687694091,61.99690237470785
26.0,95.9843213565189,2.5438647568909553e-05,0.7075664033605941,62.99562191878893
27.0,95.83931643472195,2.553441333034394e-05,0.7065051715601905,63.99433282890627
28.0,95.69420901143431,2.5688970239887397e-05,0.7054432306067734,64.99303205409846
29.0,95.548923563916,2.5906147339909352e-05,0.7043800435028844,65.9917162203703
30.0,95.40337529560404,2.618724475043873e-05,0.7033150049055821,66.99038192543799
31.0,95.25748927678868,2.653539649389359e-05,0.7022475833327056,67.98902555247253
32.0,95.11118257079468,2.6955631879167898e-05,0.7011771900825924,68.98764315272128
33.0,94.96437467062664,2.7452904124953423e-05,0.7001032558227811,69.98623050167907
34.0,94.81697409558805,2.8032923874669224e-05,0.6990251322481711,70.98478301671389
35.0,94.66890883731588,2.87025868994314e-05,0.6979423168218302,71.98329570566783
36.0,94.52009665217427,2.9472263084605887e-05,0.6968542351427198,72.98176292890342
37.0,94.37044414682451,3.0349781767784585e-05,0.6957602326678521,73.98017865381367
38.0,94.21987189961224,3.134718040510522e-05,0.6946597621053189,74.9785360787612
39.0,94.06830158606768,3.247843535581395e-05,0.6935522887886135,75.97682757661494
40.0,93.9156350987577,3.3756435573127297e-05,0.6924371359144682,76.9750448259947
41.0,93.76179357649076,3.520027070734916e-05,0.6913137752858375,77.97317829281664
42.0,93.60668390329188,3.6830550504418985e-05,0.6901815801638775,78.97121724424713
43.0,93.4502136304315,3.866919510584927e-05,0.6890399354461585,79.96914970896886
44.0,93.29229533257245,4.074291468071091e-05,0.6878882720019415,80.96696208354575
45.0,93.13283400728645,4.3082611355119664e-05,0.6867259748077065,81.96463893611245
46.0,92.97173457035332,4.572426630274078e-05,0.6855524399376222,82.96216268937998
47.0,92.80889941499497,4.87065000553593e-05,0.6843670570142141,83.95951352056214
48.0,92.64423264103105,5.207801294223892e-05,0.683169244440926,84.95666863605116
49.0,92.47763209366829,5.589087026057828e-05,0.6819583909595505,85.95360219378404
50.0,92.30899650690608,6.020874814819074e-05,0.6807339127497458,86.9502845001307
51.0,92.13822054227137,6.510384655816735e-05,0.6794952194724033,87.94668150926087
52.0,91.96519868216193,7.065815098660053e-05,0.67824174563539,88.94275431040172
53.0,91.78982195710095,7.696912658025901e-05,0.6769729321498464,89.93845807658676
54.0,91.61197753547023,8.41478113295453e-05,0.6756882273118279,90.93374129336406
55.0,91.43155336506747,9.354110830971581e-05,0.6743871221574048,91.92854486495388
56.0,91.24843384131827,0.00010687704968371874,0.6730691281091554,92.92280033796877
57.0,91.06249848394476,0.00012182843775556595,0.6717337842505673,93.9164289544797
58.0,90.87362549871521,0.00013858859894850097,0.670380680835058,94.90933997882729
59.0,90.68168896667696,0.00015758777347047776,0.66900945100278,95.90142869797846
60.0,90.48656056904463,0.0001793128948861629,0.6676197963087938,96.89257399304654
61.0,90.28810956828954,0.00020426620652040886,0.666211494917063,97.88263664846495
62.0,90.08620094169791,0.0002330592403668137,0.6647844062238677,98.87145578942652
63.0,89.88069605254363,0.00026635306608841826,0.6633384879435915,99.85884642034038
64.0,89.67145340389882,0.0003049015922261841,0.6618738235243681,100.84459515293146
65.0,89.45832719913837,0.00034962450802743667,0.6603906245060408,101.82845741018515
66.0,89.24116873518594,0.0004014867861982266,0.6588892653529116,102.81015257904758
67.0,89.01982444679544,0.00046164548754021637,0.6573702878407893,103.78935999623671
68.0,88.79413792337544,0.0005314241951495732,0.6558344335370366,104.76571512710974
69.0,88.56394814033527,0.0006122750432014218,0.654282662004985,105.73880318865012
70.0,88.32909023980064,0.0007059126036694414,0.6527161669317112,106.70815637382216
71.0,88.08939583402298,0.0008142226024596785,0.6511363906809287,107.67325068927272
72.0,87.84469182159157,0.0009391932426412212,0.6495450459479885,108.63349947547692
73.0,87.59480142210754,0.0010830567594687771,0.6479441053579469,109.5882554917467
74.0,87.33954441055329,0.001248317962685425,0.6463358193431072,110.53680680050516
75.0,87.07873645493453,0.001437522007530441,0.644722690960383,111.4783793212423
76.0,86.81219064596215,0.0016533464440525118,0.6431074640333115,112.41213981476177
77.0,86.539716055438,0.0018984746269710944,0.6414930699481328,113.33720259069213
78.0,86.26112014997709,0.002175815819143758,0.6398826081073525,114.25263514673298
79.0,85.9762074499775,0.002488051628878688,0.6382792523402305,115.15747273146691
80.0,85.68477970400745,0.0028380437769394778,0.636686210947503,116.05072501605743
81.0,85.38664170077251,0.0032281733088315515,0.6351066684028823,116.93139429975172
82.0,85.08159278419701,0.003661153163045874,0.6335436281749622,117.79849232599122
83.0,84.76943560981056,0.004138917263129114,0.6319999418209583,118.6510469966995
84.0,84.44997063124079,0.004663739063122221,0.6304781658749549,119.48812087561446
85.0,84.12300172738142,0.005237651686336528,0.6289805599486037,120.30881947556875
86.0,83.78833370282253,0.0058622357147628985,0.6275089959513764,121.11230499990864
87.0,83.44577390187531,0.006539587687976099,0.6260649715780247,121.8977958067816
88.0,83.0951321711188,0.007272170976843678,0.6246496130400664,122.664565379514
89.0,82.73622207654175,0.00806176338939187,0.6232636227473999,123.41195437680821
90.0,82.36886097675239,0.008910652941020322,0.6219073560887516,124.13935594060985
91.0,81.9928724499775,0.00982240677700662,0.6205808484464239,124.8462123186832
92.0,81.60808356645784,0.010801384755059767,0.6192838220008189,125.53200897730878
93.0,81.21433106027514,0.011851530330615033,0.6180157857302354,126.19626419596014
94.0,80.81145696600521,0.01297886135285654,0.6167760020971172,126.83852539250304
95.0,80.39931310340279,0.014190942334015284,0.6155635516100715,127.45836222089265
96.0,79.97776455117699,0.015494881578271181,0.6143773818315544,128.05536053671705
97.0,79.54669080801489,0.01690271349183734,0.6132163234577743,128.62911465195552
98.0,79.10598371272452,0.018424966134293695,0.6120791540815695,129.1792120153821
99.0,78.65555734211311,0.020079494482517182,0.6109646269307347,129.70523323316561
100.0,78.19534625488821,0.021883484836944914,0.6098714661494472,130.20674667265973
101.0,77.72531465708155,0.02386419655490049,0.6087983985318927,130.68330491175027
102.0,77.24546666752293,0.02605080576812569,0.607744186731276,131.13444594074326
103.0,76.75584609535645,0.028480699540499584,0.6067076567571695,131.55967503998235
104.0,76.2565570356721,0.031210830288616886,0.6056876385034037,131.95848318591356
105.0,75.74777711296595,0.03431130107755023,0.6046830818029992,132.33031989405322
106.0,75.22978696778556,0.03788523242350043,0.6036929903878783,132.67460919273464
107.0,74.70301392193318,0.04208181194675735,0.6027164365779254,132.9907473889987
108.0,74.16810811819501,0.047167707393533154,0.6017525902961872,133.2780939479248
109.0,73.62612106446197,0.05364703156888812,0.6008007286381973,133.5359731073886
110.0,73.07915745043792,0.06357493860886634,0.5998602254961062,133.7636700592509
111.0,72.53159904594108,0.07598936770185787,0.5989304684557873,133.9604563826555
112.0,71.98369594210365,0.08865697918526204,0.5980110587172732,134.12554227077504
113.0,71.43623048509917,0.10157717931894011,0.5971015707338112,134.25812998336673
114.0,70.89001240331945,0.11474987844530649,0.5962017536105749,134.35736765966138
115.0,70.34588058767675,0.12817437574824056,0.5953112487739232,134.42241456037837
116.0,69.80469629374501,0.14185022614796342,0.5944298119460564,134.4523901744236
117.0,69.26733810275736,0.15577633812733802,0.5935570424300428,134.44642698657972
118.0,68.73470954990728,0.16995121661794343,0.5926925396734323,134.4036570372263
119.0,68.20771985849353,0.18437258214745234,0.5918357001052549,134.32323498303705
120.0,67.68728787545628,0.19903712460338976,0.5909856813347375,134.20435253429912
121.0,67.17433557863085,0.2139401751036147,0.5901413268328964,134.04626072820025
122.0,66.66977973897613,0.22907544374165845,0.5893010527852502,133.8482853658579
123.0,66.17451123205652,0.24443445641676223,0.5884625875128718,133.60986282915363
124.0,65.68942958250126,0.2600067287951618,0.5876233830983045,133.33053619229025
125.0,65.21537485738652,0.2757793462842029,0.5867799780666515,133.00997741665952
126.0,64.75316578369672,0.29173600845119585,0.585928053550213,132.64804787229923
127.0,64.3035926662058,0.30786009162317846,0.5850634189926142,132.24462404110034
128.0,63.86734903199751,0.32413079193671224,0.584180129605379,131.79981271958303
129.0,63.4451056274977,0.34052522700886595,0.5832724882869849,131.3138684581565
130.0,63.03740233813025,0.3570190093470335,0.582333666672978,130.78711874545664
131.0,62.65221830335837,0.3619687966660217,0.6687985200408555,53.3351419473953
132.0,62.26322245322938,0.3600885008897224,0.6850327387627732,43.65371634584614
133.0,61.86192733689454,0.3633223935903242,0.6911466696616287,39.484294842554775
134.0,61.455570665186485,0.3726309967596008,0.6951250097171464,36.42652730325619
135.0,61.05222134093741,0.38967382945461454,0.6987243210272287,33.643477451866225
136.0,60.66344576738364,0.414853461602765,0.7007270716961964,31.63392929926998
137.0,60.302326376322256,0.45033379026097836,0.7013398544178546,30.265620532653887
138.0,59.981813289724315,0.5044214394824442,0.7029293497583455,28.529200391518483
139.0,59.724862522796734,0.5895494231212152,0.703265250817157,27.36733561823446
140.0,59.57799021918358,0.7129105995969384,0.7033941865426632,26.237980221320488
141.0,59.58915536750852,0.8748381883576614,0.7034166961086157,25.16818817089323
142.0,59.7971668660706,1.0733694867597536,0.7031697518739408,24.2416095486981
143.0,60.226399922085186,1.3073963423887995,0.7027971697222395,23.358751314700957
144.0,60.891583991491075,1.5715820745822697,0.7020264745469871,22.50295030459467
145.0,61.78920712937353,1.865540810998139,0.7009797479459944,21.71248466756365
146.0,62.904068771533005,2.1874933395236136,0.69960472266903,21.297344691172977
147.0,64.21022525045788,2.5351928749600066,0.6979948654195348,20.58184108033987
148.0,65.67023665876823,2.9094798392836267,0.696337459868911,20.20154619291566
149.0,67.24438101252196,3.3055360826186004,0.694332283326243,19.58619361529996
150.0,68.88245275879576,3.726140493650783,0.6925808347186226,19.274922960175612
151.0,70.57115297052748,4.131360609725432,0.6900265443168374,18.703465448541166
152.0,72.24677914066366,4.534558034663459,0.6881195120433289,18.43353135071362
153.0,73.86017913628855,4.9444315107720636,0.6856413445227377,18.08378306337392
154.0,75.35795062992572,5.377560091949273,0.6828355000925875,17.649778257728403
155.0,76.68047464617948,5.858563487808439,0.6808081948269177,17.429746545705864
156.0,77.74311579108507,6.43137955010515,0.67823703574417,17.161668895947788
157.0,78.43610291082075,7.150089323147713,0.675019289023219,16.754205045220857
158.0,78.61711232364249,8.078662428795145,0.6725503143789245,16.541835638455574
159.0,78.18960312873755,9.222041130522843,0.6703611986884093,16.36365904548573
160.0,77.00043060256799,10.648058697301254,0.6674190915312145,16.11904939441931
161.0,75.01454296961539,12.335680928629438,0.6640081493466317,15.788796697905754
162.0,72.32373236827642,14.191332388813041,0.6612211659471604,15.600457077924451
163.0,69.07285036982881,16.126700347587654,0.6589467157848549,15.456451310883962
164.0,65.31870514553177,18.169646820950934,0.6564349510368331,15.3080314811095
165.0,61.09843980733892,20.372168997273885,0.6532529262981216,15.104118375837583
166.0,56.560156954767294,22.669736132987637,0.6497318178216822,14.846731371883521
167.0,52.047609394285416,24.797021087783012,0.6465959151267219,14.678331267754649
168.0,47.66997016190601,26.709154579370512,0.6439841827749136,14.558410759687051
169.0,43.409294902427916,28.467943178339986,0.6416343394155027,14.451837913910653
170.0,39.28759730061837,30.081121241813797,0.6390912291364583,14.345152406376332
171.0,35.31947042892177,31.55491478880424,0.6361202326790106,14.223265428083367
172.0,31.49197387513194,32.91686687494422,0.6327658263098401,14.065083574385804
173.0,27.94207335684845,34.04110770243362,0.6292841636560662,13.891460995844755
174.0,24.9749423075168,34.63268228259197,0.6259903841875041,13.760898446689772
175.0,22.584192677565397,34.706854969517806,0.6230007588255145,13.666200934013911
176.0,20.649779203252308,34.3900664922724,0.620322403322533,13.588333168185903
177.0,19.08816874744034,33.77035141012194,0.6178896162516624,13.517836308199481
178.0,17.824759441356786,32.92578739810225,0.6155394239226402,13.451189111337625
179.0,16.79057144140082,31.92818020759068,0.6130937005068672,13.38699020948521
180.0,15.929056837736415,30.836619461700074,0.6104682067857127,13.323443041309021
181.0,15.195649342748036,29.698196822020893,0.6076707157240833,13.25780669561014
182.0,14.558963802543445,28.546943740759467,0.6047468072818099,13.187072087207754
183.0,14.000066586861141,27.404629869621893,0.6017485316222967,13.109587801944434
184.0,13.50955650078245,26.28382207337761,0.598732270348124,13.027859529942967
185.0,13.087502806326325,25.187975272225266,0.5957564405931989,12.949295898864916
186.0,12.735159167123168,24.11967273643927,0.5928674103520016,12.880724126908943
187.0,12.450063534598547,23.08564471892865,0.5900899792916687,12.823842522250393
188.0,12.232324957794193,22.09006702156223,0.5874346038461088,12.776873423421282
189.0,12.08465392097687,21.13457088306809,0.584906647683098,12.737357570544644
190.0,12.010629529990892,20.219835194732724,0.5825082579375745,12.703310145139895
191.0,12.01378520691227,19.346300982767406,0.5802406823405837,12.673274524907079
192.0,12.097134227900257,18.514436546571066,0.5781045592098066,12.646255944258627
193.0,12.26279933053085,17.724863090023447,0.5760981469081693,12.621603957739092
194.0,12.51167737072305,16.978433845628356,0.5742177909544347,12.598896036575882
195.0,12.84317603407819,16.276196878067733,0.5724586563416445,12.577863176788794
196.0,13.25493392212793,15.619453544019565,0.5708146640523306,12.558343382467081
197.0,13.742652247049282,15.009721918049339,0.5692792371986632,12.540261126760964
198.0,14.299805591803654,14.448767806311595,0.567846375987738,12.523565804526106
199.0,14.917574230475266,13.938549638122934,0.5665115051619747,12.508227847814306
200.0,15.584931523864467,13.481133139971707,0.5652710936813601,12.494220562219336
201.0,16.288615141657623,13.078683204036441,0.5641239449651325,12.481517287663626
202.0,17.01349067316786,12.733305786880805,0.5630701127468407,12.470087409157951
203.0,17.742757123932925,12.447048900953357,0.5621101236790318,12.459894324586722
204.0,18.458414564932667,12.221744374631541,0.5612463437992631,12.450908992855593
205.0,19.141770112573766,12.058903718687223,0.5604808426839352,12.443086442509399
206.0,19.774078563058037,11.959590865897889,0.5598158688461201,12.436393338986463
207.0,20.33716427582283,11.924212465664324,0.5592538385089015,12.430797063356835
208.0,20.81401345119177,11.952502373574875,0.5587967918818207,12.426265868858469
209.0,21.189510702642536,12.04327498014182,0.5584465804572323,12.422776208270664
210.0,21.451054957422855,12.194376824405307,0.558204324328355,12.420309734762936
211.0,21.58914067039177,12.402600505684283,0.5580710881215825,12.41885619268825
212.0,21.597860166668706,12.66360525983402,0.5580468700589678,12.418408946683702
213.0,21.475206439645664,12.97193862938586,0.5581315243543833,12.418969583863298
214.0,21.223300939419605,13.321083641385071,0.5583242057743647,12.420545297079943
215.0,20.848292730058574,13.703556854069056,0.5586235500120681,12.4231500155095
216.0,20.360126589425562,14.111058279927013,0.5590275803042849,12.426805739183214
217.0,19.7720382123699,14.53463579418638,0.5595335997554359,12.431540501301328
218.0,19.099907445540047,14.964985417650192,0.5601386555327943,12.437387258417743
219.0,18.361545553404973,15.392606041427843,0.5608391253352447,12.444387026609432
220.0,17.575862519900536,15.80812986734473,0.5616311743874219,12.452583744491966
221.0,16.762103407142618,16.20259234927283,0.5625108243643642,12.462025443915573
222.0,15.939085198021349,16.56772162618418,0.5634743483843689,12.472760855886152
223.0,15.124555779102035,16.896236670532673,0.5645187886350302,12.48483410637287
224.0,14.334647552709676,17.182083409219835,0.5656419110501977,12.498284795262208
225.0,13.583468622888299,17.420687892013436,0.5668439737449579,12.513138437383526
226.0,12.882826416153591,17.60911439889088,0.5681272440363623,12.529402707198914
227.0,12.24207544984847,17.746106215395425,0.5694969347516926,12.547072804907984
228.0,11.668195759890223,17.832084390326,0.5709610896538618,12.566135826900906
229.0,11.1659377879249,17.86894923828305,0.5725292228996578,12.586585826486395
230.0,10.738066668951168,17.859896001698136,0.57421163114079,12.608443460334271
231.0,10.385768303324486,17.809041825716154,0.5760179632511185,12.631800240972023
232.0,10.108935597988621,17.721174239731376,0.5779554803548024,12.656846318309114
233.0,9.906547763362285,17.60142033310641,0.5800283430328648,12.683931727542802
234.0,9.776941612018188,17.454993492296637,0.5822377600907376,12.713606527021028
235.0,9.718096177256946,17.286921202544516,0.584582469660717,12.746691016066547
236.0,9.728032312314939,17.10169266525689,0.5870586923826205,12.784359055036669
237.0,9.805227718850093,16.902817355296385,0.5896617911105595,12.828151796507688
238.0,9.949229070289569,16.692219661100108,0.5923844073977238,12.879846063980281
239.0,10.160193260179375,16.470639560285925,0.5952145931407733,12.94071224232162
240.0,10.434472276501605,16.241955000690755,0.5981285952371216,13.009903052948195
241.0,10.758890625466156,16.0188981429778,0.6010880432449092,13.083106219689505
242.0,11.118200613307952,15.815817582477122,0.6040397318275277,13.154691471064421
243.0,11.50651495819357,15.637153461333686,0.6069252693020273,13.221593038397609
244.0,11.923791278924842,15.480836798827905,0.6096798953271478,13.284214836665232
245.0,12.369774824589665,15.344444562872905,0.6122253448105041,13.344908768159707
