Time,J,A,S,tau
0.0,100.0,100.0,0.7968432136172162,12.195121951219512
1.0,101.38539046911706,54.780766312659715,0.7981051786832308,13.025676677099836
2.0,102.35168997799136,30.200216289123667,0.7994041291692878,13.851996007002983
3.0,102.933186905078,16.75997135779126,0.8007418984584246,14.673832154044996
4.0,103.23183163521304,9.365425206113112,0.802119938165789,15.490981737726457
5.0,103.34249295167673,5.27114134274019,0.8035399472450125,16.30321857572487
6.0,103.33369272958805,2.9893124488209137,0.8050035524003155,17.11031621032858
7.0,103.24997926539528,1.70896334067443,0.8065123968133127,17.91204086212439
8.0,103.11889917025434,0.9857367745399949,0.8080681147033372,18.708153461255606
9.0,102.95704986843084,0.5743496234528773,0.8096720487627695,19.49842587276048
10.0,102.77429715862046,0.3386952179340721,0.8113259964171506,20.282608672034243
11.0,102.57643021073802,0.20277936106776812,0.8130310698758648,21.06047368362053
12.0,102.3668015514099,0.12385512735622832,0.8147889725724433,21.831752429839515
13.0,102.14729736430951,0.07775536915185106,0.8166011555656443,22.596180984653525
14.0,101.91892822739572,0.05068479764690608,0.8184689446374346,23.353498582253785
15.0,101.68217283749895,0.03474790721834012,0.8203934643872269,24.103449334643013
16.0,101.43717882928534,0.025373764693036975,0.8223759322707531,24.845761365883064
17.0,101.1838868185649,0.019908111448147525,0.8244173857218273,25.58016391804313
18.0,100.92210256196043,0.016793326713754615,0.8265187566631886,26.306381417519727
19.0,100.65154452297799,0.015111554329662375,0.8286808605309548,27.024134806281687
20.0,100.37186713130905,0.014317437375018865,0.8309043998904487,27.733138819706834
21.0,100.08267985530189,0.014085266907045953,0.8331898921871677,28.43310706026927
22.0,99.78355573619008,0.014223145875354806,0.835537704312534,29.123748051653433
23.0,99.47403684870788,0.014612795789527825,0.8379480375248746,29.804764861053883
24.0,99.15364029176611,0.015184864222155868,0.8404208772716694,30.475858491364395
25.0,98.82185829049557,0.01589959692265276,0.8429559728859967,31.13672675345753
26.0,98.47816113525026,0.016735505837681103,0.8455528425811163,31.787063439922523
27.0,98.121995269672,0.01768231456050581,0.8482106973776437,32.42656018127156
28.0,97.75278872209583,0.01873852984482476,0.8509285012324718,33.05490367581667
29.0,97.36994761839777,0.01990599578189527,0.8537048338080234,33.67178069260586
30.0,96.97285938593681,0.021195538690632516,0.8565379399531897,34.27687421668089
31.0,96.56089278695885,0.022619476444990638,0.8594255915878889,34.869869711779614
32.0,96.13340014577473,0.024195937014543367,0.8623651963745922,35.450447026671455
33.0,95.6897193411851,0.025947820750862036,0.8653536514599713,36.0182872356508
34.0,95.2291751929442,0.02790580977240526,0.8683872474898298,36.573075557645076
35.0,94.75108653491651,0.030114563341068146,0.8714617533481742,37.11449490646763
36.0,94.25477242470258,0.03262125458612811,0.8745722821043759,37.64223359180292
37.0,93.73955607669403,0.035506951854703865,0.8777131835705283,38.155984231755305
38.0,93.2047829339233,0.0388799552241363,0.880878140084143,38.65543986717644
39.0,92.64984365664168,0.04291634823642528,0.8840598796860035,39.140307237352104
40.0,89.88868250194312,2.3913427286895086,0.8840607875357916,37.5962593566282
41.0,88.97092926553238,3.3531938480510775,0.8827047229961273,35.61727794234813
42.0,89.12111831409945,3.4968148190065986,0.8811978448844064,33.77217946592477
43.0,89.53933877280036,3.517285786409145,0.8794219482701336,32.40496537929933
44.0,90.0242022944053,3.4864647751599547,0.8776059076320566,30.60293992894138
45.0,90.52756875577961,3.444529203033157,0.8755665680983549,29.407481500701785
46.0,91.039087818629,3.398234447311226,0.8734377018113895,27.824913241615004
47.0,91.55325636376278,3.350798575722111,0.8710366833602549,26.618020262958765
48.0,92.06664509411283,3.303172617589991,0.8685257386977875,25.549335031421847
49.0,92.57681437095607,3.2555705399123056,0.8658684360519648,24.52218425774518
50.0,93.0811894447573,3.20814341318463,0.863027683253392,23.530976731741305
51.0,93.57708076096468,3.161033038255506,0.8599880515367055,22.57594202355613
52.0,94.06148918803352,3.1145344964172077,0.8567957906075041,21.666218690551062
53.0,94.53087856518444,3.069318161742083,0.8535580880507654,20.973269419885742
54.0,94.98247521936985,3.0253061660081992,0.8502075020630055,20.35470922667846
55.0,95.41427485933534,2.9813963182116443,0.846298453241708,19.529015745810646
56.0,95.82137814812529,2.9397344865623567,0.842365425106617,18.77844844080616
57.0,96.19862917547569,2.9024266116006405,0.8386811618757497,18.370142193563414
58.0,96.21138376160843,3.2477692298701335,0.8338827407335154,17.629252670626663
59.0,95.60011392854351,4.582396152796775,0.8300206592344147,17.27466955077145
60.0,95.53440428910515,5.765194318922192,0.8247646089465287,16.59915490868292
61.0,95.47213384877067,7.244339284998781,0.8206261074650183,16.2759922194017
62.0,95.86683574782214,8.428684395724904,0.814711518404276,15.648654124543684
63.0,96.00234288338096,9.941606580277197,0.8104432442765009,15.364680816731376
64.0,96.42719427196806,11.145092847108987,0.8040799720723878,14.806773195179828
65.0,96.52022325332048,12.567451911104287,0.7987742835215388,14.503298143767582
66.0,96.45492263238897,14.002339799064712,0.7934346777873968,14.220884148050947
67.0,96.4512915237685,15.16023430288949,0.7860420287628477,13.713952631624169
68.0,95.91638241310952,16.605760132823363,0.780686396329206,13.473686130337533
69.0,95.17437216888943,17.995769925108082,0.7746548185531122,13.218543724077243
70.0,94.41182678758597,19.11647383059363,0.7663854637665708,12.769880608345085
71.0,92.9630163311522,20.621807148774653,0.7599339853658079,12.536721543010302
72.0,90.63591308539196,22.661248957249583,0.7541961234553521,12.33752227452927
73.0,87.66565749761345,24.957857902220706,0.7458060450747471,12.019004172233576
74.0,84.03743317040578,27.514752214678865,0.736910331224988,11.69181690000647
75.0,79.97917430825389,30.110800835909394,0.7303457448928801,11.506884008995684
76.0,75.7775102311611,32.496570477768586,0.72386377828521,11.331314419764013
77.0,71.11702041774741,35.02041271667854,0.714713541121502,11.07234728806413
78.0,66.25477720308619,37.45366095567814,0.7045359261641737,10.761859974461993
79.0,61.734622266840454,39.30040787075351,0.6964016549256995,10.580212116070815
80.0,57.52112399916307,40.66039383946578,0.689769149768397,10.433054463947574
81.0,53.349561503086676,41.839587547115244,0.6817265118940593,10.26836409785492
82.0,48.830282551507864,43.24845058146117,0.6710719290922628,10.022614530346319
83.0,44.47707175954652,44.39145898612983,0.6599158587334534,9.768581083792585
84.0,41.01687323283759,44.58952594304251,0.6507509092051847,9.607594290266562
85.0,37.918253923522066,44.41385543202588,0.6434143076197627,9.479623529500115
86.0,35.0557682740952,44.01036288011686,0.6356551737698952,9.350662900169825
87.0,32.36540052791883,43.45535855658522,0.6255738631411775,9.18876848666996
88.0,29.548543755531227,43.053158602973795,0.6134994364370383,8.962838923267581
89.0,27.134182506230605,42.283588821751174,0.6015840015726641,8.762552240845352
90.0,25.101484711167114,41.1885887171865,0.5916329696514054,8.625647158425544
91.0,23.218498097833915,40.012695076075865,0.583586717176285,8.51576216044801
92.0,21.46505464035544,38.78448498542949,0.5758705305515386,8.411368886892541
93.0,19.82393010268514,37.528176050278226,0.5667010152347971,8.296131689761305
94.0,18.27361548716191,36.27148121967929,0.5553168195429716,8.149527115339705
95.0,16.715271828029692,35.11828057443672,0.5425035827598523,7.962454517845471
96.0,15.333850822112701,33.88962313008371,0.5299209673920496,7.794714722747043
97.0,14.117330683667145,32.60735215051021,0.518950502391617,7.672786091701779
98.0,13.002244220199742,31.342531186519757,0.509914360046751,7.576594011606557
99.0,11.987008837031999,30.103181081426946,0.50207993699091,7.49125587141721
100.0,11.073684515360984,28.892948823666615,0.49420213185153067,7.407505986824218
101.0,10.264424267266815,27.714579817938887,0.48514034611670476,7.317353389728908
102.0,9.558677926328697,26.57270485334878,0.4743567543530923,7.211298440515283
103.0,8.93578941183794,25.490866961542164,0.4621335592023509,7.080118809331951
104.0,8.376238018746811,24.489952473233803,0.4493709685578139,6.934275593987122
105.0,7.960248931907015,23.49115329947273,0.4371039308920403,6.807912114486346
106.0,7.67212614573569,22.511558154902424,0.426099356978943,6.709927084861984
107.0,7.483991323796372,21.577786176905526,0.4166244397785158,6.631081512280594
108.0,7.3833316463245415,20.698417843336646,0.40845944225757735,6.56314855086752
109.0,7.35919316494301,19.877943828275793,0.40107667080053877,6.500850511068216
110.0,7.402401865426647,19.11672867855881,0.39381957223302966,6.440746647106053
111.0,7.503876963600894,18.412979668053712,0.3860877752973833,6.380221798414369
112.0,7.6521088451968104,17.765655487466052,0.3775013480865096,6.316713806936666
113.0,7.832589217485525,17.175530365363674,0.3679535374133712,6.2475057061509744
114.0,8.026380044571638,16.647146680127257,0.35758600951705743,6.170174637696863
115.0,8.211390711486168,16.18819630972921,0.3467120387519372,6.084359245639143
116.0,8.37701619443044,15.795596665671939,0.3357057262259143,5.994850940077416
117.0,8.535043522706687,15.445547959021829,0.3249020624549268,5.9108096650734865
118.0,8.691826452833215,15.12182626684722,0.31453976820303503,5.838624342355672
119.0,8.839125118662206,14.824552860672366,0.3047480369042022,5.778928279100201
120.0,8.96913241985799,14.55498355884589,0.2955539700000574,5.7296443510484085
121.0,9.078603806872731,14.31129394656518,0.28690625902814454,5.688480079671376
122.0,9.1683407501286,14.089015161757427,0.2787132843151778,5.6536237046241995
123.0,9.241606046246172,13.88243687384425,0.270874183083231,5.623746379931769
124.0,9.302471812701013,13.685993077751663,0.2632999961052624,5.5978932505099035
125.0,9.354876244983917,13.494959105644904,0.25591779255620045,5.575403542063738
126.0,9.40218128660221,13.305618776616745,0.24866825502671014,5.555864392278194
127.0,9.447069751420045,13.115194594096616,0.241502220713348,5.539058561479975
128.0,9.491511626867666,12.921716606482592,0.23437962712440175,5.524908646771216
129.0,9.536824332865404,12.723898657393985,0.22727194098970022,5.513407907873438
130.0,9.583723173237786,12.521019052618417,0.22016258744135098,5.504578642522804
131.0,9.632440129055057,12.312804491033642,0.21304646580781236,5.498437777700913
132.0,9.68283427089546,12.099318952771949,0.20592632592672822,5.494988789369862
133.0,9.734501654378484,11.880862838160857,0.1988093002136003,5.494225438736051
134.0,9.78687965997271,11.65789540792983,0.1917042927251282,5.496136911419062
135.0,9.839321340706304,11.43097939650989,0.1846209036368194,5.5007131091277195
136.0,9.891138998029852,11.200756831317836,0.17757196706060135,5.507928923905378
137.0,9.941620599145159,10.967943344971756,0.17057785930743363,5.517722727098206
138.0,9.990018558989592,10.733347007870709,0.16367480324852,5.529933192280435
139.0,10.035568407239513,10.497877017892296,0.15692096337617276,5.544245177004056
140.0,10.077494969948855,10.262513494462494,0.15039283729298983,5.5601796298241
141.0,10.115104988895578,10.02823827550538,0.1441726065704825,5.57714431862399
142.0,10.147872982750757,9.795932783317829,0.13832613649414094,5.594576423676873
143.0,10.175517772779964,9.566327388332624,0.1328919795205694,5.612039242136448
144.0,10.197958937463616,9.34000022824395,0.12788072094864464,5.629264063673427
145.0,10.215302715390736,9.117420992783002,0.12328332847313844,5.646124743574502
146.0,10.227755759579507,8.89900041344337,0.11908095768419623,5.662572766264021
147.0,10.235620748088108,8.685130731557948,0.11525161995972408,5.678588515015416
148.0,10.239243967177979,8.47620047089011,0.11177358681182416,5.694144445369857
149.0,10.239016851381344,8.272593295422938,0.10862578772074817,5.709208740217123
150.0,10.235375196043153,8.074698470242142,0.10578939501076318,5.7237176343308604
151.0,10.228795729648374,7.882903621941601,0.10324722725811407,5.73758362777561
152.0,10.219791891155355,7.697591779284082,0.10098392407144682,5.75070304310149
153.0,10.208916618137184,7.519138169910972,0.09898549056552398,5.762961881214952
154.0,10.196750917465259,7.347908199397603,0.09723955343699726,5.774239616798047
155.0,10.183906514476574,7.184255788093467,0.09573512504398507,5.7844207690803096
156.0,10.171011968512284,7.028524690575544,0.09446279220933314,5.793392978122785
157.0,10.158726652624939,6.881046345488481,0.09341465695286005,5.80105473101642
158.0,10.14771984024614,6.7421392641751305,0.0925842794628311,5.807317820033886
159.0,10.1386767556848,6.612110045604896,0.09196658459750912,5.812109560039389
160.0,10.132290753020074,6.491252182496973,0.0915578280820293,5.815376603689359
161.0,10.129260511134891,6.3798496366897455,0.09135556136404446,5.817083932619182
162.0,10.130284155708074,6.278180076569255,0.09135867861885237,5.817212986644139
163.0,10.136051091481459,6.186514744617503,0.09156724068022637,5.815768252767627
164.0,10.147243736801126,6.105124243297822,0.09198263914272214,5.812769873237941
165.0,10.164519711894382,6.034280852881203,0.09260752155892202,5.8082578642619165
166.0,10.188519567509491,5.9742620603307035,0.09344580376696948,5.8022899239164625
167.0,10.219833844113571,5.925353614223872,0.09450279180949149,5.794941498579603
168.0,10.25902515414666,5.887855525794523,0.0957852265179294,5.7863012972305015
169.0,10.30659596035382,5.862083427295624,0.09730127819722303,5.776472085310198
170.0,10.362984222565709,5.848375179590779,0.09906074711187102,5.765563735574912
171.0,10.428536381215388,5.847090760313601,0.10107474751775086,5.753695081565655
172.0,10.50351007541193,5.858619499744781,0.10335630515667225,5.740982115692501
173.0,10.588026199793163,5.8833838041205535,0.10592001659956486,5.727531349282814
174.0,10.682059794704003,5.921839889930249,0.10878236874935528,5.713441025077606
175.0,10.785414475395408,5.974484277987667,0.11196189987926067,5.698785907476088
176.0,10.89766692501617,6.0418551992541785,0.11548006142171745,5.683607195304762
177.0,11.018164171725235,6.124528457131334,0.11936146909873041,5.6679167410296385
178.0,11.1459560744668,6.223117101833286,0.12363432410313357,5.651690095186129
179.0,11.279822329679133,6.338258515630092,0.1283309306640367,5.634883792563711
180.0,11.418193529782025,6.4705906893944425,0.1334844303635123,5.617459783639076
181.0,11.559218564774461,6.620704961121327,0.13912213376638327,5.599454160271455
182.0,11.70079275282142,6.789070543241133,0.14525027732713158,5.581075885041304
183.0,11.840644084824733,6.975946184765458,0.15183526855774365,5.5627944547507795
184.0,11.976419917594125,7.18130545758902,0.1587904131776374,5.545361954658741
185.0,12.105714995457367,7.4048328896958235,0.16598841375117526,5.529665158399021
186.0,12.226014893771591,7.645996719260124,0.17329970696443492,5.516463865991601
187.0,12.33474453066917,7.904117664613812,0.18062677099027932,5.506235907546336
188.0,12.429284380710484,8.178374198191829,0.18791229855963779,5.499182011222422
189.0,12.50717618742746,8.467763498942059,0.1951288701719678,5.495329736933465
190.0,12.566217657276418,8.771055963248466,0.20226447727782443,5.49462262388925
191.0,12.604649742921993,9.08676655871201,0.2093122097422196,5.496988431847529
192.0,12.621252880151415,9.413163697590123,0.21626937568199603,5.50234030364438
193.0,12.615414585689674,9.748307851052468,0.22314043214547927,5.510569025431051
194.0,12.58714400897654,10.090104985195735,0.22994163715017132,5.521530842281314
195.0,12.537119435460903,10.436377543332174,0.23670671930825277,5.535045577892419
196.0,12.46663082862008,10.784913713053188,0.24348503593153267,5.550929905709655
197.0,12.37757606344062,11.133507274762762,0.250335419001828,5.569058632102296
198.0,12.272398096176465,11.479993380955012,0.25731631686995793,5.5894491243119795
199.0,12.153979999483058,11.822302622538569,0.2644800595066617,5.612334137406155
200.0,12.025428368553692,12.158645262291921,0.2718775725436348,5.63819440072927
201.0,11.88976916066536,12.487697369498948,0.27956766411047823,5.667772901232793
202.0,11.749728572829227,12.808754068210593,0.28762727476282146,5.7020692628066785
203.0,11.608017349692494,13.121385179874602,0.2961468907396753,5.74237293013629
204.0,11.468449409044712,13.4242401888698,0.30520931433587073,5.79032591888719
205.0,11.337617303790266,13.713255940746292,0.3148577682576849,5.847836112433443
206.0,11.22520869982819,13.98123935151418,0.3250582516335637,5.916402356471539
207.0,11.137701257558152,14.223934162421964,0.335676872398928,5.995097392957932
208.0,11.067206612189503,14.451394151206795,0.34647259212493364,6.07851585135045
209.0,10.997885059093093,14.68184581471323,0.35711300293812426,6.15910922592567
210.0,10.927377312494519,14.920134178924567,0.3672169914148321,6.232510318471562
211.0,10.865234070603801,15.158850390923785,0.3764406858246147,6.298537412284233
212.0,10.81936080816112,15.391840149194715,0.38457805598209777,6.3590106584894
213.0,10.792894448814634,15.617472123024474,0.39163208069569144,6.416227266519702
214.0,10.785530741002148,15.837494513134343,0.39786928200884214,6.472347329910871
215.0,10.794462872093217,16.056219292979414,0.4038557664429092,6.529153551884867
216.0,10.815449784201421,16.27957844531425,0.41031297661209865,6.588602545242317
217.0,10.845031788327285,16.513058074822805,0.4178604386527171,6.653840744140153
218.0,10.886266911725219,16.756121178047966,0.4269101028962234,6.729738531762627
219.0,10.959317363158435,16.991463821089663,0.4375662087931897,6.823170278018591
220.0,11.110736294788222,17.174619985826137,0.4494834917135113,6.940312097972416
221.0,11.340394474722942,17.305728313941547,0.46187109008799815,7.072333877348345
222.0,11.543176565060886,17.490807886731723,0.4736952964673337,7.193132387786631
223.0,11.70535994026728,17.745713434755274,0.48400750287400185,7.292820321996305
224.0,11.869203828512985,18.028469976383136,0.49236150464253825,7.377385098013889
225.0,12.051451033836402,18.32140046849942,0.499052510286653,7.454286652265361
226.0,12.247787307236981,18.62846856675465,0.50504433422398,7.529554928024368
227.0,12.450526218790436,18.95836529582924,0.5116305971333402,7.608939670671801
228.0,12.660943936781864,19.312587927052398,0.5199289842158938,7.700131813436205
229.0,12.917617173058193,19.657169976336,0.5304074565199037,7.815255683176315
230.0,13.345412232252272,19.869201146329193,0.5425319275554786,7.966937860245469
231.0,13.873477909609072,20.016294415131632,0.5548681321651874,8.132166791903716
232.0,14.258004746258383,20.34427299274246,0.5657315697515521,8.267139824699685
233.0,14.576565624969247,20.7777126621117,0.5741052684938992,8.374094778172468
234.0,14.894111342160244,21.2483952547835,0.580330317996545,8.467878517721424
235.0,15.220966464864826,21.743369625767237,0.5859320889324403,8.560001410422991
236.0,15.556488238922393,22.265014023677534,0.5927941897796468,8.661772485820968
237.0,15.948390456316977,22.77230118573027,0.6021106632406946,8.790243535076483
238.0,16.609749310428594,23.053728794074107,0.6135095501977,8.968392113720668
239.0,17.40320618718574,23.239602664104854,0.6250584965765679,9.16326163700767
240.0,17.919924173612692,23.741833253889403,0.6345222058663867,9.311708849102333
241.0,18.338563729949517,24.38450904490694,0.641074284685564,9.42840175722566
242.0,18.742994033318816,25.07749028079967,0.6460362414433622,9.535704468547697
243.0,19.153016352336238,25.800002291346484,0.6518639735301479,9.65157777710353
244.0,19.6667028116526,26.461426026940675,0.6603361271163711,9.801330793002714
245.0,20.629190613379237,26.712927042683486,0.6709540904938167,10.018172758487193
246.0,21.55010433798121,27.035379834574417,0.6810661286940612,10.22973697404121
247.0,22.075491170863316,27.791103721022186,0.688247201839135,10.379718495441987
248.0,22.534762940352408,28.65124915970467,0.6928049418688855,10.504649538793938
249.0,22.98341651879865,29.554790329259156,0.6974989743510437,10.633595884930363
