Time,J,A,S,tau
0.0,100.0,100.0,0.7123692841050466,30.3030303030303
1.0,98.02731367798143,96.17466283572061,0.7067318094062857,30.230862203348565
2.0,96.07785326163761,92.48467533077952,0.7010432953017668,30.157206917137703
3.0,94.15198041230063,88.92844095406639,0.6952980247170673,30.0817057903894
4.0,92.25023099361162,85.50150687657151,0.6894982899939514,30.0043855807348
5.0,90.37321431532736,82.19954471966197,0.6836461503582455,29.925271036991624
6.0,88.52176880015905,79.01834099032445,0.6777442100311927,29.84438679622145
7.0,86.69688353630278,75.95381340234736,0.671794738654522,29.76175580641452
8.0,84.89980397948214,73.00200538245981,0.6657999546252985,29.67740387177625
9.0,83.1321321632995,70.15908145340127,0.6597622992734764,29.591357410224216
10.0,81.39585264133892,67.4213120039912,0.6536840864412607,29.50363911096012
11.0,79.69343211889218,64.78510750859131,0.6475675992297084,29.414282036041442
12.0,78.02806468880564,62.24700009650296,0.6414160305376643,29.323325224797003
13.0,76.40336379476472,59.80354088796133,0.6352314495421301,29.230770997678796
14.0,74.8239391434271,57.45151254440537,0.6290170834649135,29.1366776703237
15.0,73.29510482004113,55.18769975409964,0.6227751246374739,29.041062331292384
16.0,71.82300216289087,53.00903904477663,0.6165075230635334,28.9439544647981
17.0,70.4149940203186,50.91254543029966,0.6102178746842043,28.84538488424447
18.0,69.07955986503552,48.895349722412725,0.6039090045095048,28.74540237370984
19.0,67.82601082498256,46.954641959541995,0.5975834673575237,28.64402633140585
20.0,66.66502890897317,45.08771978268745,0.5912440746648173,28.54129201770913
21.0,65.6083273432724,43.29195726620438,0.5848924232190393,28.437230230645675
22.0,64.66876038933313,41.56484415538713,0.5785329963540838,28.331889508090974
23.0,63.86033948848263,39.90391013420278,0.5721674522909909,28.225295735538836
24.0,63.1979953048527,38.30678241566559,0.565798385698771,28.117486347572893
25.0,62.69778322700158,36.77116954913683,0.5594287586514295,28.008497385432495
26.0,62.376492716163945,35.29484162328426,0.5530607700629736,27.898363642912493
27.0,62.2515455447223,33.87565907420698,0.5466974354283706,27.787126103514595
28.0,62.34086301287865,32.51153364283358,0.5403243296614146,27.66110165120871
29.0,62.66219105410999,31.200815439791494,0.538534634336615,27.627947320445426
30.0,63.23384887139887,29.9414355069431,0.536842895599798,27.59672215120757
31.0,64.07363290320028,28.73168785044811,0.5352363671531427,27.567029727593386
32.0,65.19875496868856,27.570053614251922,0.5336987789466447,27.538539898892278
33.0,66.62541530326834,26.455193791023042,0.5322119384056071,27.510993880703595
34.0,68.36866068760723,25.38590650649628,0.5307560882569741,27.48422497022323
35.0,70.44200585056636,24.36109956341277,0.5293126057121503,27.45811526324439
36.0,72.85675069147796,23.379836662844923,0.5278668374840436,27.432566810106724
37.0,75.62203522368857,22.441403922729624,0.5264087381301572,27.40745511257333
38.0,78.74376746643895,21.545394645698085,0.5249332071047788,27.38265846059197
39.0,82.22416669029263,20.691764437294147,0.5234393853145807,27.3580682917858
40.0,86.06183436086239,19.880841247372103,0.5219281579697211,27.33358388862248
41.0,90.24996223535446,19.11338080156413,0.5204041639587172,27.309149420371895
42.0,94.77734607475763,18.39053346122897,0.518871426802834,27.284724163298538
43.0,99.62646084625763,17.713958222700114,0.517337139110197,27.260283976281176
44.0,104.77392826811555,17.0857894682327,0.515808351842502,27.23582555577789
45.0,110.19001123166453,16.508669066056058,0.514290943707929,27.21137411240872
46.0,115.83794047459581,15.985774600664058,0.512790947020101,27.18698849423262
47.0,121.67402605479596,15.520897093107378,0.5113147919539002,27.162724133990125
48.0,127.64816990545796,15.118366653016173,0.5098670663945657,27.138693527106568
49.0,133.70346061057745,14.783107040498624,0.50845248350401,27.115004421099552
50.0,139.7768368159838,14.520614294263428,0.5070744036889601,27.091795242866475
51.0,145.79923151421283,14.336870000779571,0.5057359474611371,27.06920295001978
52.0,151.69647963783402,14.238326828660007,0.5044398955511282,27.047341038812927
53.0,157.38951058315033,14.231641489626725,0.5031882353590728,27.026332080352407
54.0,162.7953673341141,14.323634684345592,0.5019827350484742,27.006271700037594
55.0,167.82761556069897,14.521229291293812,0.5008248632353106,26.987236748546568
56.0,172.39837647213366,14.831333387264875,0.49971581949977767,26.96927688154473
57.0,176.4188413271328,15.260777148336631,0.4986566067196297,26.952420019426206
58.0,179.80243286650148,15.816244508293378,0.4976480679780722,26.93666937186266
59.0,182.46774319195123,16.504055168221125,0.49669080074698746,26.92202243077034
60.0,184.3425237655962,17.330225680913042,0.49578536258782485,26.90845197863115
61.0,185.36800683504134,18.3000981081452,0.4949321382615392,26.895929969816326
62.0,185.5029351359608,19.418311608325496,0.4941314315364072,26.884419145379056
63.0,184.7269030712447,20.688600066619845,0.49338340606314235,26.87388465236012
64.0,183.0422390198043,22.113545156759162,0.4926882859789142,26.864285358941135
65.0,180.474050743397,23.694405568476746,0.49204616485396113,26.855581009170006
66.0,177.06844687168612,25.430841210237176,0.4914570152924131,26.847736279731564
67.0,172.88909875620513,27.320692352922748,0.49092078839334025,26.840716165554543
68.0,168.012530889774,29.359864617752436,0.49043774353708297,26.834482210814095
69.0,162.52363788917862,31.541812614385215,0.4900074841204142,26.829014882224364
70.0,156.51047238745412,33.8577626765012,0.48963023050023896,26.824284590963632
71.0,150.06089890214713,36.296093857579436,0.48930579051978385,26.820267265123352
72.0,143.25941025951295,38.84256438354579,0.4890340948609755,26.816940695826375
73.0,136.18549669860218,41.480152012236864,0.48881510854519183,26.814287184318218
74.0,128.91280475128391,44.189140095294185,0.48864859839472075,26.812296344992976
75.0,121.5087382976224,46.94713438530859,0.4885348696772485,26.810945912321337
76.0,114.03557931656499,49.72916365347889,0.48847349633394427,26.810249399483286
77.0,106.5501315379496,52.50817874206843,0.4884646741989654,26.8101837729958
78.0,99.10544627394114,55.25502620383886,0.4885079501593773,26.810773051393955
79.0,91.75104131162267,57.938717111678585,0.48860404326527,26.811992013356402
80.0,84.53380633325207,60.52688252501575,0.48875249329292286,26.813854445695664
81.0,77.49869726382713,62.986021959057965,0.4889535897941796,26.816372136288646
82.0,70.6890205484505,65.28173957511453,0.48920701353890167,26.819557620636864
83.0,64.14655206984227,67.3795202469741,0.4895130294496201,26.82341522539681
84.0,57.91136648943685,69.24531823692905,0.4898716262777212,26.82797058519835
85.0,52.02104789612569,70.84674138587542,0.490282833874698,26.833240277876858
86.0,46.50948269142264,72.15455568919134,0.4907466247543948,26.83923618290781
87.0,41.405620181358785,73.1441988282816,0.49126310884241037,26.845989705089554
88.0,36.73170392941845,73.7976149628793,0.4918321376161259,26.853548006322924
89.0,32.50165784337965,74.10481784110893,0.49245373206539156,26.861921762000506
90.0,28.720040697818465,74.06508373354256,0.4931278721561789,26.871155106638295
91.0,25.38140759689908,73.68741268054235,0.49385450963546595,26.881285860972536
92.0,22.47063733106953,72.99020617253068,0.4946335326815921,26.892342948693084
93.0,19.963966213754453,72.00013296189174,0.4954646597014919,26.90436573776617
94.0,17.83068412266016,70.75038780041227,0.49634768285595354,26.91738412648561
95.0,16.035338604133337,69.2784686633615,0.49728225123518094,26.931427572738432
96.0,14.54014252006533,67.62380130871088,0.49826787114989507,26.946516067632924
97.0,13.30715007294719,65.82559320642923,0.49930395761160445,26.96266163767594
98.0,12.30006731377111,63.92110410636444,0.5003897597315146,26.979857825381917
99.0,11.485801582863838,61.94422101016947,0.5015243384999295,26.99808685834902
100.0,10.835250134130487,59.9247644865599,0.5027065340348713,27.017306293824056
101.0,10.323790550900704,57.888157612678164,0.503934972409935,27.03745606261358
102.0,9.931492209546407,55.8552764975838,0.5052077475076755,27.05845973894017
103.0,9.64284645131654,53.84279431015966,0.5065226740956582,27.080201185495802
104.0,9.446528672122572,51.86396232149772,0.5078778441641325,27.102568011136633
105.0,9.33499737604022,49.92858140282746,0.5092700039971111,27.125438695504887
106.0,9.304094456588262,48.04376577708831,0.5106955205046971,27.148692325204692
107.0,9.352619508594744,46.21441462618382,0.512149776181875,27.172211394806403
108.0,9.481996689507277,44.44364929428294,0.5136280699844126,27.19589661243715
109.0,9.695982477111443,42.733176269122865,0.5151248420078043,27.21966757399631
110.0,10.000337791478149,41.08368861281836,0.5166332152780806,27.24347192241033
111.0,10.40261899121494,39.49505340491376,0.518146419507979,27.26727294692206
112.0,10.911940601650898,37.96656631316028,0.5196572243376626,27.291050433653716
113.0,11.538886275874194,36.49712758272574,0.5211579986558633,27.314810948336977
114.0,12.29529251931881,35.08534226331034,0.5226418587287509,27.33857944517622
115.0,13.194153655093853,33.72962371008251,0.5241026661730711,27.362406180752355
116.0,14.249427896540547,32.42824498161703,0.5255357751702892,27.386377315850993
117.0,15.475967002039573,31.17938093468682,0.5269380020976282,27.410621618865026
118.0,16.88919981820427,29.981160895031238,0.5283085762953612,27.43531021863827
119.0,18.50498363994591,28.831744657305762,0.5296508302601874,27.46061480110791
120.0,20.339193059591864,27.729462038337907,0.5309759414968309,27.486631712267286
121.0,22.40739807737994,26.672954707886305,0.5323051992972452,27.513332133059166
122.0,24.724485867283036,25.661211823819563,0.5336666279747947,27.540632318552554
123.0,27.30450165020665,24.693450316345768,0.5350865149750283,27.568561026483454
124.0,30.160462169198574,23.76895535757527,0.5365844486165638,27.59734829471417
125.0,33.30408717193879,22.887024517502756,0.5381744049112335,27.627373578589136
126.0,36.74529749270986,22.047015491826023,0.539867574014173,27.659063188897903
127.0,40.49157847951534,21.24846264082102,0.5416720224791429,27.692851191077562
128.0,44.54790892046238,20.49118173030202,0.5435901929161987,27.729184107737108
129.0,48.91557042684828,19.775361162678067,0.5456192739582034,27.768533731211903
130.0,53.59228452699791,19.101554533953152,0.5477497071346997,27.811358534077574
131.0,58.57161052996139,18.47064520642927,0.549967381426363,27.858004723183125
132.0,63.84230941010665,17.883745552930076,0.5522553144275992,27.90851280227085
133.0,69.38863453795051,17.342108530042417,0.5545952540225814,27.962369544272164
134.0,75.18919742743088,16.84738902896747,0.5569683664877727,28.018355452269912
135.0,81.21634168503827,16.402400122409237,0.5593547634306931,28.07472918484578
136.0,87.43626881238868,16.010761985902263,0.5617320904539307,28.129779122426488
137.0,93.8099768902724,15.67605083022234,0.5640741680981779,28.1823369212758
138.0,100.29316530506664,15.401753479755873,0.5663517951179375,28.23193298148589
139.0,106.83722828696222,15.190825326827428,0.568533951344446,28.278647827228077
140.0,113.38978844576467,15.044530592901568,0.5705945303711172,28.322859479294614
141.0,119.89649973366394,14.961140018268656,0.5725173802863179,28.365101188557244
142.0,126.29974240005683,14.937012874044882,0.5743023160748063,28.405971547468702
143.0,132.53374426868456,14.971325650293716,0.5759666020727527,28.446139559358322
144.0,138.5207182741466,15.07090014174348,0.5775495381065447,28.48621045498761
145.0,144.17109256897635,15.251086950884885,0.5791145509230798,28.526592334336755
146.0,149.3882948382446,15.532371830240114,0.580735317828345,28.56764292613933
147.0,154.07674692659188,15.934695220871061,0.5824727009285962,28.609999359357417
148.0,158.14765440925643,16.4735827881137,0.584367178459281,28.654550248367283
149.0,161.52366587488274,17.158250896461933,0.5864387807516864,28.702260206537307
150.0,164.1428740912134,17.991358269353405,0.5886846575732545,28.75414153692855
151.0,165.96115692146537,18.969897148086368,0.5910813000116976,28.811180435389883
152.0,166.95912555580279,20.082841446879264,0.5935918915264149,28.874024255742
153.0,167.1449237682886,21.310683714384528,0.596174964079377,28.942315984868642
154.0,166.53115871100854,22.649545571432032,0.5987902819209475,29.013982710415686
155.0,165.10945763864265,24.136846938026473,0.6013991546275097,29.08549929232762
156.0,162.88764709413567,25.811842662353637,0.60396072913508,29.153557555245776
157.0,159.9246991604945,27.675502643149574,0.6064290713555286,29.216495133515345
158.0,156.31175038166143,29.70539833760954,0.6087565058310483,29.27424989423291
159.0,152.14955925271732,31.874100782879527,0.6109026457677226,29.327610223692872
160.0,147.53306605104575,34.160397450075635,0.61284955221468,29.377641176891675
161.0,142.5387431261013,36.55770217337331,0.6146102016434539,29.425432071302378
162.0,137.22169587194372,39.07236260560182,0.6162333208761046,29.47202824913411
163.0,131.62365022151104,41.71411948343715,0.6177990097344813,29.51833279593267
164.0,125.7780385270114,44.489849775514365,0.619402880708057,29.56515989831381
165.0,119.7131206190476,47.402006839406006,0.6211296861827235,29.6134660453395
166.0,113.45651714998583,50.445754284084856,0.6230347077782767,29.664411165769195
167.0,107.04446184445116,53.60128935339062,0.6251377222230223,29.719274136809567
168.0,100.53307094397479,56.82400125541078,0.6274233440040684,29.77940036206902
169.0,94.00318560009666,60.040776352912836,0.6298494493327256,29.84593975742015
170.0,87.54458575927924,63.16698673353045,0.6323630856021656,29.919082166013187
171.0,81.19696050370962,66.16638795134797,0.6349126918912558,29.99688955187185
172.0,74.90983211769581,69.09201436237134,0.6374509907150974,30.075086431658285
173.0,68.62662721375673,72.002961416837,0.6399314115177808,30.149213597408345
174.0,62.37410071588791,74.87508746357133,0.6423030513674856,30.217004507600983
175.0,56.237007215003594,77.62667221368031,0.6445145755109838,30.278445632541843
176.0,50.29977159664356,80.17668671934113,0.6465263019484188,30.33463219408623
177.0,44.62766141923286,82.46375092244101,0.6483249999839742,30.38692790545892
178.0,39.26730032695613,84.44575460270548,0.6499357563766444,30.436640714962735
179.0,34.24794894537497,86.09869147573436,0.6514213494781563,30.484954058479932
180.0,29.587931321452015,87.41018486890852,0.6528713670220955,30.532923535303194
181.0,25.30063189513355,88.37347988450999,0.6543792715678737,30.581567824189452
182.0,21.396439120695092,88.98529417177433,0.6560197600737658,30.63199824464666
183.0,17.885003336923432,89.24331170385459,0.6578344500252754,30.685444400205554
184.0,14.780970974698116,89.14020281492493,0.6598260344576117,30.74325009674667
185.0,12.103179991665158,88.66410663786274,0.6619648148771065,30.806738465161953
186.0,9.867955523349092,87.80514285590962,0.6642029664486684,30.876742764152148
187.0,8.07342644896544,86.57093785635881,0.6664892967449448,30.9525839218099
188.0,6.647727657443042,85.03839370143257,0.668777755543614,31.031090892879376
189.0,5.473920842790766,83.32878984841487,0.6710268862930442,31.107499953118694
190.0,4.505704006640551,81.49194408381715,0.6731948990555633,31.178218291691586
191.0,3.743730357866091,79.52972987805934,0.6752381000259431,31.242184098536956
192.0,3.1690960587087207,77.4626362265749,0.6771168543584178,31.300059162739235
193.0,2.748299020666501,75.32499305973761,0.6788074971068242,31.35311731054739
194.0,2.4476704723443614,73.15070407095808,0.6803131197932568,31.40267397446195
195.0,2.238219884831296,70.96860221969528,0.6816677957634839,31.44991381996213
196.0,2.095931074770747,68.80228642808767,0.682931156530474,31.49587256693876
197.0,2.001898901572942,66.67018103735107,0.6841766096072159,31.541482387896316
198.0,1.9445710670450431,64.5834006455006,0.6854744278116729,31.587639404798942
199.0,1.9180816178960443,62.5475536814893,0.6868770872715745,31.635268401812823
200.0,1.9190296907164295,60.56605908067163,0.6884110991558929,31.685356762079294
201.0,1.9453478404249989,58.64135440089263,0.6900752563873256,31.738942743969623
202.0,1.9964615981843417,56.7748188832619,0.6918458124429465,31.79703680802589
203.0,2.0734876395212845,54.966649388101374,0.6936872638802453,31.860314374240986
204.0,2.1791383142570466,53.21600560299471,0.6955610919117587,31.928473405036605
205.0,2.317179132008979,51.52157645655398,0.6974338841720549,31.99953575495278
206.0,2.49101160003871,49.88308549446619,0.6992775754936357,32.07001738343524
207.0,2.705695045342137,48.299245490165085,0.701065273080436,32.13657257710552
208.0,2.9680153047821576,46.767704307584076,0.7027703914725065,32.19749296082658
209.0,3.284956654397341,45.28660224559875,0.7043668044811513,32.25268280047725
210.0,3.663983259035633,43.85428776863986,0.7058341558877532,32.30288454516954
211.0,4.113197296474012,42.46913902840396,0.7071621107302963,32.349074806984156
212.0,4.641338181739669,41.12955942217848,0.7083547797917341,32.392196450419114
213.0,5.25772902527355,39.83399284409841,0.7094321410147985,32.43306985881284
214.0,5.972276458802114,38.58092384067109,0.7104262583161411,32.47240181490087
215.0,6.795348876569078,37.3689034933166,0.7113765809769482,32.51080616035972
216.0,7.737809190216076,36.196523304974335,0.7123227002174864,32.54882362108347
217.0,8.810918759131136,35.06243090001904,0.7132985070803761,32.58696152987027
218.0,10.026268926731438,33.965335088676646,0.7143276743405627,32.6257043191201
219.0,11.395693676243955,32.904010121649925,0.7154216611477902,32.66553483899214
220.0,12.931227111892007,31.87729073686515,0.7165802086678323,32.706934807858
221.0,14.64494950174225,30.884083776877983,0.7177938654022127,32.75036024374878
222.0,16.54899592944793,29.92336374017823,0.7190470078360097,32.796192930713985
223.0,18.655366200848206,28.99416953783776,0.7203216673974181,32.84462475869319
224.0,20.975967040436355,28.095540504983834,0.7216005657338092,32.89549053211713
225.0,23.52268567731157,27.22624306709312,0.7228688640684043,32.948085854269145
226.0,26.30717840239548,26.38489884909848,0.7241140585694076,33.00112884734297
227.0,29.339307391667017,25.57128185643647,0.7253259306657526,33.05303147674698
228.0,32.62744834986206,24.786010553399745,0.7264956476057519,33.102390077772284
229.0,36.17983795409517,24.029053650084883,0.7276152494004556,33.14835259338994
230.0,40.003727387508164,23.300069276248117,0.7286776173804402,33.19064859169521
231.0,44.10487867935288,22.599020702967387,0.7296766368685484,33.2294111536741
232.0,48.4868474212656,21.926225606573695,0.7306079195827136,33.264968327661755
233.0,53.151140300737715,21.28230937185258,0.7314695714213445,33.29771771086633
234.0,58.09683359277327,20.668173674951586,0.7322616378923668,33.32803713728346
235.0,63.319980958130095,20.085024777248655,0.7329872839308866,33.3562685404545
236.0,68.8135174516144,19.534424162875357,0.7336515067564113,33.3827064011786
237.0,74.56711863538473,19.01815373494596,0.7342602994690332,33.40759396016554
238.0,80.56610683470082,18.53843722057181,0.7348214955234504,33.43113274055604
239.0,86.79181080848386,18.097779215042696,0.7353427042219055,33.45348694125374
240.0,93.22101398751019,17.69914079193502,0.7358313144042169,33.47478710894964
241.0,99.82526744258385,17.345853960100698,0.7362939252530157,33.495137018697974
242.0,106.57111410310321,17.04166716808259,0.7367360291556674,33.51461825619692
243.0,113.41994859463992,16.79072759136594,0.7371618130939646,33.533292059240594
244.0,120.32784305962583,16.597583875566443,0.7375741601652643,33.551202557206764
245.0,127.2453501562035,16.467143106192992,0.7379747212495876,33.5683775808452
246.0,134.1178561816484,16.40462697931762,0.7383642577376838,33.5848332924141
247.0,140.88603687483635,16.41557130240595,0.738742435717474,33.600572062632615
248.0,147.4861196143327,16.505718070443447,0.7391082596087791,33.61558783710882
249.0,153.85017741206232,16.681075839879906,0.7394604355796464,33.62986376110024
250.0,159.90752127650103,16.947808651829753,0.7397971661265398,33.64337420699456
