Time,J,A,S,tau
0.0,100.0,10.0,0.8047079544087323,23.37954556132533
1.0,97.59083791428884,15.635869783373721,0.8023127552836135,23.332335277771758
2.0,92.1295351264193,21.04460050484502,0.7998386533055347,23.28366105380287
3.0,85.53703983744222,26.233029706684064,0.7972896897618388,23.233595613202258
4.0,78.60038988797821,31.208102804124966,0.794666721464402,23.182152603139976
5.0,71.60555439927097,35.976565681762914,0.7919706683776042,23.129346124456806
6.0,64.65357479790157,40.54497043254122,0.7892025130939774,23.075190728111885
7.0,57.78057688836459,44.91968141184833,0.786363300396636,23.019701412842732
8.0,51.00010380165402,49.10687964109921,0.7834541362756473,22.96289361970365
9.0,44.317658645789166,53.11256209227783,0.7804761877075087,22.904783233009198
10.0,37.73583456997811,56.94256083697756,0.7774306812095588,22.845386571979702
11.0,31.256091565016327,60.60253180960483,0.7743189006947621,22.784720379623984
12.0,24.879415665626148,64.09796525433129,0.7711421887005249,22.72280183548316
13.0,18.60657149092609,67.43420177290636,0.7679019447127321,22.659648547988372
14.0,12.438196354762491,70.61644004819682,0.7645996199627152,22.595278520634803
15.0,6.3748312565563845,73.64967240236099,0.7612367217805553,22.529710196338502
16.0,0.4169366585628982,76.53883139050434,0.7578148066339416,22.46296240095897
17.0,0.0,79.2886543861358,0.7543354830540544,22.395054384540135
18.0,0.0,81.90376102214894,0.750800406149482,22.326005781491613
19.0,0.0,84.38865451379154,0.7472112761267169,22.255836606982015
20.0,0.0,86.7476424238489,0.7435698409588702,22.18456729889747
21.0,0.0,88.9850054352034,0.7398778865218185,22.112218630946554
22.0,0.0,91.10476209814794,0.7361372419639124,22.038811792647316
23.0,0.0,91.23530862885741,0.7345023793424676,22.010847684677064
24.0,0.0,88.97813867494405,0.7329767888216525,21.98530943522987
25.0,0.0,85.90200600075563,0.7314692548544193,21.96021889656956
26.0,0.0,82.62891650139937,0.7299805453632345,21.935581745319983
27.0,0.0,79.37431416909308,0.7285114228453625,21.91140351294291
28.0,0.0,76.20849167202657,0.7270626436868742,21.887689586086662
29.0,0.0,73.15247573605386,0.7256349574937281,21.864445207256185
30.0,0.0,70.2106744143489,0.72422910639792,21.841675474818356
31.0,0.0,67.38191199680604,0.7228458243223567,21.819385342608786
32.0,0.0,64.66311692894293,0.7214858367205602,21.797579626842445
33.0,0.0,62.050685944078204,0.7201498587952591,21.776262988488075
34.0,0.0,59.540800897792614,0.7188385963662883,21.755439959037997
35.0,0.0,57.129745973326806,0.7175527444420727,21.735114925501684
36.0,0.0,54.813830113166155,0.7162929858236265,21.7152921260153
37.0,0.0,52.58949958750678,0.7150599929645111,21.695975676344958
38.0,0.0,50.45333095130536,0.7138544235031211,21.67716952897971
39.0,0.0,48.40196606337087,0.7126769241616383,21.658877521691718
40.0,0.0,46.432235759654965,0.711528126012826,21.64110333454573
41.0,0.0,44.54100336098327,0.7104086467989924,21.623850520963515
42.0,0.0,42.725308650641004,0.7093190895004753,21.60712249753114
43.0,0.0,40.9822526261754,0.7082600403443757,21.590922534140713
44.0,0.0,39.30906414807613,0.7072320715163328,21.5752537809266
45.0,0.0,37.703054976513954,0.706235737380023,21.560119242102196
46.0,0.0,36.16163359820663,0.7052715756714496,21.54552179067914
47.0,0.0,34.68230819341899,0.7043401071086209,21.531464169239914
48.0,0.0,33.26267030999871,0.7034418342878597,21.517948985856396
49.0,0.0,31.900406523347257,0.7025772414686884,21.504978716536282
50.0,0.0,30.59328193172819,0.7017467943561366,21.49255570730795
51.0,0.0,29.339147756380054,0.7009509395278154,21.480682173684585
52.0,0.0,28.135938462874964,0.7001901040804721,21.46936020157016
53.0,0.0,26.981666212426333,0.699464695384953,21.458591748685517
54.0,0.0,25.8744272737847,0.6987751006137964,21.44837864441886
55.0,0.0,24.81240295935097,0.698121686474407,21.43872259086808
56.0,0.0,23.793863420602978,0.6975047990116902,21.429625164130282
57.0,0.0,22.817176039186155,0.696924763240775,21.42108781443445
58.0,0.0,21.880820144299683,0.6963818828418809,21.413111866563742
59.0,0.0,20.983403009071292,0.6958764400807292,21.405698521434214
60.0,0.0,20.12368439040759,0.6954086954726072,21.39884885605889
61.0,0.0,19.300607661880804,0.6949788876698905,21.39256382467122
62.0,0.0,18.51333953655583,0.6945872332292694,21.38684425904125
63.0,0.0,17.76131715259627,0.6942339265354251,21.381690869531237
64.0,0.0,17.044304685323546,0.6939191395956312,21.37710424531784
65.0,0.0,16.36245604422477,0.6936430219851669,21.373084855310815
66.0,2.121051794815893,15.716384276026629,0.6934057007632517,21.36963304878181
67.0,5.653227539816406,15.10723395686173,0.6932072804330381,21.366749056099295
68.0,9.474709346772238,14.53676199105246,0.6930478427409684,21.364432988521337
69.0,13.578569781966083,14.007407815227522,0.6929274467925903,21.362684839518003
70.0,17.950157413900126,13.522356020832648,0.6928461290842276,21.361504485494766
71.0,22.56601813582966,13.08559975742984,0.692803903381493,21.360891685648195
72.0,27.39290318279867,12.701978131866293,0.6928007608815252,21.360846083148836
73.0,32.38687362093665,12.377204306096505,0.692836670153446,21.36136720506858
74.0,37.49276013286451,12.117862146205777,0.6929115773269406,21.362454463463855
75.0,42.64388485322704,11.931387615831223,0.6930254060645038,21.364107155235754
76.0,47.76221886118931,11.8260112506567,0.6931780577750395,21.36632446310487
77.0,52.759128651179296,11.810681065602983,0.6933694116996576,21.36910545582803
78.0,57.53663398634829,11.894949762182597,0.6935993250380411,21.372449088495703
79.0,61.98964237910007,12.088832727264558,0.6938676332014867,21.376354203381208
80.0,66.00922289674976,12.402639721772243,0.6941741498844362,21.380819529733067
81.0,69.4871839057962,12.846769196533993,0.6945186673768169,21.385843684704117
82.0,72.3222326207832,13.431481030220016,0.6949009567285492,21.391425173409434
83.0,74.42722784946626,14.166626502357513,0.695320767985508,21.39756238923239
84.0,75.73681856791299,15.061352958763969,0.6957778305407858,21.404253614655325
85.0,76.21451835967837,16.123757562968162,0.6962718532490105,21.41149702069444
86.0,75.85685272679699,17.360509525024643,0.6968025248493984,21.41929066790051
87.0,74.69389476144246,18.77641132065444,0.6973695141736467,21.427632506071582
88.0,72.78507429665942,20.373917548771264,0.6979724706794677,21.436520375685777
89.0,70.21169432669217,22.152580765968175,0.6986110245053576,21.445952006521992
90.0,67.06685370465637,24.108505051153266,0.699284787078709,21.455925019333154
91.0,63.44589948354678,26.23371069363718,0.6999933513220536,21.466436925087738
92.0,59.43901449761316,28.515570320442308,0.7007362921598268,21.477485125888617
93.0,55.12713687199562,30.936222854154742,0.7015131668149426,21.489066914511607
94.0,50.581331878894865,33.4721358430604,0.7023235153331088,21.501179475251636
95.0,45.864553595516185,36.093752326230145,0.703166860936524,21.513819883603592
96.0,41.03474844346704,38.76535009842562,0.704042710510114,21.526985106678023
97.0,36.14806916084518,41.445125543055056,0.7049505550689166,21.54067200342542
98.0,31.26150467344581,44.08552244923968,0.7058898701814658,21.554877324432024
99.0,26.434505240992326,46.63393852725559,0.7068601165234207,21.569597712554486
100.0,21.729513313778508,49.033814567019924,0.7078607403282445,21.584829702725568
101.0,17.211348043058713,51.226298857268034,0.7088911739004423,21.60056972210746
102.0,12.945437215263505,53.15262492905638,0.7099508361568504,21.61681409039698
103.0,8.994904368389514,54.75730907229492,0.7110391331333588,21.633559019762295
104.0,5.416603568331657,55.992163068656744,0.7121554585319969,21.65080061502101
105.0,2.2564601553729413,56.820803131009455,0.7132991942714547,21.66853487377529
106.0,0.0,57.22305483668767,0.714469711038779,21.686757686477854
107.0,0.0,57.19830995035743,0.7156663688591367,21.705464836596903
108.0,0.0,56.76689568060219,0.7168885176577966,21.724652000619216
109.0,0.0,55.96873556585619,0.7181354978459774,21.744314748247355
110.0,0.0,54.85924998850429,0.7194066409006804,21.764448542465082
111.0,0.0,53.50315929302393,0.7207012699539549,21.78504873965704
112.0,0.0,51.967452642937765,0.7220187003850275,21.806110589714113
113.0,0.0,50.314966242356014,0.7233582404154406,21.827629236130626
114.0,0.0,48.599721500245884,0.7247191917088691,21.84959971613501
115.0,0.0,46.864551266404035,0.7261008499723522,21.872016960822766
116.0,0.0,45.14086263650136,0.7275025055568418,21.894875795250705
117.0,0.0,43.44993993990241,0.7289234440616661,21.91817093862339
118.0,0.0,41.80501398468916,0.7303629469356526,21.941897004420053
119.0,0.0,40.213453659181525,0.7318202920738885,21.966048500371357
120.0,0.0,38.67869431507121,0.7332947544299785,21.990619829219717
121.0,0.0,37.20167813771023,0.7347856065911252,22.01560528789494
122.0,0.0,35.78189093842896,0.7362921193936854,22.040999068395685
123.0,0.0,34.418003589458635,0.7378135624985577,22.066795257946133
124.0,0.0,33.10827264664205,0.7393492049828004,22.0929878389068
125.0,0.0,31.850763080933163,0.7408983159055635,22.119570689573468
126.0,0.0,30.643480935713782,0.7424601648939283,22.146537583645596
127.0,0.0,29.484439261221414,0.744034022695923,22.173882191200192
128.0,0.0,28.37169311976379,0.7456191617333643,22.201598078730424
129.0,0.0,27.303360586881848,0.7472148566697359,22.229678708868164
130.0,0.0,26.27763004887213,0.7488203849165518,22.25811744175282
131.0,0.0,25.29276679073321,0.7504350271886651,22.28690753442412
132.0,0.0,24.347116431680906,0.7520580680042227,22.31604214171768
133.0,0.0,23.439109306453076,0.7536887961930018,22.345514316504463
134.0,0.0,22.567266126276113,0.7553265053915642,22.375317010045407
135.0,0.0,21.730206163404763,0.7569704945213973,22.40544307246877
136.0,0.0,20.926658258607578,0.7586200682561698,22.435885253213517
137.0,0.0,20.155475009767187,0.7602745374724971,22.466636201540794
138.0,0.7323880882064426,19.415650464327136,0.76193321969071,22.49768846700608
139.0,2.192695971824195,18.70634126831747,0.7635954394959096,22.5290345000334
140.0,3.8445878411416445,18.026891831101317,0.7652605289486515,22.5606666524604
141.0,5.702356295759883,17.376863332251297,0.7669278279785982,22.592577178126486
142.0,7.779225965317429,16.75606670971906,0.7685966847570156,22.624758233555927
143.0,10.086862308768119,16.164599814371336,0.7702664560616128,22.657201878571122
144.0,12.634799896073911,15.602887601795025,0.7719365076183924,22.68990007700363
145.0,15.42981257330331,15.071725410003285,0.773606214428531,22.722844697456107
146.0,18.475165747526184,14.572320967882693,0.7752749610545864,22.756027514218218
147.0,21.769883821649454,14.106343324279248,0.7769421419731936,22.78944020764485
148.0,25.307906422098565,13.67596593082102,0.7786071618546854,22.82307436498363
149.0,29.07713935008525,13.283893844161371,0.7802694356833264,22.856921482225854
150.0,33.058712297929404,12.933409479735978,0.7819283891440204,22.890972963982033
151.0,37.22612194418555,12.628393394337287,0.7835834587897151,22.925220124806348
152.0,41.54465184769702,12.373343236940922,0.7852340922417081,22.95965419030483
153.0,45.970852616893154,12.173378650476629,0.7868797483669343,22.994266298197825
154.0,50.45231053447981,12.03424018905488,0.7885198975066771,23.029047498997308
155.0,54.92778947741742,11.962265372186794,0.790154021543489,23.06398875775859
156.0,59.32770030608023,11.964358963861443,0.7917816141045776,23.09908095475807
157.0,63.57521361432041,12.047943667561338,0.7934021806311814,23.13431488709276
158.0,67.58784328729338,12.220894377186532,0.7950152385193513,23.16968126964086
159.0,71.27995554127999,12.491456557843703,0.7966203171607472,23.20517073671505
160.0,74.5659875599313,12.86814304794676,0.798216958052872,23.240773843119065
161.0,77.36464266372298,13.359614074020296,0.799804714804332,23.27648106590541
162.0,79.60369419752558,13.974529331600616,0.8013831532154049,23.31228280553421
163.0,81.2250609051214,14.721380691268678,0.8029518512442245,23.348169387759768
164.0,82.18950603633385,15.60829019896753,0.8045103990567759,23.38413106491998
165.0,82.48003007721688,16.642780562105358,0.8060583990090593,23.420158017654387
166.0,82.10306011495791,17.83150548759042,0.80759546560486,23.45624035668824
167.0,81.08706260666771,19.179943810880392,0.8091212254459033,23.492368124646937
168.0,79.47863604785815,20.69204786276534,0.8106353171917151,23.528531297791268
169.0,77.33667059837528,22.36984978486248,0.8121373915058188,23.564719787841977
170.0,74.72576823371674,24.213023461242543,0.8136271109698359,23.600923443939532
171.0,71.7102789504894,26.218430847509225,0.8151041499604158,23.637132054834964
172.0,68.35004674075758,28.37962837871592,0.8165681945640494,23.673335350822942
173.0,64.69825109995837,30.68636748638122,0.8180189425056575,23.709523005696
174.0,60.80145627562586,33.12415421404206,0.8194561029467483,23.745684639295522
175.0,56.70112430185214,35.67383081023387,0.8208793963788438,23.781809819607183
176.0,52.43594695922,38.311235500894334,0.8222885545200895,23.817888064934547
177.0,48.0443137748576,41.00704207583687,0.8236833200863987,23.853908846610008
178.0,43.56638566593677,43.72672367229043,0.8250634466547376,23.889861591319054
179.0,39.04557647575693,46.43072071053246,0.8264286985388062,23.925735683485602
180.0,34.529261023783384,49.07494226746718,0.8277788505073733,23.961520468247233
181.0,30.068837009033906,51.61151143188339,0.8291136876919267,23.99720525378534
182.0,25.719029307595047,53.98996608609902,0.8304330053252321,24.032779314334682
183.0,21.536535090672437,56.15891034744645,0.8317366085752241,24.068231892877996
184.0,17.577960607974482,58.06820047935057,0.8330243123237849,24.103552204114976
185.0,13.897108266442977,59.67165542991411,0.8342959409543951,24.138729437443526
186.0,10.541741545104516,60.93017721913846,0.8355513281309639,24.173752760027288
187.0,7.550085670208579,61.81503094170292,0.8367903165804408,24.208611319928178
188.0,4.947527685442877,62.310832267264374,0.8380127578611708,24.243294249338184
189.0,2.744057381411973,62.41772180874423,0.8392185121375758,24.277790667874907
190.0,0.9330682795639803,62.152140595231785,0.840407447939637,24.312089685971188
191.0,0.0,61.545867892444925,0.8415794419293676,24.34618040832683
192.0,0.0,60.64323762619906,0.8427343786626375,24.380051937455747
193.0,0.0,59.49688950958676,0.8438721503485995,24.413693377309112
194.0,0.0,58.16275978971089,0.8449926566072034,24.447093836979754
195.0,0.0,56.69519547898676,0.8460958042257244,24.480242434487362
196.0,0.0,55.14299570840883,0.8471815069151187,24.51312830064618
197.0,0.0,53.54689306355859,0.8482496850655691,24.545740583013064
198.0,0.0,51.93859164474773,0.8493002655020315,24.578068449916497
199.0,0.0,50.34112256363797,0.8503331812408196,24.610101094569615
200.0,0.0,48.77007233780137,0.8513483712438129,24.64182773924644
201.0,0.0,47.23519028006823,0.8523457801801716,24.673237639575294
202.0,0.0,45.742001356064264,0.8533253581816571,24.704320088868194
203.0,0.0,44.293177458597214,0.8542870605985273,24.73506442249711
204.0,0.0,42.88957951658287,0.8552308477681377,24.765460022416075
205.0,0.0,41.53098675541571,0.8561566847985455,24.795496322076406
206.0,0.0,40.21657495439427,0.8570645412893584,24.82516281052503
207.0,0.0,38.94519980099195,0.8579543911320848,24.854449037457414
208.0,0.0,37.71556727660962,0.8588262122661496,24.883344617817748
209.0,0.0,36.52632569531169,0.8596799864725014,24.911839236896082
210.0,0.0,35.376119059227236,0.8605156991373908,24.939922655231545
211.0,0.0,34.26361196810099,0.8613333390230208,24.967584713195105
212.0,0.0,33.18750282614333,0.8621328980695496,24.994815336423446
213.0,0.0,32.146531412546764,0.8629143711830881,25.021604541220984
214.0,0.0,31.13948021437327,0.8636777560055197,25.04794243882836
215.0,0.0,30.165176020230273,0.8644230527341549,25.07381924158114
216.0,0.0,29.222489898104506,0.8651502639031744,25.099225267516715
217.0,0.0,28.310337077655888,0.8658593941951171,25.12415094597649
218.0,0.0,27.427677443410456,0.8665504502450521,25.148586822930397
219.0,0.0,26.573515940404192,0.8672234404525958,25.1725235662566
220.0,0.0,25.74690450826431,0.8678783747970309,25.195951971255692
221.0,0.0,24.946944559262107,0.8685152646574433,25.218862966006487
222.0,0.0,24.17279096115307,0.869134122637484,25.241247616854984
223.0,0.6111253758479591,23.423657458990117,0.8697349623943046,25.263097133885797
224.0,1.4339856820875294,22.698823728202672,0.8703177984722972,25.28440287638835
225.0,2.376602257362468,21.99764441438916,0.8708826461411499,25.30515635836719
226.0,3.4505395581547815,21.31956026033133,0.871429521239057,25.32534925402182
227.0,4.667499236439484,20.664111665586713,0.8719584400205379,25.344973403168716
228.0,6.03915236413385,20.030955081269187,0.8724694190089153,25.364020816799894
229.0,7.576939506329673,19.41988210890646,0.8729624748536635,25.382483682440387
230.0,9.291834738883304,18.830841629039043,0.8734376241927428,25.400354369625944
231.0,11.194070561611385,18.26396446501669,0.8738948835201563,25.41762543505752
232.0,13.292815812392496,17.719591737581695,0.8743342690558749,25.43428962852078
233.0,15.595807859746383,17.198303046311537,0.8747557966274759,25.450339897073352
234.0,18.10892426733122,16.70095004375146,0.8751594815468622,25.465769391606425
235.0,20.835715843752737,16.228687313317053,0.8755453385018992,25.480571470786845
236.0,23.77683216410977,15.78301074499327,0.8759133814367036,25.494739709071876
237.0,26.929589686004757,15.365779422581024,0.8762636234665581,25.508267895028055
238.0,30.287250830984615,14.979266800515436,0.8765960767309735,25.521150046035014
239.0,33.83836751298691,14.626162361119093,0.8769107523919385,25.53338040344896
240.0,37.566272218491456,14.309617812108995,0.877207660465441,25.544953443528303
241.0,41.448454491106084,14.033257463214467,0.8774868097753391,25.555863879380347
242.0,45.45608996520599,13.801198239348215,0.8777482078558083,25.566106667035708
243.0,49.55367928742726,13.618054763589049,0.8779918608856775,25.57567700899126
244.0,53.69886447477658,13.488939751501809,0.8782177736174497,25.584570358639713
245.0,57.842439783232834,13.419451030102413,0.8784259493258528,25.592782423402845
246.0,61.92865577707587,13.415658139023535,0.8786163897305967,25.60030917099129
247.0,65.8959708093822,13.484069678530917,0.878789094953058,25.607146831210965
248.0,69.67810193237445,13.631591200091343,0.8789440634708819,25.613291900096375
249.0,73.20569808284404,13.86547536263628,0.8790812920613448,25.618741144569707
250.0,76.40851782674423,14.19325194452259,0.8792007757789477,25.623491603682268
251.0,79.21817932489803,14.622647655076921,0.8793025079115406,25.62754059369723
252.0,81.57147366306198,15.161490357687523,0.8793864799516713,25.630885710274825
253.0,83.41382336785877,15.81759139563639,0.8794526815860402,25.63352483026038
254.0,84.70290364057401,16.598610157583323,0.8795011006590591,25.63545611658266
255.0,85.4115184673791,17.51189656484929,0.8795317231720927,25.6366780185096
256.0,85.52952570634497,18.564302983310746,0.8795445332712796,25.63718927476283
257.0,85.06419982154719,19.761967011739515,0.8795395132527197,25.636988914790354
258.0,84.03893690737212,21.110060377435307,0.87951664355055,25.63607626164378
259.0,82.49022166948701,22.612498719574212,0.8794759027576379,25.63445093251641
260.0,80.46348643406445,24.271613949661713,0.8794172676311485,25.632112840406677
261.0,78.00858053003634,26.0877818178909,0.8793407131225166,25.62906219496863
262.0,75.17558212681928,28.059018740435988,0.8792462123887371,25.625299503655814
263.0,72.01176768826235,30.180547720008377,0.8791337368289108,25.620825571833926
264.0,68.56002881917915,32.44434637391305,0.8790032561194641,25.615641503132988
265.0,64.85873306306654,34.83869182207988,0.878854738253072,25.609748700050442
266.0,60.94276147107651,37.34772370567528,0.8786881495807038,25.603148864050308
267.0,56.845248564824615,39.951077650669674,0.8785034548683581,25.59584399452943
268.0,52.599511109040954,42.62359793883046,0.8783006173548197,25.58783638816765
269.0,48.24080391746341,45.33517681685159,0.8780795988149978,25.57912863810993
