Time,J,A,S,tau
0.0,100.0,10.0,0.6697949336030063,38.58263154351515
1.0,99.80882241623972,8.941291992201794,0.6686136923096289,39.56833939146869
2.0,99.62118264576515,7.994900606139818,0.6674498236511168,40.55490757739672
3.0,99.43683083201829,7.1491014330591796,0.666302659775195,41.542196630843755
4.0,99.25560980472768,6.393143416117224,0.6651715968317242,42.53014648926117
5.0,99.07736772302725,5.717434024004059,0.6640560272429111,43.5187022082734
6.0,98.90195779872677,5.113410399715383,0.6629553417184584,44.50781346938982
7.0,98.72923802998685,4.573428828205508,0.661868930962414,45.497434134231284
8.0,98.55907094796922,4.0906656845616105,0.660796187108238,46.48752184314088
9.0,98.39132337428244,3.6590294913469554,0.6597365049161811,47.47803765224517
10.0,98.22586618868726,3.2730815183305464,0.6586892827618717,48.46894570503085
11.0,98.0625741013074,2.9279641686522013,0.6576539234328177,49.460212931483134
12.0,97.90132543568804,2.619339184184142,0.6566298347603705,50.45180877700761
13.0,97.7420019204348,2.343331835733301,0.6556164301077544,51.443704956620564
14.0,97.5844884897311,2.096481660208382,0.6546131287344248,52.43587523219733
15.0,97.4286730888915,1.8756968462322463,0.6536193560459168,53.42829520830801
16.0,97.27444648565863,1.6782149115186416,0.6526345437431115,54.42094214559287
17.0,97.12170208944345,1.5015675691198416,0.6516581298898546,55.41379479119966
18.0,96.97033577685077,1.343549413300179,0.6506895589084887,56.4068332236442
19.0,96.82024572338503,1.2021897713518361,0.6497282815144315,57.40003871058596
20.0,96.67133223780515,1.0757270625472584,0.6487737545890135,58.39339357657368
21.0,96.52349760259574,0.9625867669422118,0.6478254410085107,59.38688108149679
22.0,96.37664591944666,0.8613614812995654,0.6468828094351676,60.38048530800749
23.0,96.23068295957643,0.7707933085936259,0.6459453340775161,61.3741910568094
24.0,96.0855160171432,0.6897575520554431,0.645012494420856,62.36798374815694
25.0,95.94105376563869,0.6172485673281306,0.6440837749327781,63.36184932885945
26.0,95.7972061186548,0.5523671732218852,0.6431586647544677,64.35577418454594
27.0,95.65388409392304,0.49430938862307305,0.6422366573795536,65.34974505596475
28.0,95.51099968046852,0.4423563480953679,0.6413172503251771,66.34374895849858
29.0,95.36846570736087,0.39586503994277433,0.6403999447932721,67.33777310386854
30.0,95.22619571539599,0.3542603694272203,0.6394842453316035,68.33180482384773
31.0,95.08410383124148,0.31702796626599633,0.6385696594972894,69.3258314951413
32.0,94.94210464361501,0.283707826828959,0.6376556975256291,70.31984046458167
33.0,94.80011308095872,0.2538884377907125,0.6367418720057193,71.31381897392943
34.0,94.65804429057562,0.22720163668406199,0.635827697565571,72.30775408389064
35.0,94.5158135195007,0.20331806223201349,0.6349126905730584,73.30163259653735
36.0,94.37333599657512,0.18194306890768927,0.6339963688544549,74.29544097533828
37.0,94.23052681527747,0.16281308167283393,0.6330782514340102,75.28916526173714
38.0,94.08730081758127,0.14569222634468731,0.6321578582970544,76.28279098827856
39.0,93.94357247868295,0.1303694451129337,0.6312347101819777,77.27630308715428
40.0,93.79925579231953,0.1166558831546631,0.6303083284052545,78.26968579314702
41.0,93.65426415618228,0.10438257429645889,0.6293782347235013,79.26292253975112
42.0,93.5085102574981,0.09339830951930944,0.6284439512377673,80.25599584766468
43.0,93.36190595952627,0.08356775498790005,0.6275050003452576,81.2488872056473
44.0,93.21436218786103,0.07476979639818682,0.6265609047447639,82.24157694132144
45.0,93.06578881659313,0.06689604691947239,0.6256111875021872,83.23404408086739
46.0,92.9160945534992,0.059849519782534326,0.6246553721839323,84.22626619526983
47.0,92.76518682612802,0.053543395503579526,0.623692983066145,85.21821923384084
48.0,92.61297166773072,0.04789996599231004,0.6227235454278084,86.2098773423743
49.0,92.45935360251413,0.04284967934677171,0.6217465859381694,87.2012126634007
50.0,92.30423552989924,0.038330291754812576,0.6207616331500792,88.19219511608202
51.0,92.1475186079983,0.03428609053930497,0.6197682181127512,89.18279215348507
52.0,91.98910213850895,0.030667200591069945,0.6187658751127859,90.17296849812685
53.0,91.82888345028671,0.027428978621007537,0.6177541425608396,91.16268584942232
54.0,91.66675778227044,0.024531465362822528,0.6167325640402455,92.15190256074236
55.0,91.50261816455904,0.021938899370970728,0.6157006895405706,93.14057328042777
56.0,91.33635530094377,0.01961926419087413,0.6146580768879761,94.12864855816035
57.0,91.16785745157179,0.017543899648105404,0.6136042933926141,95.11607441140026
58.0,90.99701031456271,0.015687151173217548,0.6125389177419471,96.10279184498448
59.0,90.82369690673481,0.014026057458051001,0.6114615421679019,97.08873631871833
60.0,90.64779744344976,0.012540066188456647,0.6103717749215863,98.07383715639416
61.0,90.46918922184946,0.011210777294816246,0.6092692430579604,99.05801690025511
62.0,90.28774650297092,0.010021720424473022,0.6081535955841292,100.04119059552653
63.0,90.10334039407783,0.008958153075955546,0.6070245070030809,101.02326500001442
64.0,89.91583872979322,0.008006881738870441,0.6058816813085659,102.00413770626466
65.0,89.72510595658275,0.00715609513701484,0.60472485643694,102.98369617928988
66.0,89.5310030197,0.006395220536438692,0.6035538092093785,103.96181670201857
67.0,89.33338725039711,0.00571479461745496,0.6023683608335861,104.938363211901
68.0,89.13211225437541,0.0051063481003466365,0.6011683830071884,105.91318602061915
69.0,88.92702780116583,0.004562301385023076,0.5999538046882565,106.88612040260405
70.0,88.7179797211251,0.004075869342601558,0.5987246194714806,107.85698506944149
71.0,88.50480980397366,0.0036409792953342158,0.5974808936846444,108.82558050020647
72.0,88.28735570084123,0.0032521964746439727,0.5962227752288258,109.79168712273982
73.0,88.06545082856297,0.002904658034259081,0.5949505032348097,110.7550633280476
74.0,87.8389242817514,0.0025940114370431307,0.5936644184656373,111.71544333320782
75.0,87.60760075081244,0.0024607083596573792,0.5923649744685985,112.67253488775536
76.0,87.37130081666167,0.0024281816363647206,0.5910527393011833,113.62601913891257
77.0,87.12983940945531,0.0023958395253391466,0.5897284504037958,114.57553838770572
78.0,86.88303043887348,0.0023636803487357906,0.58839287399236,115.52072807081429
79.0,86.63067794950163,0.002331702832190677,0.5870471343997892,116.46114288889211
80.0,86.37258108254292,0.0022999059487061506,0.5856925311719168,117.39629819223207
81.0,86.10853919473684,0.0022682886508620086,0.5843303554572558,118.32571119792262
82.0,85.83834876283557,0.0022368498380124866,0.5829620497013944,119.2488650223512
83.0,85.56179246714726,0.0022055890188665277,0.5815896775202083,120.16510369305563
84.0,85.27865069027021,0.002174505836912292,0.5802154019902827,121.07374900808459
85.0,84.98870391368409,0.0021435999256218647,0.5788413830559239,121.97412352066868
86.0,84.69173059922468,0.0021128708085423843,0.5774699594838533,122.865509917906
87.0,84.38749538465879,0.002082318583244143,0.5761042096746082,123.74702109520436
88.0,84.07575972647372,0.002051943540452463,0.5747473599417101,124.6177356195395
89.0,83.7562850946623,0.002021745968987006,0.5734026368538083,125.47673202446683
90.0,83.42883119995692,0.0019917260734653003,0.5720734780592582,126.32303985316224
91.0,83.09314721579912,0.0019618844695377478,0.5707639127720492,127.15554209833603
92.0,82.74897938925848,0.0019322219707537376,0.5694780729450952,127.97309449186615
93.0,82.39607427022545,0.0019027393275866371,0.5682201319098464,128.7745439253522
94.0,82.03417331531882,0.0018734374102553114,0.5669945640858222,129.55864840943158
95.0,81.66301170086788,0.0018443174677559774,0.565805970300307,130.3241147005922
96.0,81.28232459512556,0.0018153807444775995,0.5646589632237055,131.06964697194283
97.0,80.89184692455346,0.0017866283926839097,0.5635582144104965,131.79391882517425
98.0,80.49130752729747,0.0017580619840193651,0.5625081392500134,132.49560320866684
99.0,80.08043408671934,0.001729683188313545,0.5615130927107401,133.17337818105594
100.0,79.65895569227031,0.0017014935462791759,0.5605774378453078,133.82591441530425
101.0,79.22660051672563,0.0016734948082860245,0.5597047151732364,134.45198200413788
102.0,78.78309447802124,0.0016456890016322149,0.5588979971634187,135.05041556410418
103.0,78.32816423736907,0.0016180780925583863,0.5581603730648145,135.62004621833083
104.0,77.86154133439972,0.0015906639652405526,0.5574939952355521,136.15984218994814
105.0,77.38295752453341,0.0015634489105576458,0.5568996262442721,136.66898382421607
106.0,76.89214440802488,0.0015364352504159704,0.5563779607906222,137.14666205290007
107.0,76.38883957782099,0.0015096250563496677,0.5559292503480782,137.59213763121755
108.0,75.87278980530138,0.001483020740600112,0.5555513965112973,138.00504280770414
109.0,75.34374245150802,0.001456624901431899,0.5552417711698906,138.3850936577062
110.0,74.80144628609195,0.0014304400718797646,0.5549976827710174,138.73201687783737
111.0,74.24566689418437,0.001404468566610895,0.5548148927376974,139.04578630913042
112.0,73.67617926087961,0.0013787130843486044,0.5546875844085942,139.32662265815375
113.0,73.09275883394282,0.0013531763451919445,0.5546098605250032,139.57475929560871
114.0,72.49519790649116,0.001327860805741213,0.5545749209800249,139.79057038439385
115.0,71.88330799654727,0.0013027692360140272,0.554574501143795,139.97464910246742
116.0,71.25690193242677,0.0012779044815721954,0.5546002018017592,140.12760808485223
117.0,70.61581105673753,0.0012532691118547887,0.554643079439535,140.25013871113563
118.0,69.9598931812107,0.0012288658830495475,0.554693251299575,140.34305920823448
119.0,69.28900982730113,0.001204697607604721,0.5547407154265804,140.40720277681507
120.0,68.60305188136056,0.0011807668648954122,0.5547750468270202,140.44345141655663
121.0,67.90193263350736,0.0011570764858507819,0.5547854896141423,140.45271814543588
122.0,67.18557433043378,0.0011336291640445582,0.5547612293612608,140.43592096141282
123.0,66.45394246131457,0.0011104274718234948,0.5546912939402919,140.3939761840318
124.0,65.70701647034464,0.0010874742070218308,0.5545646945660925,140.32779072520574
125.0,64.94479917947065,0.0010647718511893067,0.554370454016714,140.2382617120458
126.0,64.16734085460723,0.0010423229802429762,0.5540977634054169,140.12623831701939
127.0,63.37469993477392,0.001020130231623441,0.5537358584498799,139.99255890347257
128.0,62.56697967204486,0.0009981958763274307,0.5532741906650971,139.8380209376298
129.0,61.744322318398524,0.0009765224240425592,0.5527025229867049,139.66336627440467
130.0,60.90688220364409,0.0009551122321806313,0.5520106834825819,139.4693267266109
131.0,60.05487720894412,0.0009339673955085464,0.5511889802310777,139.2565661219503
132.0,59.188548406546225,0.0009130902705130428,0.5502279781996771,139.02571244293267
133.0,58.308166374300825,0.0008924828172439945,0.5491184366969984,138.77737212642495
134.0,57.41406858897699,0.0008721470055825794,0.5478517633138735,138.51208012067184
135.0,56.50660488757948,0.0008520849092970409,0.54641951202405,138.2303558225968
136.0,55.58617983701692,0.000832298147490842,0.5448137148468221,137.93267832931716
137.0,54.65331235076846,0.0008127885031261273,0.5430269078140534,137.61948360355925
138.0,53.70987587567422,0.0007935575397539465,0.6045701021794555,68.56729635938389
139.0,52.75490469255085,0.0007746066613741511,0.6289208701499422,50.373762499197156
140.0,51.78897208158408,0.0007559371992616135,0.6358971370001575,44.398294402543826
141.0,50.81269023936197,0.0007375503592445383,0.6380287695823007,40.933735956944986
142.0,49.82671350386085,0.0007194472177596058,0.6377304657108873,38.5500050430459
143.0,48.83173773643606,0.0007016287182767268,0.6359323462065898,36.76266009698605
144.0,47.82849945132233,0.0006840956680872034,0.6331005888183561,35.3502451552155
145.0,46.817774713278915,0.000666848735344102,0.6295061839458999,34.193422974736805
146.0,45.80037774583084,0.0006498884464911849,0.6253228372414216,33.22071032358487
147.0,44.7771592897132,0.0006332151833009058,0.6206699689132101,32.38601880406749
148.0,43.74900468069099,0.0006168291828355422,0.6156341739501571,31.657981719618785
149.0,42.716831713189464,0.0006007305319373033,0.6102809593077229,31.014342463938537
150.0,41.68158820464327,0.0005849191702687228,0.6046616226949213,30.43879053844134
151.0,40.64424922970557,0.0005693948868718933,0.598817537719429,29.919043144444256
152.0,39.60581423710333,0.0005541573193340515,0.5927828821697934,29.44565808096587
153.0,38.567303866218644,0.0005392059540036107,0.5865864925418566,29.011246003379245
154.0,37.529756553566116,0.0005245401265387781,0.5802531453697567,28.60993703721947
155.0,36.494224955521524,0.0005101590221041476,0.5738044625073614,28.237010166613018
156.0,35.46177211631718,0.0004960616744152859,0.5672595698292245,27.88862739670839
157.0,34.433467268868,0.0004822469627789981,0.5606355943749806,27.561636189782824
158.0,33.41038198433807,0.00046871362265478537,0.55394804556075,27.253423028579856
159.0,32.393586900863674,0.0004554602604425808,0.5472110366278036,26.961823839157972
160.0,31.384144818533322,0.0004424853014006278,0.5404375368513357,26.68502034191977
161.0,30.383108971753217,0.00042978704817621106,0.5336396048783348,26.421465521723213
162.0,29.39151955299285,0.000417363704358679,0.5268283662757821,26.16987609594335
163.0,28.410343791573418,0.00046212397020418754,0.5200143013279064,25.929134317545678
164.0,27.441140417187004,0.00141474848923914,0.5132071855192836,25.698296526654808
165.0,26.486826933382435,0.00231535436706673,0.5064162287599278,25.47655151138604
166.0,25.548131390208017,0.0031647300488250514,0.49965011667970466,25.263200696912218
167.0,24.625745970204683,0.003963721343379588,0.49291705496850663,25.057640325684666
168.0,23.72032485082182,0.004713236699352504,0.4862248057721666,24.8593470128337
169.0,22.832480991078523,0.005414251855639248,0.47958071920938805,24.66786514482531
170.0,21.96278516098684,0.0060678096250477865,0.4729917568760988,24.482797302638613
171.0,21.11176336414548,0.006675020235010703,0.4664645152614542,24.303795224293456
172.0,20.279895305460737,0.007237059226350406,0.4600052423017983,24.130552913998976
173.0,19.467613096264532,0.007755164052011413,0.4536198527303806,23.962800607052547
174.0,18.675300112506164,0.008230629781581468,0.4473139410670522,23.800299683625543
175.0,17.903289618736775,0.008664804452372351,0.4410927929210362,23.642838317635533
176.0,17.151866536696364,0.009059080959312958,0.4349613947611037,23.49022800573133
177.0,16.42126338032493,0.009414894324447289,0.4289244422515092,23.3423001957213
178.0,15.711662091770547,0.009733713147657301,0.4229863505013548,23.19890365156341
179.0,15.023194256413088,0.010017032879490264,0.41715126185832013,23.059902206864574
180.0,14.355941910824665,0.010266368768538156,0.41142305341289137,22.925172838474033
181.0,13.709938953747871,0.010483248436953849,0.4058053429604973,22.794604059667247
182.0,13.085169532087264,0.010669207087976028,0.40030149568580453,22.6680944066792
183.0,12.481570706331874,0.010825779954642149,0.3949146334458732,22.54555116868534
184.0,11.899034131136784,0.010954496022015054,0.389647642139741,22.426889340354496
185.0,11.337407750994995,0.011056872267834705,0.3845031790515404,22.312030713227198
186.0,10.796394161376819,0.011493072128916449,0.37948368085256884,22.2009031518352
187.0,10.27714803996179,0.013005591107967628,0.374591366837596,22.0934397715946
188.0,9.78215252194407,0.015491161134225433,0.369828252262384,21.989578446080213
189.0,9.313372778840368,0.01882174687364732,0.36519615452263643,21.889261262833482
190.0,8.872261854742856,0.0228775723210013,0.36069670139191207,21.792434076800202
191.0,8.459807680502927,0.027547094769796786,0.3563313393903439,21.699046122632776
192.0,8.076580295124732,0.032726930205999975,0.3521013422658406,21.609049678652916
193.0,7.722779068106881,0.03832171864538725,0.3480078196053044,21.52239977217384
194.0,7.398278306190401,0.044243954336766166,0.3440517254272103,21.439053925528547
195.0,7.10267156001043,0.05041376340783163,0.3402338669281627,21.35897193192619
196.0,6.835313699742423,0.056758646824040165,0.3365549132075744,21.282115660438873
197.0,6.595360324824681,0.0632132012983569,0.33301540375844085,21.208448887951977
198.0,6.381804133409334,0.0697187900302757,0.32961575727333065,21.13793714620092
199.0,6.193509971086333,0.0762232157094843,0.32635628007239964,21.070547593451305
200.0,6.029243896592873,0.08268035812965603,0.32323717457889906,21.006248896258395
201.0,5.887701868600474,0.08904983558755429,0.3202585471819527,20.94501113432792
202.0,5.767535737064573,0.09529660733633498,0.3174204166762111,20.88680570455457
203.0,5.667372066699403,0.10139060726808105,0.31472272210439045,20.831605241863933
204.0,5.585833578247289,0.10730638825964478,0.31216533000527696,20.779383553364905
205.0,5.521556482118322,0.11302275156233285,0.30974804169949405,20.7301155550756
206.0,5.473205910637562,0.11852209434829605,0.30747060012217303,20.68377721667195
207.0,5.439398156369189,0.12402688553062112,0.30533269780370376,20.640345502039196
208.0,5.419570368353765,0.13041110170612166,0.3033339817865159,20.599798341236223
209.0,5.4153206153090965,0.13850081336931494,0.301474060149424,20.56211458034025
210.0,5.430001606216953,0.1489405005165903,0.29975250763928685,20.527273947649082
211.0,5.4681590404724965,0.1622164424676267,0.2981688709152984,20.49525702144026
212.0,5.53505574014225,0.17867852899637895,0.2967226734752208,20.46604519984252
213.0,5.6362722642040675,0.19856002778532084,0.29541342008821464,20.43962067498755
214.0,5.777380445176717,0.2219959675964377,0.2942406009087481,20.41596640638204
215.0,5.963681443666374,0.24903915649034303,0.2932036950493598,20.39506610107699
216.0,6.200020135252863,0.27967513975974473,0.2923021741868467,20.376904189867723
217.0,6.490623935372128,0.313834761842367,0.29153550499154957,20.36146581149593
218.0,6.839020164497177,0.35140583419256016,0.29090315180398846,20.348736790999904
219.0,7.247980393090636,0.392242827515031,0.29040457862283797,20.338703625391904
220.0,7.719503761162266,0.43617540706543606,0.29003925079565823,20.331353468956717
221.0,8.254828513154466,0.48301578035291504,0.2898066361666443,20.32667411752681
222.0,8.854468467723573,0.5325648579517417,0.28970620595738084,20.324653994920144
223.0,9.518266298813515,0.5846174034141297,0.2897374353422309,20.325282140426825
224.0,10.24545297775869,0.6389663352173783,0.28989980321243525,20.328548197589946
225.0,11.034723772739616,0.6954062177835979,0.2901927921543256,20.334442402720097
226.0,11.884312847354005,0.7537360027394584,0.2906158879374825,20.34295557576754
227.0,12.79206115496429,0.8137689740629648,0.2911685778234299,20.354079108682416
228.0,13.7554120442306,0.8755742218377547,0.2918503494906956,20.367804956920995
229.0,14.771850670992379,0.9398026322824637,0.2926606903034901,20.384125635424173
230.0,15.839740374271218,1.0076048597126364,0.293599084180438,20.40303420481977
231.0,16.95883538997958,1.0804870851573605,0.2946650098737663,20.424524270739635
232.0,18.13038422531885,1.1601861652903387,0.2958579381459915,20.448589973671588
233.0,19.35694890090326,1.24856764102326,0.29717732903816524,20.475225987685914
234.0,20.641977909433642,1.347540572110653,0.2986226289356141,20.50442751391505
235.0,21.989187869072385,1.458989619769627,0.30019326704068516,20.536190279441033
236.0,23.401849105236508,1.584720899617621,0.30188865212867183,20.570510535442118
237.0,24.88198249775004,1.7264215398607416,0.3037081686632834,20.60738505553465
238.0,26.42958698784537,1.8856292018174432,0.30565117299522354,20.64681113956871
239.0,28.04194142807043,2.063713427034868,0.30771698937838626,20.688786612220728
240.0,29.713046610971226,2.2618628186825966,0.30990490576203833,20.733309831039957
241.0,31.43326765502488,2.481080869974651,0.3122141694606807,20.7803796908944
242.0,33.18923266980389,2.722187139061525,0.3146439828310217,20.82999563143778
243.0,34.963996148518824,2.9858223098722636,0.3171934989624476,20.882157648228223
244.0,36.73744687202493,3.2724566676293985,0.31986181712919387,20.936866306187127
