Time,J,A,S,tau,r
0.0,1.0,1.0,0.9683703720740189,8.547008547008547,0.0
1.0,1.1271463823583723,1.3922351094222125,0.9678500197890378,8.76649511695556,0.003977685920669343
2.0,1.4033047952215316,1.7706211520388373,0.9673025321607921,8.998267588068709,0.003944683338762786
3.0,1.807967500433697,2.13561370835618,0.9667282202110311,9.242206590951737,0.00391187058385043
4.0,2.3225535831068616,2.4876517520426766,0.9661274075665434,9.498189418090064,0.0038792535402332063
5.0,2.93026915540212,2.8271592625050066,0.9655004335613652,9.766088384428514,0.0038468397425632274
6.0,3.615964833579955,3.1545459170336567,0.9648476524505201,10.045770977242896,0.0038146368466374565
7.0,4.365992764434792,3.470207315828764,0.9641694320131884,10.337100900286316,0.00378265174514936
8.0,5.168108848405616,3.7745267802468527,0.9634661579638639,10.639935783456178,0.0037508924998364192
9.0,6.011346485866756,4.067873507132514,0.9627382200683474,10.954132199903128,0.003719364747886016
10.0,6.885917823714887,4.350606472205877,0.9619860309539457,11.279539190315536,0.0036880762962607774
11.0,7.783133679561042,4.623071563464423,0.96121000609986,11.616005040754517,0.003657032860888214
12.0,8.713677087340574,4.867214880675542,0.9605796948648585,11.890254533700766,0.0036108252161350155
13.0,9.466092673652383,5.294579119119238,0.9598066580981883,12.231460766694815,0.0036538458672434426
14.0,10.198436726218137,5.75309326399668,0.9594754077439727,12.381260427612512,0.0036365855748176613
15.0,11.020526373090984,6.159906948669227,0.9592142070011307,12.497977434988341,0.003568085064203119
16.0,11.870760532430664,6.5968510628250305,0.9589530825114257,12.614992775149654,0.0035015281711761074
17.0,12.58350253205899,7.222485614525078,0.9586156419224049,12.768399522275109,0.0034758795443069145
18.0,13.129353323745221,7.919403200247266,0.9577429371896805,13.154104778595519,0.0034663177293723477
19.0,13.692960582346517,8.38215770480816,0.9573114869977682,13.349465237610316,0.0034195914236327214
20.0,14.447819476807236,8.515627415341134,0.9570310988052704,13.476492272897092,0.003325172786374839
21.0,15.232560918745287,8.51353924907412,0.9567630072330927,13.597902263354452,0.003222721477141693
22.0,15.744202059983802,8.6717035818142,0.9564236315635153,13.753304054954254,0.003151490493480029
23.0,15.946500933553002,8.993287557136904,0.9554808171564507,14.171511112786874,0.0031035801334382013
24.0,16.194801100036095,9.117464609342278,0.9550527514328587,14.36673630114031,0.003036894533190705
25.0,16.688968847035504,8.883369675143651,0.954770207199885,14.496191149978989,0.0029390821095526595
26.0,17.145835959940346,8.611286716401526,0.9544903346958884,14.624788825444114,0.0028434550470442174
27.0,17.21298903140591,8.634379180674856,0.9540697644972135,14.817561664836882,0.0027769908505573316
28.0,17.03378520820475,8.774720141653882,0.9530688982928055,15.263674565355727,0.002721476877890971
29.0,17.065955300982885,8.592798241771646,0.9527265879134711,15.4223685923157,0.0026447537684927873
30.0,17.29075205122614,8.162587558882242,0.952450036957616,15.550619463042908,0.002552432615309156
31.0,17.273639909502858,7.93445328156091,0.9521357601489573,15.697171986696029,0.002474968522528338
32.0,16.771117905146802,8.10883728379682,0.951166911017999,16.132134457401154,0.0024183404593143974
33.0,16.281006414672525,8.165595476149829,0.9506538143200121,16.367205643313113,0.002355622425877295
34.0,16.18963560260007,7.7738279380340956,0.9503655691340246,16.50251773315317,0.002274720905848879
35.0,16.03585909797029,7.439719577331689,0.9500769212252406,16.638428383844367,0.002197124839242028
36.0,15.395534788617658,7.545814102699018,0.9494959295116443,16.903979145319116,0.0021386113814577576
37.0,14.650877666860893,7.668403736845682,0.9485609984069923,17.32740499751878,0.0020828861241093963
38.0,14.335351663793052,7.316845444057386,0.9482566027292544,17.471732771047627,0.0020126787025342204
39.0,14.157967684660324,6.84315726226817,0.9479779492460016,17.604314429014853,0.0019400809999777884
40.0,13.527583779100498,6.812634900142574,0.9475530463399408,17.80273687248713,0.001882180958938597
41.0,12.711988105540275,6.904950600673879,0.9464547842634202,18.300353693094333,0.0018305674599590459
42.0,12.315218875890567,6.548703247812975,0.9461357437950989,18.452687113664282,0.0017685821873639194
43.0,12.109173344992374,6.033643740318066,0.9458638406773477,18.58345796421832,0.001702316213636941
44.0,11.574837664496137,5.864405141700145,0.9454933107186752,18.759046721379534,0.0016469330588690788
45.0,10.801301233023393,5.901951736259268,0.9443447093267705,19.281602021840712,0.0015985921977799812
46.0,10.360773534457554,5.590200859267083,0.9440147877716079,19.43989163182259,0.0015430606106732808
47.0,10.155690825975258,5.0842726042099065,0.9437503225762685,19.568409321058827,0.0014829987325913352
48.0,9.688650699039144,4.874437847765574,0.9434141708033343,19.72961957429782,0.0014309176025859912
49.0,9.02047953096877,4.854190290816437,0.9422474996209337,20.263104849169842,0.0013856204727758677
50.0,8.591053960477453,4.592043434296474,0.941906097830947,20.42725959615851,0.00133561315055769
51.0,8.391781602167752,4.142515506397233,0.9416507351500236,20.552550830565696,0.001281289888548827
52.0,8.013538051140388,3.914456914489166,0.9413483914173244,20.699326216757996,0.0012325075659743111
53.0,7.424343052488277,3.89839144823013,0.9401952195105078,21.229886720067594,0.0011900833383130013
54.0,7.0118818294423635,3.705751244979779,0.9398234573612774,21.407801692756955,0.0011451497058496598
55.0,6.806277086082231,3.3437307398093483,0.9395779242936929,21.529257227236148,0.0010961714601638085
56.0,6.525113318027993,3.1019413740337196,0.9393129248930849,21.65962839916035,0.0010503933833943314
57.0,6.035174853997425,3.0804944755556813,0.9383193331259393,22.12194599487627,0.00101043363347413
58.0,5.605292210490072,2.9963676050380017,0.9377850236084599,22.372277959486482,0.0009703081810039598
59.0,5.390768581976126,2.7221184491650807,0.9375446570999074,22.491747216432444,0.0009266301367254353
60.0,5.179996809632878,2.486143239995549,0.9373159137478693,22.605779040450734,0.0008836896588083886
61.0,4.82932398756394,2.4121572424253883,0.9369559005895087,22.77782484087819,0.0008453964621720311
62.0,4.422465417528733,2.395175674513647,0.9358317514452226,23.301236628798378,0.000809369038959943
63.0,4.155001058356256,2.2483750948945707,0.9355673801602965,23.43129791440501,0.000771308340344308
64.0,3.99572935479597,2.0253652616883087,0.9353636810027748,23.53374974712194,0.000731871271472546
65.0,3.780433261547104,1.8898006067010371,0.9351458420054651,23.64240265524545,0.0006946024853310629
66.0,3.4770803046935215,1.8545255432628183,0.9346522084534046,23.873815845551864,0.0006607377021587649
67.0,3.174529778082346,1.8208813469844138,0.9336977449805861,24.323258913382098,0.000627874907081674
68.0,2.9724855152315457,1.6988239671200744,0.9334768074338639,24.43290358175742,0.0005936664465994255
69.0,2.840706712268808,1.5330262719210648,0.9333022610331019,24.521266493461447,0.0005587909534752432
70.0,2.684597656915793,1.4176465884709073,0.9331259580402993,24.610060616335836,0.0005252860337394462
71.0,2.48118999314607,1.3642589095724182,0.9328818781880701,24.728464344278496,0.0004941844792697997
72.0,2.2535857780781785,1.340631389799889,0.9318448727420395,25.217249975915212,0.0004646972980388974
73.0,2.061095765516169,1.2877100027270256,0.9315505647914788,25.357464450772103,0.00043524154382925697
74.0,1.9297463047641648,1.1877538467200208,0.9313899921811319,25.438003647052398,0.00040522058176616077
75.0,1.8278385051860846,1.0784768603533497,0.9312581741826426,25.505073218857905,0.0003751874274578786
76.0,1.7260421323749715,0.9882958010252084,0.9311337795879979,25.568290835341237,0.00034598260723542605
77.0,1.610320064627554,0.9266393778831703,0.9310017082895945,25.634432582109593,0.00031813857812700784
78.0,1.4760208233991432,0.8925162970435814,0.9308295988373502,25.71759655618761,0.0002916584309937459
79.0,1.340271811868848,0.8654636348033169,0.930275381995691,25.97951692731082,0.00026619751407924594
80.0,1.2184710960513565,0.8303496083358999,0.9296681174361617,26.268599376907275,0.00024129115454553206
81.0,1.1145376768834308,0.7851211911496131,0.9295192359463829,26.340070210029914,0.00021664923305948183
82.0,1.0256924877033629,0.7341380786755358,0.929425646375419,26.386461424113207,0.0001922329238729995
83.0,0.9508894688584763,0.6794881497494287,0.929356290104332,26.42139425343831,0.00016813517306338424
84.0,0.8851464403572521,0.6264509015273139,0.9293025544313891,26.448681657632676,0.0001444844407233684
85.0,0.8234867795446751,0.5792093035286839,0.9292611454499577,26.46977530503765,0.00012136670234267976
86.0,0.7657769815630759,0.5368707378024938,0.9292307361510124,26.485288549948788,9.88386347150705e-05
87.0,0.7114621933967874,0.4991113385123996,0.9292109447819367,26.495365124140704,7.692548959181314e-05
88.0,0.6590894183233874,0.4664468327528583,0.929201766045453,26.500029647069645,5.562588445911268e-05
89.0,0.6086398529582343,0.43799525006804857,0.9292033393034577,26.499210425186416,3.493562558049764e-05
90.0,0.5610050928792455,0.41216493532468795,0.9292157676637174,26.492857745136416,1.4840599733521829e-05
91.0,0.5161367532177928,0.38857024958857184,0.929239286186712,26.48087542154144,-4.65680239048186e-06
92.0,0.47335245414158494,0.3674376912200535,0.9292743390320196,26.463056325947292,-2.356383648717869e-05
93.0,0.43248968404742577,0.34849103898863676,0.9293218913611174,26.438977614039402,-4.188407463387856e-05
94.0,0.3938036066635397,0.3311317643160008,0.9293846775218495,26.407417759182295,-5.962497266151501e-05
95.0,0.3573443889417014,0.3150679499826214,0.9294694678610388,26.365397285005145,-7.680986032024158e-05
96.0,0.3232129586448947,0.3000558231840194,0.9295981882743298,26.303289386056566,-9.347631427070245e-05
97.0,0.2918530812519145,0.28563112228657717,0.9299606218998943,26.133817532465105,-0.0001096535435398506
98.0,0.2633834681451044,0.2716287604563205,0.9308178882476859,25.72065469046253,-0.00012535330224309912
99.0,0.23697086603818415,0.25868633618355225,0.9310132099778211,25.627053209965315,-0.00014050903900864205
100.0,0.2116514287530673,0.24735343738320545,0.9311583974474626,25.554884421118413,-0.00015504629196417294
101.0,0.18721373619595175,0.2373858765459404,0.9312978057624779,25.484703706292407,-0.00016896199960717606
102.0,0.1647197319657055,0.22752221466696262,0.9314550827393965,25.405982477652035,-0.00018238423632180008
103.0,0.14577119429605262,0.2163681766677344,0.9316939029287434,25.29067675434681,-0.00019551526180812325
104.0,0.13044755321947507,0.20424144979509679,0.9328572710298983,24.736121768507743,-0.000208370052318358
105.0,0.11491960914914921,0.1948552893714868,0.9331513292234281,24.595564717859045,-0.00022053012887568872
106.0,0.09798557005545329,0.1886828949846512,0.9333521783633442,24.4955511907606,-0.00023181443587951415
107.0,0.08267131301562301,0.18228988600307128,0.9335685116910678,24.388191367453743,-0.00024259594395436348
108.0,0.07236482469776077,0.17268326347831442,0.934111370817217,24.1334017804351,-0.00025335981347551263
109.0,0.06406537291852087,0.16330240413347671,0.9351674736463186,23.62913982648371,-0.00026370183859367554
110.0,0.053275428043719444,0.1581146875595129,0.9354194481630005,23.50506717564624,-0.0002729180684560808
111.0,0.043266769453206254,0.15329896028111895,0.935677033530695,23.378130130536743,-0.0002815515799146009
112.0,0.038080427511458806,0.145193379200511,0.9368382798796908,22.826654108597182,-0.0002903852801207231
113.0,0.033066795488425865,0.13873019916756735,0.9373548148055796,22.584635765892276,-0.0002985273200708036
114.0,0.025525557903579705,0.13599899397868856,0.937625449968267,22.451487067574117,-0.00030537363343250226
115.0,0.02094827847783968,0.13131629022802166,0.9380028047058364,22.27113152884356,-0.000312194290221265
116.0,0.019585667083771643,0.12494504621106471,0.9393365698695636,21.645264794357594,-0.0003190644015054387
117.0,0.015242758176721171,0.12286666647533187,0.9396484798665848,21.493751426666222,-0.0003243498463075214
118.0,0.011236568598563734,0.12127522441963945,0.9399806206867012,21.33313244970243,-0.0003291251737187431
119.0,0.011323678635886535,0.11685470413312733,0.9413548375160027,20.692568426196086,-0.0003343868685903416
120.0,0.008812215197920428,0.1163765829990063,0.9417168290246605,20.51924740461104,-0.0003380690415798674
121.0,0.005806534567001871,0.1172188440535472,0.9420448597323665,20.360765385891398,-0.0003407726424199226
122.0,0.007932137071783819,0.11412825935777852,0.9434009101951911,19.73162138064827,-0.00034421711363068994
123.0,0.008757820266461713,0.1138073834933327,0.9438140148744846,19.536468213234755,-0.0003461308526842252
124.0,0.007900585016281282,0.11616195567472284,0.9441439843476536,19.37780183950113,-0.00034662998766789353
125.0,0.011995225569285199,0.11489865080555259,0.9454504805192253,18.774211915011488,-0.0003480252597527544
126.0,0.01582801326677464,0.11564580020009198,0.9459250396943868,18.55302372293467,-0.0003479731339571442
127.0,0.01787974724580382,0.11953657371270894,0.946255543695883,18.395087761382364,-0.0003459673951222473
128.0,0.02483376556306564,0.12020501256967452,0.9474178293162254,17.859354264275144,-0.0003449323937632301
129.0,0.03287913533511457,0.12207980920142174,0.9480344333301127,17.576486349408412,-0.0003426759483522072
130.0,0.038820962788681745,0.128193288658642,0.9483639226585253,17.42018517185514,-0.0003376913664010044
131.0,0.049675613736073786,0.13195648474023752,0.9489900471082727,17.133581146095903,-0.00033343283585562423
132.0,0.06380170978050188,0.13611294537757468,0.9501246916448379,16.615072518921007,-0.00032839694181771594
133.0,0.07577290019141404,0.14733000283061473,0.9504574646313803,16.458589072621365,-0.0003190296164562225
134.0,0.09298895878314992,0.15899619687584982,0.9508677189637096,16.26792017474025,-0.0003091381529026136
135.0,0.11741036288798877,0.16844556400256683,0.9521648302851375,15.682707880759047,-0.0003004639670799058
136.0,0.14172999013248924,0.18264047936500433,0.9525245042748091,15.515435264582312,-0.0002887396801886069
137.0,0.16933479591649409,0.1983108648604502,0.9528608925837232,15.358932922136896,-0.000275916198810672
138.0,0.20670431394776506,0.2097513348736787,0.9539778221181624,14.856016740480346,-0.0002658200546677492
139.0,0.2489571814526425,0.22273790750354172,0.9545444781919168,14.599707778292132,-0.0002545698880622553
140.0,0.29178397124449185,0.24185410469720517,0.9548610807531444,14.453611444336913,-0.0002396689038635053
141.0,0.3434465038557685,0.2595329694256741,0.9552353797473961,14.28161683051194,-0.00022589413628774007
142.0,0.40771815792876515,0.27342097783091124,0.9564314082919503,13.749347077165032,-0.0002144997657356945
143.0,0.4763572323470192,0.2930472250568012,0.9568232119287344,13.570527711152645,-0.00020015961992913748
144.0,0.5488200360837909,0.31957873977035123,0.9571256780701093,13.432496239364836,-0.00018238133935062466
145.0,0.6350026943162723,0.3445643611130488,0.9575003110108348,13.261746782707217,-0.00016644395839301098
146.0,0.7395190848707185,0.36634754285116095,0.9586195663015996,12.766746976036599,-0.0001528511071611714
147.0,0.85280863783707,0.3971800422025475,0.9590079871728572,12.590608845630427,-0.00013615586826939215
148.0,0.9712066070248111,0.44293550373163904,0.9592968006762856,12.460112546151022,-0.00011520258178556791
149.0,1.110225491604275,0.49158424540521967,0.9596130617796853,12.316906504786349,-9.4971179305263e-05
150.0,1.2837911856232893,0.5350956015486287,0.9604217462852254,11.958867351106992,-7.805016763771693e-05
151.0,1.4865076143458638,0.5857560522102092,0.961068230156111,11.671872084531206,-6.015943545568746e-05
152.0,1.7073977349663443,0.6596825770553137,0.9613621041992572,11.539470608771367,-3.708105143314163e-05
153.0,1.9565686179930304,0.7516181646828131,0.96162996194955,11.419766481839742,-1.1228286057718672e-05
154.0,2.259517807630424,0.8452064609531579,0.9619451697507305,11.277736018176851,1.2629573474697113e-05
155.0,2.6379999016515585,0.9325594214055297,0.9627288173754153,10.932555536225838,3.349017718106236e-05
156.0,3.0854819149478123,1.0342285882857642,0.9632744534606079,10.690103919979062,5.577338395498267e-05
157.0,3.587407644272563,1.1772524916568705,0.9635517875707265,10.565593565309452,8.34543403333144e-05
158.0,4.15668280778353,1.3623489239870996,0.9637955837383674,10.45744466640345,0.00011480532026626072
159.0,4.835828627627367,1.5669702412082938,0.9640534146267886,10.342444316886082,0.00014587452798005707
160.0,5.67251184183122,1.7741635127270994,0.96441207167845,10.18104575216914,0.0001736956671783202
161.0,6.695831148287765,1.9963748245709845,0.9651744839916052,9.84653158648788,0.0002001701540256324
162.0,7.90775661364851,2.276537077802519,0.9655408093064243,9.68154134784522,0.00022949101879005265
163.0,9.304364216143922,2.6599175479725576,0.9657836227675209,9.572797695128907,0.0002643800710746823
164.0,10.932308495490114,3.147040910381911,0.965999295123904,9.477373785771187,0.00030277491179491893
165.0,12.86177361917153,3.736444742159347,0.9662178238730561,9.380431553873532,0.0003418720242268888
166.0,15.231510942295724,4.386535995998468,0.9664721731662866,9.265892498413654,0.00037901695621617143
167.0,18.18618379902762,5.073636031852359,0.9668788200386951,9.083355248335081,0.0004134380947825364
168.0,21.79709813310802,5.859120784597804,0.9674555861910373,8.828165213126347,0.00044800299929988473
169.0,26.09281219571116,6.856683665607574,0.9677483695704895,8.69490676211378,0.0004859651764460716
170.0,31.10013381189254,8.200357350691865,0.9679603494801378,8.599323199871748,0.0005291565361716758
171.0,36.94808444764106,9.950596177053264,0.9681459971690721,8.516621108425383,0.0005757348834116846
172.0,43.86518169072435,12.09841888757052,0.9683249583079423,8.437051591926583,0.000623810734078362
173.0,52.10132432280337,14.642108024740454,0.9685121256854939,8.353186118164679,0.0006721154595468077
174.0,61.914326945776565,17.59737025533776,0.9687276550366802,8.255141305684333,0.000718904791612412
175.0,73.6004395651192,20.95726095374043,0.9690228506594052,8.120228519765092,0.0007634442923133292
176.0,87.24846661911701,24.893631921205845,0.9694583071980688,7.9247544145154185,0.000807667337843115
177.0,102.68382726919641,29.740818098004702,0.9697697807065175,7.7822155506883295,0.0008538128603869821
178.0,119.39243160363198,36.02818728872186,0.969977213850562,7.686470449207323,0.0009040588375216083
179.0,136.8643379453463,44.12886192452802,0.9701453513548174,7.609738721865712,0.0009583315293689533
180.0,154.7740276680861,54.06039145319655,0.9702948194901505,7.542062591697016,0.0010148156362435965
181.0,172.45833432374215,65.95561623478325,0.9704360145876463,7.478245795574411,0.0010724288053460525
182.0,188.77666459095332,80.18142286359763,0.9705764830559188,7.4145774631383485,0.0011308730787226366
183.0,202.465035524823,97.03909147679464,0.9707234024740591,7.347522179620149,0.0011898046332587584
184.0,212.50691862816046,116.52039053118989,0.9708856146941832,7.272671051853475,0.0012482689428999938
185.0,218.53809395496026,138.0793172094854,0.9710776125285305,7.183119458309116,0.0013052021273094701
186.0,220.48867114816954,161.16373832182552,0.971325338697407,7.067909836114393,0.0013609241547365633
187.0,217.95736741207202,185.91853008152034,0.9716139566972818,6.934720572528465,0.0014168367577085355
188.0,210.3592239104438,212.9905777149391,0.9718458120265318,6.82623082526308,0.0014742794203499983
189.0,197.82406902738876,242.4913339980382,0.972019306742752,6.744433040786399,0.001534555315521953
190.0,183.25015934063865,271.7570755186051,0.9721608151915447,6.678100625373313,0.0015978266693290088
191.0,169.24652212917064,298.35013718460493,0.9722834352855121,6.620962529373658,0.0016629053283999642
192.0,156.77424687955897,321.49717946834284,0.9723942008605397,6.5694607580240865,0.0017286685572245426
193.0,146.11246889334484,341.12207166417096,0.9724977198257618,6.521303746258434,0.001794673159894659
