Time,J,A,S,tau
0.0,100.0,100.0,0.690695023363445,24.4300929645208
1.0,98.21978061002049,95.92348510766678,0.6891352910783728,24.39274721071881
2.0,96.45934045578963,92.0039699426324,0.6875164762896627,24.35401866487328
3.0,94.72017685471309,88.23872809581015,0.6858408772394438,24.313959372628428
4.0,93.0023124556752,84.62194998577608,0.6841090591318661,24.272579936491383
5.0,91.30576790975695,81.14810026874842,0.6823216248941366,24.22989137335185
6.0,89.63055798846337,77.81179851585703,0.680479219945814,24.185905159854997
7.0,87.9766941627914,74.60782641334035,0.6785825239286786,24.1406331463948
8.0,86.34418833760516,71.5312292574215,0.6766322578306089,24.094087642660114
9.0,84.73305108790255,68.57714529395618,0.674629179541307,24.046281361944
10.0,83.14329961867114,65.74093631881229,0.6725740817057051,23.997227409487714
11.0,81.5749655752719,63.018130646576566,0.6704677973761091,23.946939345202818
12.0,80.02810032386935,60.40436897082282,0.6683111915831472,23.895431090917594
13.0,78.50279918211248,57.89552141623618,0.6661051661076729,23.842716997099703
14.0,76.99922274939091,55.48754692291658,0.6638506577624179,23.788811819399683
15.0,75.517615529273,53.17656744279774,0.6615486336558187,23.73373067495023
16.0,74.05838331158115,50.95887465847211,0.6592000971071584,23.677489119646744
17.0,72.62211002167842,48.83083801279312,0.6568060803394757,23.62010306139388
18.0,71.20965325912883,46.78901807511051,0.6543676463829726,23.5615887995452
19.0,69.8222606009586,44.83006542775902,0.6518858896255968,23.501963033353388
20.0,68.46158348515266,42.950747295377504,0.6493619297731683,23.44124279577588
21.0,67.12994995632857,41.14799104878855,0.6467969166007526,23.379445529836122
22.0,65.83037152890677,39.41878405185378,0.6441920247186472,23.31658902133136
23.0,64.56678862632266,37.76028659763756,0.6415484533682025,23.252691417372873
24.0,63.34413738916701,36.1697023868142,0.6400060002180881,23.217194340602394
25.0,62.16857995580212,34.64435830185676,0.6388123677738372,23.190743409396276
26.0,61.047663653691664,33.18168663960192,0.6376328828521777,23.164695746748812
27.0,59.99041568703625,31.77921776824206,0.6364680073427744,23.139057602613963
28.0,59.00751240408597,30.434575585692098,0.6353181983609464,23.113835082877205
29.0,58.111322993258376,29.145470461496682,0.6341839080103256,23.089034151054143
30.0,57.31589117934907,27.90969747914938,0.6330655832408295,23.064660631593956
31.0,56.63697934918879,26.725137830617406,0.6319636654107041,23.040720205518628
32.0,56.09197021511589,25.589758022618017,0.6308785900870186,23.01721841239465
33.0,55.69972124883768,24.501608988533828,0.6298107867697855,22.994160650231876
34.0,55.480356181629375,23.458828129830028,0.6287606786303969,22.971552175662573
35.0,55.454991469298236,22.459643973323267,0.6277286822546053,22.949398104159417
36.0,55.64540242959337,21.50238467244267,0.6267152073868708,22.92770341022573
37.0,56.07361927291496,20.585490608534414,0.6257206566837701,22.906472927711544
38.0,56.76146882906723,19.707533384962016,0.6247454254751392,22.885711350199287
39.0,57.73006212411147,18.867242314447836,0.6237899015274715,22.86542323135517
40.0,58.99922405690275,18.063539416153823,0.6228544648134224,22.84561298531999
41.0,60.58686452289619,17.295584070526925,0.6219394872871813,22.826284887128253
42.0,62.508286732382544,16.56282796628783,0.6210453326658752,22.8074430731537
43.0,64.77542615892953,15.865079341611768,0.6201723562288763,22.789091541758
44.0,67.39598093675723,15.202579582920842,0.619320904573303,22.771234153191763
45.0,70.37248911552096,14.576068685070938,0.6184913156056879,22.753874632943
46.0,73.70181261777721,13.98693629636977,0.6176839177600546,22.737016563619296
47.0,77.37329405758989,13.437217619492793,0.6168990306206811,22.720663397415215
48.0,81.36826169547298,12.929737138747345,0.6161369642268396,22.704818449068238
49.0,85.65918677451185,12.468168349681124,0.6153980190845559,22.689484899108358
50.0,90.20835812368408,12.057095306914176,0.614682485901652,22.674665793034137
51.0,94.96761852466804,11.702057584237917,0.6139906454697734,22.660364042552363
52.0,99.87785727652972,11.409558911311128,0.6133227685360443,22.646582426464438
53.0,104.86879127703519,11.187051188097863,0.6126791156329898,22.633323590939295
54.0,109.85923070849495,11.042883732265151,0.6120599369640594,22.620590050442143
55.0,114.75742018149039,10.986216000058304,0.6114654722469073,22.608384188015215
56.0,119.46188904062092,11.026894878697599,0.6108959505843038,22.596708255864538
57.0,123.86265500807387,11.17529089524444,0.6103515903787871,22.58556437636127
58.0,127.843165133689,11.442104307850908,0.6098325992270263,22.574954542700713
59.0,131.28337389112596,11.838138785932207,0.6093391738062961,22.564880619378428
60.0,134.0647301896132,12.374051291407861,0.6088714997521243,22.555344342521796
61.0,136.076988857452,13.060075468520596,0.6084297516075726,22.546347320941408
62.0,137.2266858126195,13.905725239488946,0.6080140927508166,22.53789103683274
63.0,137.44630035654498,14.919475446309246,0.6076246753206738,22.529976846362644
64.0,136.70255364082814,16.1084205749867,0.6072616401226095,22.522605979978678
65.0,135.00139706958655,17.477912636166025,0.6069251165735777,22.51577954307603
66.0,132.38796700838952,19.031179593935725,0.6066152226874397,22.509498517001354
67.0,128.94140601574063,20.76889741418623,0.6063320649903537,22.50376375921307
68.0,124.76512615519191,22.68876157817098,0.6060757385710972,22.498576004769795
69.0,119.97510036884137,24.7849878151965,0.6058463269330229,22.493935865683078
70.0,114.68829290823062,27.047877806537283,0.6056439020306948,22.489843832149745
71.0,109.01407927586473,29.463373145850348,0.6054685242930895,22.486300273492986
72.0,103.04934002080674,32.012636518653345,0.6053202425311514,22.48330543785812
73.0,96.87748651862717,34.67177863971481,0.605199093990563,22.480859453350956
74.0,90.57025193105349,37.41168646791076,0.6051051043835971,22.478962328823027
75.0,84.19088339997532,40.19796224418724,0.6050382878170927,22.477613953556073
76.0,77.79776566566342,42.99107694293963,0.6049986468798307,22.476814098499272
77.0,71.44750278954362,45.746632780412945,0.6049861726775166,22.476562416847507
78.0,65.19720526380101,48.41573823424843,0.6050008447866532,22.47685844376497
79.0,59.10583560928645,50.945622099797085,0.6050426313706811,22.477701597667167
80.0,53.23460835838546,53.28052027149176,0.6051114892176113,22.479091180594757
81.0,47.646390385400245,55.36307803958289,0.6052073637144244,22.481026377923122
82.0,42.40392897526638,57.13658133704853,0.605330189025635,22.483506260026246
83.0,37.56678543084915,58.54823216220307,0.605479888052043,22.48652978163542
84.0,33.18710104030033,59.553381428434875,0.6056563725770416,22.490095783061843
85.0,29.304460119604688,60.12051311542102,0.6058595432724764,22.494202989880435
86.0,25.9410339031821,60.23581411870821,0.6060892898724909,22.49885001425845
87.0,23.097660942802147,59.90667245059507,0.6063454911183912,22.504035353897986
88.0,20.75291286877927,59.16219037845443,0.6066280150217719,22.509757394141538
89.0,18.86472270095779,58.051132884963636,0.6069367188541783,22.516014407166697
90.0,17.375334929272597,56.63663662098842,0.6072714492924322,22.52280455277863
91.0,16.218137292791,54.98919236837369,0.6076320425181576,22.530125878624837
92.0,15.325035144145007,53.17925816734592,0.6080183243402644,22.537976320574142
93.0,14.632838214600264,51.27101821185469,0.608430110317006,22.546353703033276
94.0,14.087639277615791,49.318273816283806,0.6088672058805733,22.55525573921573
95.0,13.646847096681027,47.36275155034639,0.6093294064762895,22.564680031501695
96.0,13.279203363957878,45.43444655489727,0.6098164977013546,22.5746240717268
97.0,12.963465643881054,43.55328298467796,0.6103282554416407,22.585085241379577
98.0,12.68646753764608,41.731356532208096,0.6108644460422109,22.59606081211326
99.0,12.44119052908803,39.975126085961996,0.6114248264263331,22.607547945607358
100.0,12.225077659544656,38.287299140705095,0.612009144369294,22.619543695165287
101.0,12.038940660700163,36.66818930532803,0.6126171382881963,22.63204500155274
102.0,11.88597173476233,35.11674314569788,0.6132485379939592,22.645048700139952
103.0,11.771388226905321,33.63110731496941,0.6139030644170653,22.658551515767027
104.0,11.702101362608229,32.20903457475777,0.6145804299893266,22.672550065489144
105.0,11.686590374609727,30.84810227351603,0.6152803387530704,22.687040857880767
106.0,11.73483278866027,29.545842137953827,0.6160024865395711,22.702020293136044
107.0,11.85824993738423,28.299809955446843,0.6167465611941626,22.7174846637349
108.0,12.069642089767632,27.107620857567984,0.6175122427865269,22.733430154870646
109.0,12.383133644625781,25.966972325305537,0.6182992037490012,22.74985284382513
110.0,12.814056533640423,24.87565428837337,0.619107109143301,22.766748701091917
111.0,13.378805826542111,23.831555657453894,0.6199356168217262,22.78411358992079
112.0,14.094667903060937,22.83267194904484,0.6207843776620483,22.801943266913128
113.0,14.979576004704384,21.877111109583602,0.6216530357786766,22.82023338219825
114.0,16.05186902676465,20.96310685530178,0.6225412287210595,22.83897947936433
115.0,17.329956604834504,20.08903168365297,0.6234485877296008,22.858176996277706
116.0,18.831988508204134,19.25342061158008,0.624374737910074,22.87782126448707
117.0,20.575445350926586,18.454995678619063,0.6253192985131699,22.897907510414665
118.0,22.57668832769955,17.69270105086073,0.626281883109997,22.918430854635858
119.0,24.850472034851272,16.96573977995757,0.6272620998687339,22.939386313007844
120.0,27.409361334072283,16.273618442262535,0.6282595517584147,22.96076879638002
121.0,30.263125333020486,15.6161970121799,0.6292738367853351,22.98257311087294
122.0,33.41803227449242,14.993739385060767,0.6303045482460198,23.004793958535775
123.0,36.87606294985454,14.406975113725826,0.6313512749245124,23.02742593662063
124.0,40.634135231386225,13.857147174104327,0.632413601397222,23.050463539506428
125.0,44.68336791131259,13.346079005341476,0.6334911082181789,23.073901157609214
126.0,49.007799653005655,12.876209423811128,0.6345833721896641,23.097733078581758
127.0,53.58394474317701,12.450652045238533,0.6356899665874408,23.121953487017308
128.0,58.37976558118765,12.073215705568057,0.6368104614198058,23.146556465456264
129.0,63.354195871593056,11.748434333281239,0.6379444236540907,23.17153599411627
130.0,68.4566623531615,11.481567729297275,0.639091417467083,23.196885951503848
131.0,73.62685150830251,11.278582059770747,0.6402510044974445,23.222600115291524
132.0,78.7946773310079,11.146119256255856,0.6414227440726695,23.24867216212653
133.0,83.88076098217479,11.091444628266842,0.6426061934555594,23.275095668094227
134.0,88.79713981872739,11.122364816266344,0.6438009080951819,23.301864109814222
135.0,93.44845040049421,11.24713377434151,0.645006441854449,23.328970864231724
136.0,97.73406577999172,11.47433763263862,0.6462223472568436,23.35640920943493
137.0,101.55095839329091,11.812754702016182,0.6474481757245127,23.38417232553559
138.0,104.79803018744258,12.27120426535996,0.6486834778085118,23.41225329449655
139.0,107.38171881929152,12.858376231393796,0.6499278034295117,23.440645101383414
140.0,109.2224890431406,13.582637514390518,0.6511807021051204,23.469340634927313
141.0,110.26204492750976,14.451824488306725,0.6524417231817459,23.498332687625314
142.0,110.46919890965829,15.47301533154766,0.6537104160617953,23.527613957141277
143.0,109.8437016347621,16.652272681950347,0.6549863304266662,23.557177046719953
144.0,108.41659601964736,17.994360983419174,0.6562690164587558,23.587014465891958
145.0,106.24656455038043,19.502441040895892,0.6575580250666139,23.61711863114088
146.0,103.41272591715591,21.17771077280218,0.6588529080847356,23.647481867141853
147.0,100.00559317093764,23.019047897011756,0.6601532184986549,23.678096407289132
148.0,96.11788926805608,25.022614568932426,0.6614585106434655,23.708954394916876
149.0,91.8370811167238,27.18143291874758,0.6627683404130899,23.740047883847005
150.0,87.24073471036627,29.48498377412179,0.6640822654633212,23.77136883941711
151.0,82.39509107098371,31.918835096024868,0.6653998453980862,23.80290913983943
152.0,77.35609253862286,34.464304061374634,0.666720641961175,23.834660577096972
153.0,72.17198358750082,37.0981804293016,0.6680442192354104,23.86661485770429
154.0,66.8865495524615,39.79258741264136,0.6693701438130931,23.898763604268368
155.0,61.54208918445408,42.51494475282267,0.670697984968239,23.93109835672342
156.0,56.18177910412773,45.228043149765774,0.6720273148415978,23.96361057317545
157.0,50.85126689130135,47.89030275346359,0.6733577086063585,23.99629163132722
158.0,45.599470439324364,50.45623248823492,0.6746887446186819,24.029132830048063
159.0,40.47868135780836,52.87714252518071,0.6760200045783424,24.062125390518894
160.0,35.54397138769831,55.102222419588074,0.6773510736882522,24.09526045762255
161.0,30.851842803754753,57.08016714984273,0.6786815407896647,24.12852910153786
162.0,26.458092398690887,58.76141796313176,0.6800109985072995,24.161922319204447
163.0,22.41483640632676,60.10112912031703,0.6813390433832242,24.195431035857247
164.0,18.766872053804136,61.062671760906156,0.6826652760030972,24.229046106722414
165.0,15.547728550348413,61.62134841695779,0.6839893011195917,24.262758318669487
166.0,12.776004938318271,61.76772637654191,0.6853107277725287,24.296558391884194
167.0,10.452793707158957,61.50980646490665,0.6866291694026462,24.330436981646077
168.0,8.56095189579369,60.87332777609364,0.6879442439447692,24.36438468030012
169.0,7.066491122780527,59.89996358927072,0.6892555739388405,24.398392018995132
170.0,5.922175756205695,58.643387970097336,0.6905627866187932,24.43244946970044
171.0,5.072635280775574,57.16394885479462,0.6918655140013363,24.466547447191356
172.0,4.460051787928071,55.52290890253082,0.6931633929684667,24.50067631110536
173.0,4.029359102302384,53.777315874348524,0.6944560653432527,24.534826368055782
174.0,3.7321198152046997,51.97630769076315,0.6957431779601312,24.56898787380777
175.0,3.5286843105220354,50.15920754160939,0.6970243827294004,24.603151035507544
176.0,3.388699211606922,48.35529735698984,0.698299336696321,24.63730601396772
177.0,3.290368155264887,46.584830716540765,0.6995677020939005,24.67144292601866
178.0,3.219009473805225,44.860717247793055,0.7008291463916249,24.70555184690415
179.0,3.16540109354364,43.19037909692652,0.7020833423349664,24.739622812762978
180.0,3.1242660061422503,41.57742756407327,0.7033299679816017,24.773645823150954
181.0,3.093068450770238,40.02299773944681,0.7045687067417741,24.807610843565207
182.0,3.0711495888456843,38.5267204359497,0.7057992473857463,24.84150780820057
183.0,3.059186801143066,37.08736591459082,0.7070212841030592,24.875326622492597
184.0,3.05885929725606,35.70324821198,0.7082345164580616,24.90905716607448
185.0,3.0727035760780685,34.37246811650346,0.7094386494569911,24.94268929541474
186.0,3.1040491113406468,33.09304950827838,0.7106333935165483,24.97621284682046
187.0,3.157023950129385,31.863014350043645,0.7118184644801069,25.00961763931775
188.0,3.2365912811595825,30.680422844870066,0.7129935836175977,25.042893477651628
189.0,3.3485935698011753,29.543391562151122,0.7141584776097153,25.076030155347386
190.0,3.499803344053805,28.450103469519632,0.7153128785338964,25.10901745782819
191.0,3.697968072898898,27.398811358525442,0.7164565238574035,25.141845165573955
192.0,3.951838432566249,26.387838080583613,0.7175891564105871,25.174503057356354
193.0,4.2711832052785885,25.415576292837212,0.7187105243568591,25.20698091351875
194.0,4.666783346024734,24.480487175097785,0.7198203811713295,25.239268519311153
195.0,5.150406083819932,23.58109999088455,0.7209184856055921,25.271355668288923
196.0,5.734752864063281,22.716011860220355,0.7220046016518388,25.303232165758306
197.0,6.433382356838132,21.883888737877793,0.7230784985034603,25.334887832277214
198.0,7.2606067387871915,21.083467878154906,0.7241399505124122,25.366312507208306
199.0,8.2313603119617,20.31356217577496,0.7251887371434191,25.397496052322843
200.0,9.361039742030181,19.573066757154056,0.7262246429253082,25.42842835545495
201.0,10.66531390822379,18.860968076789764,0.7272474573985312,25.459099334195827
202.0,12.159906090791369,18.176356228368462,0.7282569750645536,25.489498939672433
203.0,13.86033619992792,17.518440033179385,0.729252995326173,25.519617160321012
204.0,15.781635732149528,16.886566001505027,0.7302353224235916,25.54944402567579
205.0,17.93801352923336,16.280241945084615,0.7312037653921237,25.578969610440204
206.0,20.34248338217053,15.699162662788634,0.7321581379682486,25.608184038085813
207.0,23.00642517110931,15.1432428842274,0.7330982585614614,25.63707748522197
208.0,25.9391208998137,14.612651670478385,0.7340239501592495,25.66564018528995
209.0,29.147198443381836,14.107850561180854,0.7349350402638639,25.69386243260743
210.0,32.63403535190166,13.629633142399822,0.7358313608104854,25.721734586176012
211.0,36.39908324060413,13.179184386078715,0.7367127482072168,25.74924707586157
212.0,40.43716799057097,12.758100718088022,0.7375790430808098,25.776390403317343
213.0,44.73792261159793,12.368447947947509,0.738430090289165,25.803155147597106
214.0,49.28462469412069,12.012794614602802,0.7392657388921424,25.82953196990734
215.0,54.053851422045845,11.694254832123338,0.740085842024443,25.855511617222067
216.0,59.01463341120707,11.416512942601688,0.7408902568367083,25.881084926585615
217.0,64.12798687137472,11.183849062823468,0.7416788444196261,25.906242829466443
218.0,69.34647968465912,11.001149639819769,0.7424514697269866,25.93097635592979
219.0,74.6140379050917,10.873909787905344,0.743208001502433,25.955276638998967
220.0,79.86588271036308,10.808216221799006,0.7439483121968193,25.979134918566572
221.0,85.02890146506316,10.810729729100787,0.7446722779173758,26.002542546577406
222.0,90.02241179811057,10.888639875101063,0.7453797783246174,26.025490990416007
223.0,94.75930520435496,11.049609307672059,0.7460706965715871,26.047971837510904
224.0,99.14807478272888,11.301707058840737,0.7467449192402598,26.06997680013141
225.0,103.09564705116549,11.653318705883208,0.747402336246451,26.091497718787583
226.0,106.51119474596877,12.113043914926024,0.7480428407858185,26.112526567101376
227.0,109.31116987629025,12.689581235705528,0.748666329263517,26.133055456290336
228.0,111.42479286223723,13.39159125118059,0.7492727012073953,26.153076638553003
229.0,112.79983559315897,14.227542263377611,0.7498618592200148,26.17258251218185
230.0,113.40751569829177,15.205541099670924,0.7504337089028985,26.19156562553114
231.0,113.24531765656667,16.333140728563137,0.7509881587848107,26.210018680847416
232.0,112.33713736311913,17.617118637222923,0.7515251202660378,26.227934538677616
233.0,110.73023220360999,19.063235713713272,0.7520445075564476,26.245306222380968
234.0,108.48920708475224,20.67595829737948,0.7525462376100308,26.262126921730793
235.0,105.68840922467585,22.458150284343972,0.7530302300666949,26.278389997060266
236.0,102.40413314020215,24.410729843107717,0.7534964071951574,26.29408898325999
237.0,98.70814306347445,26.532293525858417,0.7539446938378157,26.309217593726334
238.0,94.66353725449655,28.81870760924679,0.7543750173577033,26.323769724254426
239.0,90.32326243302903,31.262678756651866,0.754787307588892,26.337739456929786
240.0,85.73092405003383,33.853322373830565,0.7551814967883961,26.35112106406519
241.0,80.92316005604953,36.57574380537044,0.7555575195877783,26.363909011752206
242.0,75.93265873705116,39.41065326356579,0.7559153129489699,26.376097963469878
243.0,70.7911222362475,42.334043752830915,0.7562548161227168,26.38768278365296
244.0,65.53175090623388,45.316956047539776,0.7565759706095382,26.398658541182872
245.0,60.19107459298848,48.325355642312054,0.7568787201222738,26.4090205129045
246.0,54.810109061446795,51.320173410918066,0.7571630105557243,26.418764186567422
247.0,49.434960388005315,54.257486180947595,0.7574287899571664,26.427885265133657
248.0,44.116843105309435,57.088991008376986,0.7576760084862298,26.43637966848601
249.0,38.91164721322162,59.762751710340474,0.7579046184037378,26.444243537429568
