Time,J,A,S,tau,r
0.0,1.0,1.0,0.6822457903826655,14.492753623188404,0.0
1.0,0.8534648330596608,1.7866480067149575,0.6714465424546123,14.078113339233122,0.008244853697359356
2.0,1.0664040680029836,2.536730481441514,0.6599220077197124,13.63473632766267,0.008262986140815602
3.0,1.5682295346900452,3.2513989242462134,0.6476698157119974,13.1626610370135,0.008275781188117125
4.0,2.2948920710268674,3.931539938156304,0.6346903979274229,12.662056127419648,0.008282904095322306
5.0,3.1886473807843303,4.577786673950498,0.6209870491661048,12.133249401234771,0.008284007580512844
6.0,4.197832548738814,5.190529637863192,0.6065660025139015,11.576761076263493,0.00827873308354896
7.0,5.276646954556215,5.769927797292461,0.5914363614026528,10.993340640829732,0.008266713388139916
8.0,6.384914054695037,6.3159210725095845,0.5756103941766342,10.384007315893399,0.008247576375650946
9.0,7.487845639905,6.828246688406417,0.5591036592279663,9.750090113679276,0.00822095210780435
10.0,8.788463392550762,7.045765890654452,0.5485225628936017,9.395190474401465,0.007896473180116634
11.0,9.888448081928024,7.287598464583621,0.5414564469161933,9.246883003467792,0.007430873066663149
12.0,10.527251140861992,7.884216182387037,0.532713752898216,9.050240109311165,0.007075286147748175
13.0,10.88645621906556,8.726907569877362,0.5233032608904076,8.84826593360619,0.006770607446759591
14.0,11.288878034503627,9.500757531052802,0.5143453959696453,8.713167785498218,0.006457160394100177
15.0,11.707306783992518,10.208127516297827,0.5057374988911028,8.622313495881883,0.006156308085973814
16.0,12.07079632723898,10.90297808983188,0.4970826502136611,8.553896913775418,0.005880579938046346
17.0,12.365038899171314,11.588354808092742,0.4880478165734416,8.499504665620073,0.005628827720566755
18.0,12.590080916216174,12.25368277701938,0.47833063837163964,8.457776096386294,0.00539781511116262
19.0,12.77803665263824,12.851617784499785,0.4677809949524964,8.429374998249056,0.0051844800544498535
20.0,12.907016456787506,13.387695271083007,0.4563977009670989,8.414866484430776,0.004986262266677989
21.0,12.93744728709614,13.895348441299198,0.44421469808984837,8.414501966615566,0.004801113678209569
22.0,12.858121936255241,14.387712019247546,0.43121760362090356,8.428480005061918,0.0046274092637626045
23.0,12.679661963527018,14.857798299767769,0.4172773033575173,8.457899746941932,0.004463818374182105
24.0,12.417543150123265,15.292578905532302,0.40215866324799016,8.50555912478616,0.004309197884844981
25.0,12.085004629302215,15.680638642287386,0.3860888975538055,8.57078655041186,0.004162568983122958
26.0,11.694673748315983,16.012850959900344,0.3702248407433835,8.644211247054177,0.004023144823302451
27.0,11.265434397889129,16.276920574239053,0.3551299279836945,8.7256345594441,0.003890160709180024
28.0,10.847485246809123,16.430673218491755,0.34074985394376966,8.82716853090633,0.0037620968350350055
29.0,10.525776211139874,16.398981509434655,0.3270272999097448,8.958685603098091,0.003636488650847556
30.0,10.22579438358474,16.269195734331884,0.31365164315977817,9.102823503307771,0.003516081353153591
31.0,9.75773400365227,16.24197886931853,0.30014592526639405,9.224878590114555,0.0034061421225396377
32.0,9.173960939664802,16.27370442242721,0.2861274947509765,9.325870407504386,0.003303932299059578
33.0,8.568045876266906,16.275245499253487,0.26835932464704776,9.47395527768773,0.00320656816221596
34.0,7.971581989420247,16.216560420608737,0.24865326483526615,9.666492862135406,0.0031130539134403452
35.0,7.408096511141769,16.087774031379865,0.23539061350553553,9.785780617943818,0.0030230240475725293
36.0,6.9387100425425166,15.84319928611569,0.223619181890375,9.923250741079656,0.00293540569579834
37.0,6.549559394603536,15.508048592577019,0.21260005319151312,10.07439328082255,0.002850525291514901
38.0,6.089001443461158,15.240911599342565,0.2018052235287455,10.201983109269054,0.0027712513617744756
39.0,5.583849405093621,15.017686993915746,0.19072010875134182,10.309490510829535,0.0026965638137369193
40.0,5.098111265090195,14.772820894864019,0.1708253055340931,10.603898321024548,0.002625019215825992
41.0,4.649614967318782,14.49113124287468,0.15890561078244836,10.757745747167576,0.0025561565054853064
42.0,4.257521612171063,14.163874245182765,0.14984708623424037,10.87877908947091,0.0024896613807377085
43.0,3.9336704219757,13.786360070404358,0.14158383138071695,11.014885256919992,0.0024252533645663663
44.0,3.6173910572255767,13.422500957307296,0.13373253401286156,11.141840156666841,0.0023638281013056432
45.0,3.2857150343832258,13.09563621055785,0.1259867074935307,11.247575917193922,0.002305518212584031
46.0,2.969254920426113,12.772901006824622,0.11188507320404852,11.544435877648814,0.002249618517187341
47.0,2.6818005655557453,12.439497090689436,0.10137241902365467,11.772187692336711,0.0021957787117227266
48.0,2.4321978511747306,12.09057528777267,0.09514647055418274,11.886468794978,0.0021438160841595493
49.0,2.222842963805033,11.726561563830451,0.08951467738898976,12.010930106134698,0.002093607006398577
50.0,2.026700694940032,11.374647336912416,0.08422265551994565,12.128684433744006,0.0020454222391687667
51.0,1.833398412054249,11.043793854326543,0.07904835822464526,12.232251327588289,0.0019992742974554354
52.0,1.6539578599787,10.72055036904817,0.0667212845080474,12.677001482640595,0.0019548589754538256
53.0,1.4938760213447217,10.398382411975238,0.061748570106153415,12.820410091634413,0.0019119940677618098
54.0,1.3566156301488042,10.074910400605647,0.05788076365063455,12.932593294823471,0.0018705651871550875
55.0,1.2382459839402422,9.754270149151958,0.05436078279705713,13.049274563789437,0.001830546547101847
56.0,1.126686025032509,9.447526061649826,0.051045794745995784,13.155876829305093,0.0017920126346502821
57.0,1.0217412533033612,9.153139626172306,0.0475883602017162,13.274668310540699,0.001754870162548834
58.0,0.9271634785915583,8.865713393123004,0.039057657007513194,13.788769927345108,0.001718979048526602
59.0,0.8445682073218289,8.583206861152972,0.03653791131403228,13.897068126982266,0.001684250746643295
60.0,0.7734963177705629,8.30592207553613,0.034317880230851396,14.006279031881176,0.0016506319045972323
61.0,0.7091615038610326,8.037911421950703,0.032269682097224306,14.110838755484588,0.0016181246669029104
62.0,0.6491545048567249,7.780448937211826,0.030275270881228108,14.212550028190936,0.0015866962997325524
63.0,0.5947116353750689,7.531101591533087,0.024394470786736334,14.770211498105684,0.0015562668394444581
64.0,0.5466481605139454,7.288344560929193,0.022823990543449153,14.880607774955685,0.001526772116524398
65.0,0.5048338395037423,7.051917749010368,0.021501058039873303,14.980178770364425,0.0014981675082855596
66.0,0.46753949234203385,6.8229898146009385,0.020301427650879555,15.076761524289115,0.0014704309285141094
67.0,0.4332684830669663,6.602319855460145,0.01916955117773772,15.168173705048325,0.0014435375467867692
68.0,0.4020932278993095,6.389065535030008,0.015429388327883951,15.711149969568496,0.0014174418576158592
69.0,0.3742624486250577,6.182368454715747,0.014355540358749105,15.855765831048636,0.0013921002271741483
70.0,0.34974910452892094,5.9818350677586345,0.013605228785138094,15.94271097318969,0.0013674773756671172
71.0,0.32802818031555375,5.787572046686619,0.012942869586365612,16.025710113346268,0.0013435468568894476
72.0,0.3084021298896044,5.599810426488684,0.012340429508501415,16.103130612119905,0.0013202859251705405
73.0,0.29057483297241093,5.418360845331862,0.011763708910982504,16.181922912477365,0.001297667214897003
74.0,0.27451789940011695,5.242803873539878,0.00935216988362818,16.760481625160853,0.0012756612116325455
75.0,0.26018889826656005,5.072804272835845,0.008880254307606231,16.86013435308095,0.0012542409044814886
76.0,0.2474799835709081,4.908144518397548,0.008531985214889588,16.925019801724638,0.001233382216076129
77.0,0.23619946424516117,4.748708315651082,0.008234425054724891,16.983006414187773,0.0012130637426853517
78.0,0.22614448308255009,4.594395840500808,0.007976036819974764,17.035185197766427,0.001193265432175027
79.0,0.21716076610620072,4.4450662717434195,0.007750841810151317,17.0815096748694,0.0011739675978096908
80.0,0.20915518429852542,4.300535751223288,0.007554098507095868,17.123188626619367,0.0011551507540658076
81.0,0.2020606366982626,4.160613491345255,0.007379219074926684,17.163735593940288,0.001136796119687741
82.0,0.19581651643224082,4.025122610155488,0.007207489295037799,17.21367292250435,0.0011188859114410943
83.0,0.19036415671786067,3.893902125803295,0.005920646696483379,17.689542054562555,0.0011014033363837452
84.0,0.18564401173448594,3.7668073505569746,0.00571510026264876,17.788073437652706,0.0010843325623130836
85.0,0.18160631780061506,3.643697191846369,0.005652102740989609,17.81265029882841,0.0010676584565673657
86.0,0.17820521714413595,3.5244387988175507,0.005626628562243617,17.82161401364558,0.0010513666389129926
87.0,0.17540082771732934,3.4089039161407015,0.0056320501119931175,17.819146752291992,0.0010354433776429831
88.0,0.1731599168624545,3.296968369337694,0.005671359891672112,17.803272790649554,0.0010198755459734023
89.0,0.1714549294509547,3.1885125209242924,0.0057761701462522245,17.754499059113332,0.0010046505984522584
90.0,0.17025998670914674,3.08342397616608,0.007193504296246381,17.226022590822833,0.0009897565988520776
91.0,0.1695553080293705,2.9815936125791076,0.007392462490910542,17.163244261239736,0.000975182115684985
92.0,0.16932074368556624,2.882920225780501,0.007579065241629832,17.11823761553956,0.0009609162908682676
93.0,0.1695378973117726,2.7873079541016987,0.0077859467698439865,17.073777250027497,0.0009469487750255522
94.0,0.17019404769452784,2.6946617118891774,0.008021945788598342,17.025537603881347,0.0009332696064192412
95.0,0.17129032685308074,2.6048796899735547,0.008293324961366266,16.971903380818212,0.0009198690108763575
96.0,0.17284558680543574,2.517852875013724,0.008609466818091957,16.911498060250306,0.0009067373547062095
97.0,0.17488133811628334,2.433479856207361,0.00900228182677798,16.833513911866618,0.0008938654524252205
98.0,0.1773880939678194,2.3516975029652794,0.011803486277238017,16.182059226365887,0.0008812453306872554
99.0,0.1803194340022734,2.2724812212229915,0.012434197263490598,16.08913358719111,0.0008688703101426439
100.0,0.18365243385889296,2.1957817166219997,0.013066483371727868,16.00967840383358,0.0008567334279107042
101.0,0.18744419565622997,2.1214752487897743,0.013765768465820116,15.92641002396005,0.0008448260156166824
102.0,0.19179423439620816,2.0494160650058046,0.014610054069831206,15.82479232703975,0.0008331389137577541
103.0,0.19668511515470505,1.9795852030170693,0.01930363986220659,15.155925770173353,0.0008216666672805554
104.0,0.20199620767403778,1.9120599555463078,0.02050894933534708,15.05681014528177,0.0008104070005795315
105.0,0.2077259152736723,1.8467901660583421,0.021767338362323307,14.962145691756639,0.0007993543198796042
106.0,0.21408366264460335,1.7835336852602957,0.0231891823898271,14.861074620946518,0.0007884972070932572
107.0,0.22115610595119317,1.7221993389933004,0.030419550357059504,14.207290843784783,0.0007778288620638691
108.0,0.22872901276482735,1.6629903585632837,0.03261024934909245,14.08692576779,0.000767352518820832
109.0,0.23666884455184348,1.606005498182239,0.034749966137148036,13.985886171956153,0.0007570687631701062
110.0,0.2452889648240076,1.5509107567474305,0.0370960926467831,13.882089696784346,0.0007469633275526883
111.0,0.2548784745263747,1.4974406715935409,0.04143776086237546,13.634781603213524,0.0007370237061269283
112.0,0.2651572367998703,1.4459055998426946,0.051563618774146176,13.128111511888719,0.000727259030243207
113.0,0.2757414158560313,1.3966791671350702,0.055015526703370614,13.024481240230594,0.0007176824527095552
114.0,0.28686022082716545,1.3495221791205796,0.05869034415542769,12.91803985257896,0.000708283953661773
115.0,0.2992571005635566,1.3037318986735025,0.06288064780791026,12.80530908261927,0.000699033126770076
116.0,0.3128320650233915,1.2594880850920802,0.07967835145282115,12.205413698419811,0.0006899357790094297
117.0,0.32692607856741784,1.2174983993878141,0.08512811873586948,12.096456330662297,0.0006810229950390427
118.0,0.3410355969426783,1.1782782906121272,0.09060797872349131,11.988108621221821,0.0006723209888685052
119.0,0.3561720706021753,1.140872317419422,0.09648765892951663,11.877499433480777,0.0006637874878093244
120.0,0.37337048257741884,1.1043428408162,0.10339606841463632,11.75566137603391,0.000655376282939027
121.0,0.39205535008047054,1.0694102782606785,0.12704151530781346,11.211938920305549,0.000647123149074583
122.0,0.41118452211782486,1.037214000773668,0.13508600410631375,11.105074166142135,0.0006390911120000269
123.0,0.4297246105417305,1.008890020591745,0.14318724679473538,10.989721990177255,0.0006313516516039169
124.0,0.44966916071708274,0.9826327542783833,0.15178613959265275,10.871193874643984,0.0006238140320533749
125.0,0.4731439482796068,0.9564620685289339,0.1615428718523699,10.75350288600199,0.0006163649675679961
126.0,0.4991002187210421,0.9316423605014338,0.19194659577218462,10.272735260009483,0.0006090793706005333
127.0,0.5261866744262579,0.90975709694137,0.203583474179686,10.158708674434942,0.0006020617943094046
128.0,0.5520877329215887,0.893412925814755,0.2146511571973047,10.039659660780915,0.0005954978530775071
129.0,0.5779021293585533,0.8820812509458841,0.2260562051712074,9.908502767698467,0.0005893808868971166
130.0,0.6099588592325567,0.8697820534903374,0.23835943630605586,9.787823772908792,0.0005833164356778544
131.0,0.647614645664797,0.857303140542353,0.25459152051287753,9.636037824837658,0.0005773532261625492
132.0,0.6887795939670945,0.8471392519222888,0.2879674455744585,9.280650656442862,0.0005716732586621766
133.0,0.7322271152227995,0.8410446826323711,0.3023610273479476,9.179130595137694,0.0005664198466952274
134.0,0.774837114752771,0.8430661307226226,0.3161030942808466,9.06541984402781,0.0005619296867995598
135.0,0.8175741975122852,0.8537585680250459,0.32982629135387775,8.940776108152882,0.000558298559430137
136.0,0.8705409620197173,0.8640467772813238,0.34395039281905465,8.829308446203202,0.0005548235274797095
137.0,0.935526491942388,0.8723861880801054,0.3587578815938514,8.739354027308954,0.0005513525852709126
138.0,1.0095325786310014,0.882280064025022,0.3747275734456751,8.658436131927294,0.0005481628323527453
139.0,1.0918734465511555,0.8954058365821528,0.3939594443460004,8.557056714329452,0.0005453999730301259
140.0,1.1832898689043656,0.9122787930878636,0.41508688099430446,8.449857523668944,0.000543118658965127
141.0,1.284956883347193,0.9331726117565825,0.43114323609545907,8.400641297083753,0.0005413444791894635
142.0,1.3981691239490226,0.9584548088880068,0.44462045266843575,8.382761331961076,0.000540095150246665
143.0,1.524294947512974,0.9886918188016078,0.456744070989,8.383594192500722,0.0005393851863314535
144.0,1.6649663449716545,1.0245042031037417,0.4677062797340332,8.4005686784277,0.0005392300509394265
145.0,1.8222995337861778,1.066315771311085,0.47735287173960705,8.433957438287484,0.000539647556062122
146.0,1.9987788070441403,1.114429918718297,0.485498797521122,8.484197637497147,0.0005406547628961011
147.0,2.1970632066515585,1.1692198665095122,0.4927299176259879,8.545795772634062,0.000542262798265447
148.0,2.4199565753746053,1.231089887045421,0.5002563597198244,8.609878226951226,0.000544468562519557
149.0,2.6705529486939086,1.2999265640607336,0.5082955846850192,8.680087800468268,0.0005472161966302267
150.0,2.9540744054801915,1.372140126235213,0.5166316933772812,8.771095806999988,0.0005501882517927552
151.0,3.287988482828678,1.4301284894968591,0.525355060547741,8.903226993060644,0.0005521068480252709
152.0,3.687758749233755,1.4611145301791086,0.5342658173457088,9.078917173136205,0.0005522336408068517
153.0,4.104460343662527,1.5194084474427791,0.5422458926446957,9.24119116889785,0.0005543778819628517
154.0,4.52683222502497,1.6215872424512456,0.5484123924019285,9.370103945699348,0.0005593226819731256
155.0,4.987466465308369,1.7465018366055673,0.5526468443956039,9.489487764349105,0.0005654779960147159
156.0,5.503498000649658,1.887296380002221,0.5566579579095877,9.611741607744548,0.0005722948026989904
157.0,6.088159565075323,2.0313539819638957,0.5622498143174425,9.757442991588901,0.0005789444930495154
158.0,6.806718713611246,2.1077098987404073,0.5696025950792881,9.97957215247772,0.0005816829014864657
159.0,7.621874279063635,2.1664403029265786,0.5769669887903455,10.221664584504841,0.0005837945176945016
160.0,8.407321281436584,2.3385495547707658,0.5820601046728153,10.389981040319178,0.0005914685881404357
161.0,9.246220755817244,2.5578701536030564,0.5853944673758467,10.532686171110667,0.0006009845390236484
162.0,10.185264794035545,2.788439788870342,0.589360404151405,10.687623165876824,0.0006107287201609054
163.0,11.312050834462205,2.92807661889881,0.595591216316789,10.919895675906783,0.0006164935684075264
164.0,12.625818778808314,2.992051464307921,0.6026795803425951,11.211374152222668,0.0006189350331974645
165.0,13.88501906467983,3.2238995012774665,0.6072958190001846,11.404744222823302,0.0006285407458333205
166.0,15.195774685122927,3.5305502280539427,0.6102896521554998,11.564521223793633,0.0006405196348262327
167.0,16.639975415882176,3.835485287777207,0.6144675595253449,11.755397096517072,0.0006515237371288122
168.0,18.41278966435225,3.93953739937274,0.621167131947773,12.068783592858644,0.0006552069702370116
169.0,20.252215821437858,4.137006611179295,0.6267739524386081,12.335085961682605,0.0006623829570286472
170.0,22.021356176768723,4.550494616857167,0.6298145063652839,12.516153146738755,0.0006756052764694306
171.0,23.937290069891116,4.9660576637382645,0.6331969698101843,12.710299951375106,0.0006886016847428149
172.0,26.25934732285846,5.118673914963635,0.6393130927453342,13.035065240621968,0.0006939090846111593
173.0,28.692332782253725,5.334130509434942,0.6447729714680207,13.33550695076565,0.0007011013660870703
174.0,30.989072074494015,5.831139380981427,0.6475139064716926,13.532215133819102,0.0007154200999317299
175.0,33.42144881238687,6.326644929483119,0.6509360043884628,13.755555425033554,0.000728383275898524
176.0,36.37814368941454,6.4539312245284535,0.6570937787639972,14.13714352160638,0.0007327226271373659
177.0,39.247967492737544,6.857268218316844,0.6612137087929636,14.411203946931295,0.0007431941634165371
178.0,41.991023709459434,7.503623831424054,0.6634832018512044,14.621468288803646,0.0007583199225044519
179.0,45.17470472180858,7.818764050724008,0.668099367578076,14.944782813627443,0.0007666677825358213
180.0,48.624080448765596,8.030510221812335,0.6732985581556218,15.325746020089328,0.0007729041729216187
181.0,51.71865187143479,8.700401713961972,0.6754184371637578,15.557472734089963,0.0007876871416836388
182.0,55.033811909084285,9.202321494316266,0.6788547997795913,15.855631078791522,0.0007981947519916162
183.0,58.84709911922123,9.33755084831968,0.6840708330658708,16.29262431680296,0.000803160373910138
184.0,62.13388665953489,10.080684131331239,0.6859843012677819,16.548952971599547,0.000817128895785071
185.0,65.70382492182543,10.540830684701403,0.6890941939527235,16.87577902452997,0.0008268149237833011
186.0,69.63901041410823,10.724783189478504,0.693689555241386,17.331964455118435,0.0008320741009006879
187.0,73.0049986323395,11.484421489241596,0.6950184835350534,17.60256511314606,0.0008457923598334031
188.0,76.78513907591973,11.789226167378756,0.6987174188250473,18.035255271906856,0.0008521864201499746
189.0,80.58159049978967,12.127867129980167,0.7016889706349195,18.43809896481463,0.0008596642457678434
190.0,83.89511763099831,12.860762866457208,0.702968333077044,18.75035883302369,0.0008709730856369598
191.0,87.9003308900194,12.881869024565,0.7070934192775018,19.290996098543122,0.000874267162180858
192.0,91.12417761427092,13.619561428025479,0.7078278188369068,19.61022807652411,0.0008855136817520957
193.0,94.8413020035204,13.745713353106263,0.711118120688926,20.140852161248382,0.0008897114781958541
194.0,98.1916713232069,14.182277530330298,0.7123861196941988,20.53060031659921,0.0008974997673948029
