Time,J,A,S,tau
0.0,100.0,100.0,0.7047905930855021,10.1010101010101
1.0,100.48359099898893,98.14559065759858,0.6970502429635662,11.09976613060827
2.0,101.0616007988634,96.33379374775613,0.6894489861054254,12.098927377928145
3.0,101.72975739940395,94.56306291604814,0.6819800199404626,13.098138857349467
4.0,102.48696052813209,92.83190718218364,0.6746378396754447,14.097394449159605
5.0,103.3320676517855,91.13890572085768,0.6674171745369509,15.09668851730472
6.0,104.26381991521312,89.4827027279474,0.6603129115379361,16.09601751747353
7.0,105.28071735349357,87.86200996327545,0.6533203651977995,17.09537594054706
8.0,106.38110715273672,86.27555064380712,0.6464345994452104,18.094760314108456
9.0,107.56328062610042,84.72215435182817,0.6396512202117123,19.094167252383883
10.0,108.82562313399413,83.20066674319315,0.6329658090974412,20.093593668007458
11.0,110.16613646491642,81.7099791124331,0.6263740477450414,21.09303739225236
12.0,111.58288917833848,80.24907235960896,0.6198720966186224,22.092495693080508
13.0,113.07362069271048,78.8169204217341,0.6134559491442844,23.091966888260753
14.0,114.63646315617932,77.41254780607058,0.6071217454474217,24.091447256656725
15.0,116.26922251787082,76.03504862073167,0.6008659495949278,25.090935863555654
16.0,117.96953723627048,74.68351463340689,0.594684897187949,26.090431959292516
17.0,119.73522699955801,73.35712437039788,0.5885754512477156,27.089932889206196
18.0,121.56388084166404,72.05505037823308,0.5825342474471243,28.0894370623782
19.0,123.45330316397506,70.77650634781119,0.5765580717169622,29.088943160384783
20.0,125.401033605338,69.52074454065291,0.5706438954855145,30.088450057638635
21.0,127.40444107238713,68.28702524023828,0.5647886631482295,31.087954143803614
22.0,129.46139086370363,67.07469774951922,0.5589897776715074,32.08745720508172
23.0,131.569385665439,65.88308347008194,0.5532443688984414,33.0869564684352
24.0,133.72604061642937,64.71153684670341,0.5475496815676423,34.0864501351476
25.0,135.92862262983417,63.55945657301301,0.5419032521553117,35.08593635654056
26.0,138.1748220110559,62.42626013961157,0.5363025874000183,36.08541422680442
27.0,140.46216119548262,61.31138716274247,0.5307453027730596,37.08488089233789
28.0,142.78820247268774,60.214300906836556,0.5252290860131831,38.08433375327503
29.0,145.15045400731213,59.13448543714405,0.5197516979763441,39.083770605629994
30.0,147.54657763750458,58.07144785019085,0.5143109715763882,40.08318892872587
31.0,149.97396236568164,57.02471351957066,0.5089047851726305,41.082587547970945
32.0,152.43032474650798,55.99383027823716,0.5035311650893042,42.081961137441716
33.0,154.9129965281188,54.978360617351875,0.49818812421939174,43.08130908199686
34.0,157.41957215021196,53.977884584068875,0.4928737945261544,44.08062474854296
35.0,159.9477215000279,52.99200523823403,0.4875863696462113,45.07990482131568
36.0,162.49477958072052,52.02032814596518,0.482324016212126,46.07914289984405
37.0,165.05870252789,51.06249819134721,0.47708514356026926,47.078334214001806
38.0,167.63692638198106,50.11816626895955,0.4718681493612366,48.07747207724177
39.0,170.22719350350496,49.18699570742482,0.4666714817553159,49.076548867800824
40.0,172.82716963987133,48.2686654983043,0.46149366080275367,50.07555584019281
41.0,175.43452848159887,47.36286772044915,0.4563332647219567,51.07448288593321
42.0,178.0472036585853,46.46932524574874,0.4511890802376022,52.07331893418277
43.0,180.66277858635263,45.58774434110467,0.44605973344677974,53.07205024208111
44.0,183.27856769954323,44.717844432489244,0.4409440087165232,54.070655919304784
45.0,185.892872781661,43.85939849532026,0.43584094603444573,55.06912154166667
46.0,188.5030828769155,43.01213834486729,0.43074937836831684,56.06742189122315
47.0,191.10740636558077,42.17585817152522,0.4256685880851797,57.065531253960664
48.0,193.70319291023785,41.350313659439145,0.42059755145441474,58.06341716741372
49.0,196.28877840223586,40.53532140410042,0.4155358140830724,59.06104255039754
50.0,198.86147568988682,39.73065872384149,0.41048251451565015,60.05836472367225
51.0,201.41979065168275,38.93616337396543,0.40543753872331595,61.05532864693543
52.0,203.96096201695633,38.15162920355068,0.40040017281095497,62.05187604086317
53.0,206.48317312660942,37.37690892510391,0.3953706289630003,63.04793085565319
54.0,208.98455431431017,36.61185021951748,0.39034906438986416,64.04340191191707
55.0,211.46259002096343,35.85627737585206,0.38533541413305805,65.03818362109585
56.0,213.91542055112143,35.11006578255996,0.3803304242011041,66.03215598852138
57.0,216.34114880502136,34.37308343636964,0.3753349564149612,67.02516346706769
58.0,218.73775165267483,33.645206204825364,0.370350163459042,68.01702570253327
59.0,221.10327367364374,32.92631959795468,0.3653776243698747,69.00752578905146
60.0,223.43575173182427,32.21631575977305,0.36041932498967205,69.99640526622338
61.0,225.7332397214434,31.515094380097196,0.3554777489315845,70.98335571343955
62.0,227.99381216438525,30.82256282848587,0.35055596944205003,71.96800811008094
63.0,230.21555897790904,30.138635583018786,0.3456576895466519,72.94992510413019
64.0,232.39664559362478,29.463235889393058,0.340787349343706,73.92858953702982
65.0,234.5351170138681,28.79628937146904,0.33595004723662086,74.90339790500292
66.0,236.6290557753064,28.13772900025211,0.3311517871130199,75.87364101910369
67.0,238.67668313971274,27.48749791728785,0.32639953559963125,76.8384950105182
68.0,240.67627623091488,26.845548875939826,0.32170203092030303,77.79693432932393
69.0,242.62593018019584,26.211829379319735,0.31706678911625735,78.74799403073112
70.0,244.52410217375677,25.586310789499358,0.3125033253703875,79.69048209353262
71.0,246.36840383762228,24.968933171081346,0.3080207318087517,80.62315691957957
72.0,248.15717803308962,24.359668910033598,0.30362972566604957,81.54457808016636
73.0,249.88884700608136,23.758499753452867,0.2993398487118197,82.4533609128971
74.0,251.561256667336,23.165389615825077,0.29516072316789554,83.34802761264366
75.0,253.17268639753345,22.58033172200213,0.29110004131649914,84.22724839001512
76.0,254.7217526390466,22.003305289015387,0.28716451862900066,85.08972161368058
77.0,256.20601275199226,21.434302750055913,0.2833599521694092,85.93419639196622
78.0,257.62404463384,20.87331732347062,0.2796892773579135,86.7596663934104
79.0,258.9738802920525,20.320341533361784,0.27615381698575164,87.56527770105826
80.0,260.25392992886896,19.77538408608467,0.2727536640909388,88.3502947332644
81.0,261.4617607179285,19.238433259927376,0.26948416762509747,89.11445215604147
82.0,262.5958999767537,18.709504295160084,0.2663432261478745,89.85725859895216
83.0,263.6544498075472,18.188601686503542,0.2633243690250517,90.57868767621066
84.0,264.635306487038,17.67573292531419,0.260420885557581,91.27876788852794
85.0,265.5363934877956,17.17090738217259,0.2576251931183251,91.95764705700176
86.0,266.3556879025153,16.674138415107542,0.2549304499978858,92.61542273482523
87.0,267.0912123525286,16.185439080413783,0.2523283921108713,93.25238312970144
88.0,267.7408430576575,15.704823416283851,0.24981139350014464,93.86877267553274
89.0,268.3022724854306,15.232305899511594,0.24737190553455507,94.46485149428088
90.0,268.7732470724115,14.767900608688864,0.2450022954666661,95.04091351421653
91.0,269.1514640522907,14.311621850418499,0.24269586248742778,95.59717466006452
92.0,269.4346702155448,13.863487292394872,0.2404460309589878,96.13386276340036
93.0,269.6203740423241,13.423510426468011,0.23824630175130512,96.651204657124
94.0,269.7059462859507,12.991704342782455,0.23609083219365737,97.14936983186695
95.0,269.6888782515951,12.568081631891934,0.233974103145527,97.62850967913957
96.0,269.56654194755447,12.152653005165076,0.2318909456433366,98.08874635772267
97.0,269.33624455898985,11.745430001166998,0.22983684506984878,98.5301425492721
98.0,268.9951096696717,11.346418172822759,0.22780693067305038,98.95279919735684
99.0,268.54036976121273,10.955623872035718,0.22579666634234458,99.35680436455857
100.0,172.61646402920607,102.21861473769647,0.4803314194063043,33.4313291469718
101.0,140.59842816086535,125.32181796087214,0.5401804767087408,25.57855798891687
102.0,122.6281592227064,134.40070166932892,0.5639277214904052,22.63232212624716
103.0,110.91372539309978,137.31611691526766,0.5729554647248715,21.403398376280066
104.0,96.4012868363114,143.13983793756248,0.5874505597369858,19.564476375846187
105.0,85.2779202972058,145.6945119187234,0.59443229078482,18.542270076457406
106.0,74.38820191793212,148.15006410983952,0.6009820684832047,17.57078069051341
107.0,63.80923363026553,150.43709052356894,0.6070674794760379,16.6579817980145
108.0,56.50923823095059,149.59836227673097,0.6063396527151386,16.419374277214775
109.0,46.33358929787614,151.79545609808457,0.6120659024837569,15.545842384187193
110.0,39.480234443628824,150.83675330074982,0.6110238748102398,15.334089157934754
111.0,29.887683410557763,152.78638022143042,0.6163795076214119,14.520147296617134
112.0,23.48727773188478,151.7217410465885,0.6151625537571032,14.326458800933935
113.0,14.450122365167534,153.47238894004263,0.6201751892359831,13.55470944168531
114.0,13.469452455174089,147.35807827415496,0.6190411457086145,13.38332789107615
115.0,12.91001708417798,141.022632148627,0.6236473928893701,12.647606375104505
116.0,12.3658591064716,134.87143927466818,0.622402688313986,12.48625760800298
117.0,11.83384908073405,128.90661630877057,0.6210627197204116,12.322529630481075
118.0,11.313642814799893,123.12673795997385,0.6252694645365278,11.639774297256052
119.0,10.80614579425973,117.52931551055931,0.6241707446431555,11.490262732893173
120.0,10.31120825074763,112.11302549547503,0.6230584197259006,11.33922961819865
121.0,9.829008944670875,106.87558562318499,0.6268977112709471,10.706935633116913
122.0,9.36003451471959,101.81443702808753,0.6254459853436617,10.559779466943036
123.0,8.904492893911355,96.92755227125593,0.624912189875264,10.421074118241132
124.0,8.46272923448409,92.21239544074113,0.6235230168463632,10.269774269034071
125.0,8.03496626920627,87.66629298026568,0.6269176518441145,9.696924937642715
126.0,7.621766379939592,83.28637712872533,0.62590937659981,9.558193610860256
127.0,7.223606183633986,79.07004427981582,0.6258975114781723,9.425391703453972
128.0,6.841103792085268,75.01434855537784,0.6250724534840942,9.281920302371697
129.0,6.474532521950396,71.11660180250806,0.6280360788274596,8.770042459099347
130.0,6.125653642356495,67.37294363867827,0.6266954870743959,8.626415036737734
131.0,5.795388397221472,63.78066274590782,0.6270751871435952,8.496888457113236
132.0,5.485348642369735,60.33660143248267,0.6276675050037517,8.365827568160464
133.0,5.197543330093965,57.037456474752,0.6267685319031223,8.21773525272301
134.0,4.931107669259618,53.88334122629719,0.6289070050223969,7.785260138942884
135.0,4.694939636459297,50.86535313129258,0.627825310684713,7.64836791232988
136.0,4.490575484215625,47.98287169740633,0.6285461865367682,7.527113500702974
137.0,4.322880943739618,45.23292958368998,0.6298059850081494,7.41008754838791
138.0,4.197656030713228,42.61268968254613,0.6299517963018967,7.287569150255145
139.0,4.120304745436527,40.120965357098356,0.6283972186208543,7.148141210828625
140.0,4.076906172128487,37.77697131323651,0.6284755382631252,6.853243465291032
141.0,4.113300860497409,35.54161745193136,0.6262168275593636,6.73842126155886
142.0,4.224915673600768,33.427712820910294,0.6249158430666578,6.644133543750485
143.0,4.419711752398194,31.436236339450144,0.6243909712913438,6.562475660760523
144.0,4.706153834224447,29.56787803787151,0.6240889896111876,6.489266453072178
145.0,5.091152762626465,27.82415859309052,0.6234651862233126,6.421600904149927
146.0,5.578477764568197,26.207773279839106,0.6221783566214575,6.35755882343007
147.0,6.16674394815781,24.723140766145068,0.6201263013691674,6.295924019167265
148.0,6.846830020185977,23.377321897419517,0.6173775409681566,6.2360356982312215
149.0,7.599992450973882,22.180297246755416,0.6140835118486775,6.177657401392212
150.0,8.39801479139599,21.143648656524054,0.6104207675986694,6.12048911378403
151.0,9.205926051536855,20.27742362174762,0.6065681340263093,6.063276570954765
152.0,9.988632924474881,19.5839734690908,0.6026393841906077,6.006369196155195
153.0,10.720565700023396,19.05003464247473,0.5986228620583881,5.9551572951736365
154.0,11.373286460903998,18.661511533366873,0.5945413240420221,5.911548686824829
155.0,11.912689735480882,18.409350848140683,0.5904745780157974,5.873229023069884
156.0,12.311161404457096,18.28085235624311,0.586478354531543,5.83845974305324
157.0,12.551951022317104,18.258717326830887,0.5825808949800771,5.806486325246576
158.0,12.631249656418005,18.321514971491442,0.5787963289865456,5.776897893363917
159.0,12.559229610344179,18.444211890885796,0.5751328795002961,5.749392547321016
160.0,12.35855091799779,18.599863342888053,0.5715946720276424,5.7237097602154545
161.0,12.061247990262311,18.761681023535566,0.5681823840051337,5.699620343585462
162.0,11.704558851978575,18.905255604953098,0.5648940023975987,5.67692751191978
163.0,11.326361456579642,19.010659717011816,0.561726293546771,5.655463358495731
164.0,10.961226799833456,19.063889391974065,0.5586739742257094,5.6350859885351925
165.0,10.63746116426639,19.057616816028307,0.5557310167339702,5.61567444371766
166.0,10.375493204473841,18.991048437228688,0.552890722668414,5.597126774214935
167.0,10.18750397014543,18.869021926584555,0.5501461799105071,5.579357467033493
168.0,10.07795512698432,18.70064679978735,0.5474900714560051,5.562292513982457
169.0,10.04475246287834,18.497695280104637,0.5449156333727876,5.54587151173188
170.0,10.080579093987659,18.273139568833678,0.5424161725634072,5.530042221648457
171.0,10.174308079172754,18.039825812061036,0.5399859635325898,5.514762222855293
172.0,10.31233859226022,17.8094841730036,0.5376196189389567,5.499995246606278
173.0,10.479782982389413,17.592062329309936,0.535312826739312,5.48571155099351
174.0,10.66163018464223,17.395254941255313,0.5330618563990361,5.471886647027394
175.0,10.843730271930573,17.22434582368745,0.5308639182670808,5.458500678014721
176.0,11.01372667888238,17.08215039108755,0.5287170819296787,5.445538577741781
177.0,11.161753131077733,16.969170521041693,0.5266199524796249,5.43298627723989
178.0,11.281005757434931,16.883816545014184,0.5245720181358323,5.420835902546347
179.0,11.36793577089077,16.82278454028578,0.522573746769205,5.409081913363751
180.0,11.422199478655791,16.781537607836906,0.52062563129715,5.3977194225540694
181.0,11.446316328737463,16.754788276229846,0.5187290921416385,5.386747779831544
182.0,11.445078652379237,16.737075182529153,0.5168856539355399,5.37616546081392
183.0,11.42484048786967,16.723182874750805,0.515097620591894,5.365977083245158
184.0,11.392668206162838,16.70862062576622,0.5133672160230239,5.356184889244265
185.0,11.355604508269707,16.689889108975358,0.511697135982183,5.3467936600304276
186.0,11.320027028955327,16.66467043798373,0.5100899445814798,5.3378090633225
187.0,11.291126708124017,16.631859088978544,0.5085485279972585,5.32923692714675
188.0,11.272655577873437,16.59146295743682,0.5070754840214532,5.321084910822334
189.0,11.26676540881898,16.544452772249375,0.5056738180359172,5.313360072617869
190.0,11.274118212927903,16.492497015550956,0.5043461301093317,5.3060721301955285
191.0,11.293988533437666,16.437724008457174,0.5030951743229969,5.299228036422066
192.0,11.324594218536921,16.3824311967976,0.5019233668908606,5.292835582576337
193.0,11.363400483080042,16.32885564835559,0.5008332141099944,5.286903208611059
194.0,11.40745566742895,16.278986347029512,0.4998267952508296,5.281437859051945
195.0,11.453702954183298,16.234417682314685,0.4989063463406497,5.276446574758693
196.0,11.49930237189617,16.19626775439981,0.49807355330820086,5.2719364116678245
197.0,11.541833615817099,16.165152376524638,0.49732995320574896,5.267914700458252
198.0,11.579400598422001,16.14122012650599,0.49667736185976824,5.264385657493707
199.0,11.610800761271063,16.124178263851682,0.4961167833765271,5.261354400525253
200.0,11.635479690919283,16.11341785809113,0.49564958095880396,5.258825720578006
201.0,11.653507259540287,16.108096320141556,0.49527646053518665,5.256803019282785
202.0,11.66545972065515,16.107256957221555,0.49499813311997287,5.255289260824454
203.0,11.672290800557997,16.109929854823157,0.49481509490912257,5.254286393620625
204.0,11.675188499896569,16.1152254309732,0.494727715836909,5.253795485266466
205.0,11.6754274883926,16.122398849625263,0.4947361180102194,5.253816890669632
206.0,11.674238676455259,16.130894136187635,0.4948402222406442,5.254350212274586
207.0,11.672702431832812,16.14036670750663,0.49503975648652043,5.2553942260053494
208.0,11.671665984119567,16.150688963735224,0.4953344783458054,5.256946820512782
209.0,11.67173057123963,16.16190000322609,0.49572330061075726,5.259005095449694
210.0,11.673195496466526,16.174213187800156,0.4962057337705012,5.261565409732661
211.0,11.676134708893846,16.187938356568395,0.4967804658344074,5.264623885204173
212.0,11.680360802646558,16.203457732734428,0.497446384867253,5.26817478292129
213.0,11.685560358287914,16.221168928699125,0.4982019568147755,5.272213221992738
214.0,11.691279804050904,16.2414557036561,0.49904555669125306,5.276732398907826
215.0,11.697015882945077,16.264652379414997,0.499975336193018,5.281724669569323
216.0,11.702283849878286,16.291029164209238,0.5009893149599515,5.287183226579765
217.0,11.706642595938778,16.32076732315711,0.5020851928115172,5.293100353051349
218.0,11.709714492939812,16.353983220208374,0.503260657670362,5.299466702225736
219.0,11.711265800687361,16.390695260286932,0.5045129750772697,5.306275572282988
220.0,11.711148473692333,16.430862372296716,0.5058394655727645,5.313518634027633
221.0,11.709301506635693,16.47440867947074,0.507237359821716,5.321185660797854
222.0,11.705798964056516,16.52121305525503,0.5087036980759414,5.3292693651269065
223.0,11.70077801835905,16.57114316068048,0.5102355138946962,5.337761904553295
224.0,11.694422562615218,16.624063935012877,0.5118299576311538,5.3466556836748
225.0,11.68697071452869,16.67986700013341,0.5134838050622835,5.355943553857215
226.0,11.678647617607714,16.738466186895092,0.5151942320462738,5.3656189084000445
227.0,11.669697667882579,16.799789789204755,0.5169581750918683,5.375677151534327
228.0,11.660307958479187,16.863835065571333,0.5187733698245143,5.38611306082365
229.0,11.65066743544854,16.930584051984525,0.5206373892276334,5.396925769289004
230.0,11.64089434744099,17.00009924366402,0.5225483124598046,5.408112691634569
231.0,11.631100734744068,17.072421550968574,0.5245046224882142,5.419676409526242
232.0,11.621338054059999,17.147651965038598,0.5265053820220076,5.431618859169242
233.0,11.611619859978651,17.22587445286361,0.5285498929763892,5.4439441192295
234.0,11.60197293217896,17.307183022874224,0.5306387969224339,5.456662365292868
235.0,11.592378733465814,17.391677791111764,0.5327728943731096,5.469782893625724
236.0,11.582840428657628,17.479436818784396,0.5349540435064786,5.483320471514844
237.0,11.57335320010558,17.57053835751087,0.5371846491492609,5.497291501430303
238.0,11.563946981156981,17.665022664968504,0.539468530549544,5.511720279003379
239.0,11.554648708506262,17.762938943260316,0.5418098123167635,5.526632135173921
240.0,11.545541688380341,17.864300691474426,0.544213676259999,5.542060968841729
241.0,11.53669579630114,17.969134054904362,0.5466858858371004,5.558044076068649
242.0,11.528236250986554,18.07743937372992,0.549232958513822,5.574628997147567
243.0,11.52029245000475,18.18922723613001,0.5518619065892517,5.59187067646903
244.0,11.513042331529325,18.304478146306057,0.5545800270719372,5.609834294267214
245.0,11.506716740452218,18.423149115165735,0.5573945645566826,5.628596820455835
246.0,11.501617664509384,18.545152570003907,0.560312749475752,5.648250410496701
247.0,11.498168962859053,18.670310051443177,0.5633412440259652,5.668904575607362
248.0,11.496913769370638,18.798343294327164,0.566485680739874,5.6906873929936515
249.0,11.498575249124768,18.92883318666582,0.5697506857210464,5.713751389985786
250.0,11.504112140973149,19.061151457932844,0.5731391977760261,5.738274932149324
