Time,J,A,S,tau,r
0.0,1.0,1.0,0.6137822463777594,37.03703703703704,0.0
1.0,1.0810366328576064,0.7421192938818811,0.6121100101274789,38.01192070472504,-0.003016186847173822
2.0,1.1336490379675246,0.5528688114390545,0.6104490942454537,38.988192155415774,-0.003038383511286664
3.0,1.1663137749483972,0.4142341816920274,0.6087999633463801,39.96567740033878,-0.003059713482477067
4.0,1.1850336489757594,0.31278996369648127,0.6071620260674192,40.94429821057149,-0.0030803308045225354
5.0,1.1940651044659214,0.23861720119744356,0.6055356785876422,41.92390004969722,-0.0031001277766330966
6.0,1.1964024154610946,0.18437798904159725,0.6039199821969696,42.90443493605281,-0.0031191434563490055
7.0,1.1941466450673104,0.14467615300389672,0.6023149834880344,43.885789171342246,-0.0031374188492262383
8.0,1.1887683396329105,0.11556735676847606,0.6007202837135285,44.867886242307485,-0.0031549069076870244
9.0,1.1812896949969762,0.0941611604569989,0.5991354567797458,45.85065200334854,-0.003171644426162789
10.0,1.1724202804840895,0.07836247064691688,0.597560529304897,46.833984422141775,-0.0031875734611135896
11.0,1.1626462301769143,0.06663338497049236,0.5959946004880989,47.81785296271074,-0.003202807081874971
12.0,1.1523007371134986,0.057875357218375896,0.5944371807885815,48.80219815269528,-0.0032172865374941566
13.0,1.141609026843427,0.05128576003693431,0.5928882914832457,49.78692993665076,-0.003231059961708476
14.0,1.1307202973835007,0.04629274162445504,0.5913471112060582,50.77201653723636,-0.0032440749090987993
15.0,1.1197322906631382,0.04247336553168854,0.5898131956669472,51.75740647304034,-0.00325641245108596
16.0,1.1087047678355952,0.03953636206349627,0.5882860921358342,52.743047654242375,-0.003268001861186219
17.0,1.0976730296853299,0.03726512097470306,0.5867652823650517,53.728892579552095,-0.003278851501524833
18.0,1.0866554079782715,0.0354998733973479,0.5852501479897873,54.71490817767818,-0.0032890068828062727
19.0,1.075655631765198,0.03413687162938989,0.583740019142805,55.70105928880712,-0.0032984063386073455
20.0,1.064672363144432,0.03308922006172378,0.5822350156364526,56.687264064647295,-0.003307103097246287
21.0,1.0536949506169455,0.03230365627048176,0.5807340217873371,57.67351799696797,-0.003315067104483931
22.0,1.04270951601816,0.03174157817865964,0.5792367566395881,58.65976553572356,-0.0033222765243969953
23.0,1.0317007497166653,0.031369577711756934,0.5777430672988169,59.64594478833853,-0.0033287598087048103
24.0,1.020649737095649,0.031166446682642086,0.5762522013810985,60.63203095892902,-0.003334524391635576
25.0,1.0095349710959742,0.031121608533664028,0.5747634840986152,61.617990343088856,-0.003339547806231867
26.0,0.9983353004249745,0.03122420924112462,0.5732767656327726,62.60376171269431,-0.0033438401780711688
27.0,0.9870277961405223,0.03146788957487182,0.5717914397171507,63.58930894478236,-0.0033474116849142948
28.0,0.9755883329535711,0.031850693263412194,0.5703070866513884,64.57458297519588,-0.003350262332612759
29.0,0.9639915060062638,0.03237415254295375,0.568823248540871,65.5595332885626,-0.003352384912361669
30.0,0.9522116115243373,0.03303993337628332,0.5673394908479047,66.54411316785857,-0.003353786171222782
31.0,0.9402215159082056,0.033853631308313634,0.5658555033513125,67.52826184871995,-0.003354458547259542
32.0,0.9279942390561566,0.034817444631767835,0.564370922580992,68.51191889086607,-0.003354428354125085
33.0,0.9155002123073016,0.03594207558910717,0.5628853215556163,69.49502682788702,-0.0033536835677181564
34.0,0.9027097229564678,0.03723676852650598,0.5613984260006629,70.47751769857896,-0.003352228086581214
35.0,0.8895915999410495,0.03871512235993335,0.5599098351840299,71.4593276789067,-0.0033500537899012594
36.0,0.8761145471690415,0.04038876419400818,0.558419590659439,72.44035513596754,-0.0033471684630131337
37.0,0.862245857358792,0.04227246879581756,0.5569273747056588,73.42052216091786,-0.0033435772856542974
38.0,0.8479517412422238,0.04438287165176846,0.5554327375741319,74.39976218886147,-0.0033392846742509594
39.0,0.8331978749001566,0.04674441662939358,0.5539360808109222,75.37793002866351,-0.003334275684167679
40.0,0.8179495533877095,0.04937626804064792,0.5524369896051975,76.35494416364985,-0.00332855806739814
41.0,0.8021718722693805,0.052305490416336066,0.5509356381669521,77.3306707241666,-0.0033221279803720316
42.0,0.785830021618328,0.05555828067358208,0.5494321073626168,78.30497366806965,-0.003314989419743287
43.0,0.7688901663493072,0.059172591479409474,0.5479263434246902,79.27772891942824,-0.003307120316819064
44.0,0.7513203260856538,0.06317912439813836,0.5464186755020985,80.24876714776886,-0.0032985257450467405
45.0,0.7330906264883632,0.06761767581044106,0.5449092208300967,81.21793298743133,-0.00328919752088016
46.0,0.7141745505802998,0.07252983018421849,0.5433984876017678,82.185027179283,-0.0032791343985348544
47.0,0.6945511695016373,0.0779667679593591,0.5418868364258421,83.14985762764962,-0.003268317984964367
48.0,0.6742057812310044,0.08397704769652621,0.5403748023409597,84.11220648918176,-0.0032567468462756225
49.0,0.6531330836801322,0.09061931972874625,0.5388629845495003,85.07184208464014,-0.003244404079551151
50.0,0.6313393256382368,0.09795719965222793,0.5373521331766079,86.02850870630306,-0.0032312762880646662
51.0,0.6088491450539475,0.10606935662022912,0.5358430301467795,86.9819397118025,-0.003217327588670908
52.0,0.5857023181315129,0.11501922925390452,0.5343366371495237,87.93183810915716,-0.0032025579692835076
53.0,0.5619623044215661,0.12488434188040111,0.5328340075499944,88.87789103627308,-0.003186950783882093
54.0,0.5377235032351735,0.1357578735233333,0.5313362414981183,89.81976710545302,-0.0031704762952436158
55.0,0.5131126792312283,0.14772459043811334,0.5298446040602411,90.75711118154614,-0.0031531204575972927
56.0,0.48830135107716194,0.160889317285583,0.5283603118853355,91.6895626429197,-0.003134852742410473
57.0,0.4635057558005412,0.1753444947699751,0.5268851475873022,92.61668299670907,-0.003115661621241053
58.0,0.43900375629939625,0.19120348765415546,0.5254203060274357,93.53809967121214,-0.0030955187024006583
59.0,0.41514772592935373,0.20859634044912048,0.5239671340575087,94.45340777465287,-0.0030743876783192884
60.0,0.3923652243501043,0.22763490173292592,0.5225275499488545,95.36212698076407,-0.003052250374093818
61.0,0.3711784840818238,0.24844913713928368,0.5211028945407828,96.26384178501674,-0.003029080751266401
62.0,0.3522188691788142,0.27117570483155895,0.5196947178701786,97.15809882631589,-0.003004851980815438
63.0,0.33623199201881837,0.2959471270247805,0.5183045372932383,98.04444543448214,-0.002979546979620305
64.0,0.3241184801012434,0.3229410411621439,0.5169336078645491,98.92245022879372,-0.00295312858973028
65.0,0.3169201093186768,0.35229761061053066,0.5155837518548708,99.79160625978919,-0.0029255853232013677
66.0,0.3158661577246449,0.3841990533939611,0.5142560204518731,100.65149349220424,-0.0028968920319485682
67.0,0.32239489898509177,0.4188472570563305,0.5129518940916657,101.5016280776364,-0.0028670225546351177
68.0,0.338188295146237,0.45648918490547663,0.5116721666941642,102.34162684583521,-0.002835944648832789
69.0,0.36514804870899836,0.4973029367621185,0.5104181093296857,103.17101006500553,-0.002803658188930794
70.0,0.40551882669136957,0.5416067319286667,0.5091904648880482,103.98937974561946,-0.0027701277172640605
71.0,0.46186491833154786,0.5897183650836514,0.5079898866299688,104.79634469462857,-0.0027353334459236595
72.0,0.5371581028099479,0.6420021252039548,0.5068171349064383,105.59148061893143,-0.002699253107814534
73.0,0.6348372043832646,0.6989120209607492,0.5056725058702437,106.37443775048756,-0.002661858878273004
74.0,0.7589107359247679,0.7610466115507294,0.5045564990760599,107.14481306028904,-0.0026231113117177957
75.0,0.9140599434151939,0.8290575465379035,0.5034695099969886,107.90221265059903,-0.0025829768588847826
76.0,1.1057465967733642,0.9037721730505527,0.502411614609383,108.64629220949652,-0.0025414153433792833
77.0,1.3404945993472022,0.9863390261103325,0.5013830605354265,109.37666049325529,-0.002498362444372642
78.0,1.6261324556071344,1.0782074005643385,0.5003838376255795,110.09296689799999,-0.0024537443123625606
79.0,1.9722626094905358,1.1813751601990103,0.4994139760679451,110.79484212236402,-0.00240745807447836
80.0,2.390995749000082,1.2988773659666448,0.4984734772036969,111.48191251076103,-0.0023593423304180848
81.0,2.8982865189242215,1.4354904188916153,0.4975623321815995,112.15379675670528,-0.002309145429814388
82.0,3.517137500613975,1.600712956665546,0.4966805629138925,112.81009921726131,-0.002256346363583389
83.0,4.288134591510292,1.8203630422105315,0.49582816395239515,113.45041967334993,-0.0021995158521294408
84.0,5.258886667629604,2.0779543404605576,0.49500513785510825,114.0743455520453,-0.0021402740486530674
85.0,6.431061505350704,2.3430031937319726,0.49421158902611123,114.681441312614,-0.0020809559927366075
86.0,7.82055430620434,2.61557030527054,0.49344762708644524,115.27125977582585,-0.002021526932150378
87.0,9.443918026912886,2.8957125908869306,0.49271334440734826,115.84334723059578,-0.0019619530295424273
88.0,11.318345384538857,3.1835028660553015,0.492008966130717,116.39721743244449,-0.0019021989930714548
89.0,13.461634581833032,3.4790076220800974,0.49133468903078314,116.93238022203772,-0.0018422306530329591
90.0,15.892175756206205,3.782302837972599,0.4906907736500602,117.44832043606536,-0.0017820130634430722
91.0,18.628865538499202,4.093451503621324,0.490077423211564,117.9445274202588,-0.0017215130497183328
92.0,21.69109611026478,4.41252273971129,0.48949486502753875,118.42046944377128,-0.0016606969419876714
93.0,25.098639199787385,4.739561925564696,0.48894317488305394,118.87563336590343,-0.0015995338946047835
94.0,28.871606766806014,5.074616712973245,0.4884224492338987,119.30948994628994,-0.0015379928648595847
95.0,33.03033538710027,5.417702579025481,0.48793251735370297,119.7215395062133,-0.0014760463419970283
96.0,37.595293010457425,5.768814846455138,0.48747303876672143,120.11129611257579,-0.001413668889341652
97.0,42.58690064144198,6.127910675523828,0.48704339577193395,120.47831247373844,-0.0013508390130329009
98.0,48.02544033470586,6.494903797539351,0.4866425825685215,120.82218656712674,-0.0012875395156155718
99.0,53.93082706751814,6.869670298198887,0.4862693046499927,121.1425553298862,-0.0012237568048443104
100.0,60.32257416356175,7.252020996429858,0.48592164788451236,121.43913016157678,-0.0011594835072653866
101.0,67.21932105852194,7.6417079799969105,0.4855972914765892,121.71169254903224,-0.001094717861298083
102.0,74.63884784160642,8.038422551323348,0.48529332336997394,121.9600945521666,-0.0010294635735490745
103.0,82.59774802818387,8.441789352176912,0.4850062698510324,122.18426879513558,-0.0009637303755309993
104.0,91.11102679964819,8.851380878060603,0.4847322646451476,122.38421225247156,-0.0008975326233669345
105.0,100.19237866640057,9.266710905049234,0.4844667886221985,122.55998954050037,-0.0008308894506426756
106.0,109.85335772375457,9.68724083962339,0.4842049064653692,122.71173166113321,-0.000763824540856513
107.0,120.10320479905653,10.112389815583779,0.48394137810195587,122.83962364322728,-0.0006963651278550846
108.0,130.9490804193433,10.541559318515404,0.48367068342563335,122.94386643394816,-0.000628539263422647
109.0,142.39543658252083,10.974127191643392,0.48338703388682025,123.02468902793433,-0.0005603767189735952
110.0,154.44418125724204,11.409451826194339,0.4830845839886723,123.08234408346938,-0.0004919086805465278
111.0,167.09408033496933,11.846891006273658,0.48275747996830815,123.11708510783171,-0.00042316618591243605
112.0,180.34108122879817,12.285811849019867,0.4823997412193521,123.1291454746652,-0.00035417882359347393
113.0,194.1780608766407,12.72558923965432,0.4820055726495722,123.11874797313894,-0.00028497545967800354
114.0,208.5948049476748,13.165614039082335,0.4815692386770472,123.08609004748942,-0.00021558336311544837
115.0,223.57790522619266,13.6052891781765,0.4810851740673515,123.03135254903982,-0.00014602888691329788
116.0,239.1109038626726,14.044043212937726,0.48054791947525505,122.95467565020695,-7.633599951372387e-05
117.0,255.1740383314123,14.48131356618719,0.4799522419206912,122.85619033093414,-6.528438360863498e-06
118.0,271.7444332519422,14.91655698380147,0.4792930232146002,122.73599788580721,6.33715351841669e-05
119.0,288.79647643245784,15.349252262434973,0.47856529700141265,122.5941636358225,0.00013334342101335646
120.0,306.301517754049,15.778884698628092,0.47776431084425003,122.43074721831276,0.00020336649548545748
121.0,324.22809000577445,16.20495398055804,0.47688542144935914,122.24578567500217,0.00027342081958010514
122.0,342.54220269195486,16.62697130162246,0.4759240738963209,122.03929578723174,0.00034348701199480604
123.0,361.5135156453194,16.4995404425759,0.5477561768126308,69.49770681642435,0.0007360469068153906
124.0,380.0334877995346,16.4509536724861,0.5660782674472057,57.54640642421146,0.0009052722601904603
125.0,398.1618359486437,16.73047409335416,0.5741076227706015,51.61459209646318,0.001027334129743877
126.0,416.217293854111,17.408775201064227,0.5784902108390082,47.63287725408446,0.0011337311577391132
127.0,434.5326585936234,18.647515530447883,0.5809742366851395,44.616709664435405,0.001232894191268051
128.0,453.500704356516,20.805832309982854,0.5818431390703594,42.390524054080565,0.0013261213007634484
129.0,473.8162201172231,24.06167198148481,0.582323849654727,40.34039267393396,0.0014191564149474618
130.0,496.0189254338511,28.352497691171415,0.5823898205981245,38.46544268668885,0.0015115843705812892
131.0,520.1872800830147,33.5884999814087,0.5819750340366602,36.769263469675536,0.0016027191184233242
132.0,546.2408232996945,39.451572901796276,0.5805065353297274,35.5311040582493,0.001689723422440052
133.0,573.190059836788,46.141385061142365,0.5788066472968436,34.41052138326018,0.001776766562235814
134.0,600.1545892246843,53.544513525129155,0.5768044687779091,33.35999291692045,0.001862850469505429
135.0,626.0804767192137,61.59976744584645,0.5745235622613029,32.38272959791896,0.0019480225089119792
136.0,649.9191073585882,70.23549357350115,0.5719448045067744,31.467077874502806,0.002032106835112407
137.0,670.6860390917295,79.40293938562867,0.5690668335767056,30.604938882135684,0.002115171114126354
138.0,687.4932167514821,89.11324773323757,0.5661156934890694,29.852498534415982,0.00219845702480974
139.0,699.7176426242174,99.31660049516272,0.5630653513568828,29.286876133239126,0.0022824197451685436
140.0,707.072268555286,109.84720767636257,0.5596214217619943,28.55937912738574,0.0023637720736037725
141.0,709.2359927769046,120.78819684622434,0.5562797516057545,27.970258038717482,0.002446072647852584
142.0,706.2948890683123,132.02623371045686,0.5528948532632966,27.43872217828695,0.002528237181940802
143.0,698.4273488249014,143.51755197388678,0.5491364683191274,26.83419309657028,0.0026087579244323416
144.0,685.9764842926537,155.19284934630593,0.5457698836836746,26.40846272973458,0.002690768733629119
145.0,669.3041146578146,167.0633066279487,0.5418318130667805,25.857252522424805,0.0027705300953507588
146.0,649.0388176687138,178.91968949328,0.5383087864582625,25.458627148968365,0.002851173455692846
147.0,625.5409282500048,190.87684249474358,0.5344806656373782,25.01854729270915,0.0029306463588436105
148.0,599.6594054444816,202.53388501528963,0.5305108346481914,24.577455181691988,0.003009267660451421
149.0,572.60774085112,213.22568516663833,0.5270588836863446,24.26310528596127,0.0030873269116087035
150.0,543.4589439437423,224.28362342540714,0.5226780149941777,23.793281196970234,0.0031639013295100622
151.0,512.7684307469631,235.4419349310432,0.5190202917744609,23.49114606443224,0.003240056806941207
152.0,479.3857955706948,248.0699236803002,0.5152982122909273,23.198690740718693,0.0033150783917075557
153.0,441.776281561074,263.79975343986274,0.5107865761636382,22.787028415883224,0.0033889814442569395
154.0,402.2484602378064,280.4955100549694,0.5069932684435319,22.523654967692362,0.003461529378373642
155.0,361.31710026929056,297.9230768039671,0.5033453360187242,22.289628909590533,0.003532101912542091
156.0,317.5753469921714,317.74885523930357,0.49886813072945924,21.958687157190226,0.0036027104616833247
157.0,274.85099007196396,336.40022677390493,0.4944934188934939,21.67055380425181,0.003672056859316642
158.0,236.23347245015677,351.06831793732573,0.4908013668416038,21.473910819714533,0.003738049984526307
159.0,200.39682749083047,363.2795882233103,0.48696359442706544,21.278926296317422,0.0038029171347061974
160.0,165.8603292415546,374.64336298554514,0.48244049262897476,21.02053369817025,0.003867956827266998
161.0,134.96801358325357,382.90630055925897,0.4778151841499752,20.764057180828733,0.003931560517367404
162.0,110.36894543988717,385.5138587417091,0.4737191649520742,20.589491046501955,0.003992288586473561
163.0,89.82736868678751,384.7691221594317,0.46998420968327764,20.442346203619653,0.004050166901443185
164.0,72.55809133450076,381.4990664500721,0.4660080766143803,20.29428287710399,0.004107126634946298
165.0,57.74355528998965,376.550819958048,0.4615467786749701,20.119072187923237,0.004163980806687838
166.0,44.93243273079207,370.3992874138387,0.456829108256991,19.918056397663563,0.004219637579134892
167.0,35.483280444424274,361.7150199126829,0.45225674893054335,19.754797343492644,0.004273444202441275
168.0,28.602749195677816,351.32581327438197,0.4480201956185573,19.632584521952992,0.004324512070429812
169.0,23.404823395289775,340.1498727397992,0.44409833239735946,19.528265491349313,0.00437313244908048
170.0,19.619649249119938,328.4914976448986,0.4402745347868914,19.431290134386703,0.004420047928176776
171.0,17.166340209357568,316.47275294323015,0.4362876864927315,19.337621766787194,0.004465775544611943
172.0,15.984485898890318,304.2051129398601,0.4320589186157877,19.24245184251363,0.004510607773435603
173.0,16.02954344699872,291.7954619319664,0.42764804783195204,19.1407847579771,0.004554521668427915
174.0,17.24086807796366,279.37747609167354,0.42314984617956714,19.033585575961673,0.004597199751995285
175.0,19.640470366042123,267.01028535199714,0.4186620519074329,18.931387526597238,0.0046383920845420356
176.0,23.22634554205865,254.7825632844032,0.41425794266696,18.84428849089187,0.004677965617581403
177.0,27.925265315611664,242.85408560847952,0.4099750533608358,18.773166910826156,0.004715808204139848
178.0,33.73237583908251,231.3123486428524,0.40582828186276465,18.714174083385775,0.004751930174885944
179.0,40.68102409538998,220.1996725077778,0.4018229339845013,18.663484536175865,0.004786453863541146
180.0,48.81252015667958,209.54062744266344,0.3979562026792803,18.61851298630365,0.004819524982695212
181.0,58.169971672548996,199.34437746842545,0.3942164563273011,18.57776875480021,0.004851266320852715
182.0,68.79055980630422,189.6099772297219,0.39058397408953066,18.5405259251375,0.004881769301628661
183.0,80.69333921299966,180.33533519183763,0.38703618470996326,18.506508167500055,0.004911101446467226
184.0,93.87580812129184,171.51840495009387,0.3835540061693916,18.475626861261265,0.004939314659742221
185.0,108.31369624331934,163.15565891413087,0.3801260390332988,18.447821740806845,0.004966451570314398
186.0,123.95598592826369,155.245130971076,0.3767495837127691,18.42299733912714,0.004992550358107642
187.0,140.7253066153045,147.7859824006774,0.3734283143032296,18.400999768284525,0.0050176462457855
188.0,158.51682045182565,140.77919228074154,0.3701700508465426,18.38165237313844,0.005041773688178608
189.0,177.1982660644002,134.22967920102866,0.3669834208299091,18.364765480250334,0.005064966018727486
190.0,196.61119008457817,128.1456902833893,0.36387803354308557,18.35014469713684,0.005087257016782409
191.0,216.57326576865935,122.53929341551634,0.3608629048967384,18.337603560918602,0.005108680817031388
192.0,236.88142173693288,117.42651550594388,0.3579466319893991,18.32694877338752,0.005129272522359438
193.0,257.3173379750978,112.82632222682871,0.3551357460312305,18.318011682201927,0.005149066766627146
194.0,277.6531508810764,108.75941622939033,0.35243645870837675,18.310639258857336,0.005168098790207174
