Time,J,A,S,tau
0.0,100.0,100.0,0.48822269298937576,23.809523809523807
1.0,96.94656290163624,93.10303420346406,0.48839533697305093,23.767473659145576
2.0,93.98201377908806,86.67232130898718,0.4885736684938666,23.72401581245372
3.0,91.10531703465672,80.67979151345064,0.4887578155011195,23.679119705458316
4.0,88.31409949766062,75.09607026138836,0.4889477284583167,23.632800851501404
5.0,85.6061548479498,69.89366958934293,0.4891434090269782,23.58506202501241
6.0,82.97961380534866,65.04697070113068,0.48934479286413574,23.535921605426136
7.0,80.43309817964808,60.532012522140064,0.48955186144552876,23.48538814157258
8.0,77.96606093489108,56.32644221303984,0.48976456084250813,23.433477537559664
9.0,75.57922849619789,52.409369992011854,0.4899828631944437,23.380200157690567
10.0,73.27523819465632,48.76130751044467,0.49020671397684357,23.325572230274826
11.0,71.05942415766658,45.364050328587616,0.49043607565218833,23.269606491911826
12.0,68.9407366678863,42.200608190123006,0.49067090123826823,23.212317248258472
13.0,66.93273942311471,39.255123617579514,0.49091114264473895,23.153719630438005
14.0,65.05453328942727,36.512794693840675,0.4911567520731611,23.09382818003481
15.0,63.331527299655555,33.959811587134325,0.491407673999061,23.032659550671614
16.0,61.79589123432615,31.58329126754951,0.4916638464344338,22.970232578933707
17.0,60.486489275040014,29.371193117781644,0.49192526012154925,22.90655437603732
18.0,59.44835386600241,27.312311958390293,0.49219181324450884,22.841651540999816
19.0,58.731339866414395,25.396196507026914,0.4924633829486024,22.775554057630224
20.0,58.38861817850104,23.613066413968237,0.4927399664524957,22.708267977704416
21.0,58.474325183706625,21.95381711684199,0.49302149647332677,22.6398133262307
22.0,59.04071092836022,20.409946630993794,0.49330793142289314,22.57020089486203
23.0,60.13597076266272,18.973530604266035,0.493523126864373,22.51776091748603
24.0,61.80115946225416,17.637209429584278,0.4936261644056649,22.492428031219315
25.0,64.06796959824001,16.394110684202,0.493727847667985,22.46745358967463
26.0,66.95656923104441,15.237846668656534,0.49382840897772,22.442783379263776
27.0,70.4743371468243,14.162514403477415,0.49392802393102486,22.41837663007236
28.0,74.6145869020195,13.162698079699195,0.4940268571392358,22.394194404337597
29.0,79.35666913748385,12.233527000045889,0.49412508878356726,22.370194764746266
30.0,84.6659955012875,11.370800487417151,0.49422282057205885,22.346350293169774
31.0,90.494115101228,10.571133415657973,0.494320202355273,22.32262097413811
32.0,96.78010352956912,9.832256847288072,0.49441712792162895,22.299035415711586
33.0,103.45091266552276,9.153355754253655,0.4945137639246203,22.275544930436105
34.0,110.42312620476363,8.535516927950184,0.4946099869598884,22.252178809109797
35.0,117.60427695879497,7.98219177408118,0.49470572570713794,22.228952369703624
36.0,124.89536698171162,7.499710066830666,0.49480098881078016,22.205851124895297
37.0,132.1948884397877,7.09756560235746,0.4948955214282762,22.182942965229877
38.0,139.4023731011489,6.788622402065232,0.49498921743007596,22.160247194054712
39.0,146.422651188961,6.589062789636594,0.49508198602968073,22.137782832849485
40.0,153.1664435492882,6.517852974850511,0.4951735850722177,22.11560918309295
41.0,159.54550310888501,6.59604146384832,0.49526382354707327,22.09377290570847
42.0,165.4604118414936,6.845638970740851,0.4953525074600808,22.072321718066945
43.0,170.78297141417104,7.288403134302097,0.49543944708757026,22.051302352346447
44.0,175.34045467889266,7.944357027575517,0.4955244542503223,22.030762119397757
45.0,178.91248634312447,8.830447364945952,0.49560735672705425,22.010743987182472
46.0,181.25017568376347,9.959258807984542,0.4956879983814992,21.99128700488856
47.0,182.11792452184116,11.337995775924327,0.49576624516421347,21.972424186262142
48.0,181.3460090296901,12.96769074161776,0.4958419809393967,21.954184106134466
49.0,178.87414175416566,14.84283086674465,0.49591511351965833,21.93658876538793
50.0,174.76818774201334,16.951248109148576,0.49598556899094737,21.91965509150657
51.0,169.20479594488026,19.274309856046344,0.4960532940718351,21.903395144583715
52.0,162.43264341606374,21.787396737394104,0.49611824904150015,21.88781695461965
53.0,154.72661524430828,24.46063456307238,0.49618042177594823,21.872921044061012
54.0,146.3499130382647,27.25945881471092,0.4962397855257922,21.858713764251597
55.0,137.53089055462658,30.145790328666212,0.4962963729182158,21.84518346244973
56.0,128.45557162618238,33.078838845296,0.4963501696218822,21.83233262356775
57.0,119.269452741207,36.0165943047991,0.49640121043614766,21.820150368735916
58.0,110.08447791420711,38.917422513359675,0.49644953514626816,21.80862599730231
59.0,100.9861855748709,41.74209470073419,0.49649518263224074,21.797748159919163
60.0,92.0396752929426,44.45604821017335,0.49653816367308995,21.78751203968756
61.0,83.29402665694967,47.030691057200784,0.49657848489639944,21.777915025515238
62.0,74.78677484718847,49.442866223389984,0.4966161984664881,21.7689429190827
63.0,66.55065336086005,51.670743542748085,0.4966513140045918,21.760593317677586
64.0,58.62294113790026,53.68626743371544,0.4966838448664775,21.75286246997038
65.0,51.0563696713742,55.445685479008745,0.4967138603309577,21.745733498410896
66.0,43.927629786066895,56.882430413183314,0.4967413910576362,21.739196839386718
67.0,37.33745010266095,57.9082784367171,0.4967664450245714,21.73325020781678
68.0,31.398308946331596,58.42645641273126,0.4967890570649979,21.727885177678193
69.0,26.211514867824175,58.354497870942446,0.4968092322390535,21.723099690332425
70.0,21.8410690765629,57.649304212508774,0.49682699931789603,21.71888678281926
71.0,18.2950960192813,56.32378042154305,0.49684237070297377,21.715243080290495
72.0,15.52244951859151,54.44804766591164,0.49685536584767126,21.712164234137223
73.0,13.425051015653501,52.135378756092976,0.4968659974877791,21.70964604664415
74.0,11.880108376087348,49.51922966540007,0.49687426102610616,21.707690387231523
75.0,10.763287556613346,46.73055075938277,0.4968801957408522,21.706287962021868
76.0,9.966513589282053,43.881526787938014,0.49688384284071435,21.705428184696775
77.0,9.407777568587981,41.05798156969262,0.4968851374140498,21.705126751257524
78.0,9.033746627461793,38.319169386320816,0.4968840972271737,21.70537890198512
79.0,8.818062863824428,35.70174666865616,0.4968807537487525,21.706178996518542
80.0,8.757509833699022,33.225384835929766,0.49687503349251144,21.707541725073746
81.0,8.867828101923529,30.898045550145778,0.4968669377509817,21.70946592857056
82.0,9.179831884927214,28.720222826060642,0.4968564296052559,21.71196321324087
83.0,9.735778152103475,26.687973433323933,0.496843570309758,21.715018542292906
84.0,10.586102559800679,24.794951738532493,0.496828350254524,21.718633590006206
85.0,11.786087353623895,23.033625986594767,0.49681076721925516,21.722810614961713
86.0,13.39254175549759,21.396047832993517,0.4967907966599267,21.72755626744929
87.0,15.460377137872367,19.8742718885337,0.4967684401709088,21.732869637041805
88.0,18.039334054067496,18.46059025963186,0.49674366656358326,21.73875774499057
89.0,21.17098323292904,17.14765435151659,0.4967164749796852,21.745222114758054
90.0,24.885989444530264,15.928531932754527,0.4966868517685576,21.75226525616835
91.0,29.202254534652948,14.796748108566828,0.49665476770270317,21.75989617329287
92.0,34.12343776648962,13.746316201992268,0.4966201908898034,21.768122623783075
93.0,39.63827747059207,12.771763367833161,0.4965831007146942,21.776950664980703
94.0,45.72059974654768,11.868207164834585,0.4965434708072859,21.78638713406557
95.0,52.329865232421206,11.031469102605072,0.49650131955501736,21.79642914309988
96.0,59.41193226923345,10.258266946424063,0.4964565253251907,21.80710626984079
97.0,66.90040237755004,9.546484593877025,0.49640917507286336,21.818400510791033
98.0,74.71776173844941,8.89554622481314,0.4963591906381559,21.830330611340496
99.0,82.77713550910886,8.306815408854822,0.4963065193317458,21.842912205543033
100.0,90.98437153893974,7.784066175017461,0.4962512170046791,21.85612997411262
101.0,99.2413415649652,7.333856221805031,0.49619323245791447,21.869997996978924
102.0,107.44923021905383,6.965692146300849,0.49613255077999785,21.884524143632873
103.0,115.51312462186372,6.692133733827017,0.4960691709399207,21.89971075331777
104.0,123.34515238442232,6.528596381462015,0.496003120487138,21.91555159122689
105.0,130.86422510073925,6.492799497863198,0.49593442121953707,21.932044464872376
106.0,137.98965540353433,6.604127135954003,0.4958631420558942,21.949173100482994
107.0,144.6278680095767,6.88259377138998,0.4957893510535462,21.9669214195394
108.0,150.65481826483312,7.347733789154927,0.4957131392415802,21.985267855892353
109.0,155.90180863102032,8.017390985049659,0.49563461636936,22.004185858394933
110.0,160.155084317452,8.906513976598236,0.4955539087094688,22.023644627725563
111.0,163.17652662468484,10.026055174836191,0.4954711613471848,22.04360814643476
112.0,164.74453831426703,11.382057488510599,0.4953865363900087,22.064036481484937
113.0,164.70257293597655,12.974938086790837,0.4953002075841557,22.084886910175594
114.0,162.99744673385774,14.799180154761194,0.4952123674758113,22.10611142646132
115.0,159.69297538258172,16.843084365082284,0.49512318680722917,22.127669888750617
116.0,154.9546830854416,19.0892051513096,0.4950328518551644,22.149515595545914
117.0,149.0150184628912,21.514573572481808,0.4949415426475742,22.17160607624657
118.0,142.132372021,24.091444810561654,0.4948494471308534,22.193899013573244
119.0,134.5566116307669,26.788057926294357,0.49475671125030835,22.21636144192707
120.0,126.50776538249953,29.569470934357216,0.49466346255609134,22.23896632632118
121.0,118.16745782826409,32.398625021367074,0.4945698269799131,22.26168649986506
122.0,109.6798484635173,35.23743170058532,0.49447586974199376,22.28450918398258
123.0,101.15688665775087,38.048183339139314,0.49438166002937095,22.307423665018618
124.0,92.68463844368723,40.79528900835624,0.4942871687639011,22.330437905276533
125.0,84.3286358397789,43.4471329599491,0.4941924006165783,22.353555131924097
126.0,76.13803453987208,45.97755446634536,0.49409733446196363,22.376783453903535
127.0,68.14949673862078,48.36591988426902,0.49400188031326514,22.40014502601976
128.0,60.391973414337265,50.5950256443179,0.49390591464981565,22.42366941680461
129.0,52.89359363269104,52.64599336930724,0.4938092888812413,22.447390744873044
130.0,45.69042957252399,54.49085130299796,0.49371188315354897,22.47133802954807
131.0,38.83529185694426,56.08504007844109,0.49361346113618065,22.495565428299475
132.0,32.40205662649656,57.36417485926608,0.4935138104420501,22.520121122714457
133.0,26.482389568041054,58.24826208298617,0.4934127110032838,22.545054935733553
134.0,21.17306925322203,58.65485753142737,0.49330991022306103,22.570424977490703
135.0,16.556635942673662,58.51813834757248,0.49320511980708204,22.59629861085933
136.0,12.681580155428476,57.80768436956531,0.49309808558987495,22.62273624036562
137.0,9.549802674591746,56.539490827476925,0.4929885352561044,22.649804112746477
138.0,7.11551301791521,54.775446092364604,0.49287620914763247,22.677567778833094
139.0,5.295471776934644,52.61190084300092,0.4927608641902398,22.70609097133693
140.0,3.986092247858227,50.162170583275675,0.4926422847751372,22.735433556650072
141.0,3.0814825440522617,47.538983676129924,0.492520315809626,22.76564243914293
142.0,2.487821844258379,44.84137773999455,0.4923948716858808,22.796750053852996
143.0,2.1319265690938356,42.14790825248599,0.4922659733945654,22.828763160183975
144.0,1.964455885699325,39.51539684730765,0.49213374167225293,22.86166179926655
145.0,1.9593470123559082,36.98130609021904,0.4919983755293696,22.89540435633245
146.0,2.1112089023825287,34.5677526982165,0.4918602460948503,22.92990308058351
147.0,2.4320150520934845,32.28571411049388,0.4917198975450968,22.965021728430553
148.0,2.9477360801224504,30.138623709117653,0.49157796249526653,23.00059651403731
149.0,3.695158075870729,28.125110106902056,0.4914351455355525,23.03644192806045
150.0,4.718834881542787,26.240929805545687,0.491292177713824,23.072364524950277
151.0,6.068091139987869,24.480256556206054,0.4911497625987723,23.10817911192245
152.0,7.794089110406037,22.83650744518707,0.491008526176528,23.143723868455794
153.0,9.946870745924201,21.30284665826969,0.49086897556426373,23.178871617330984
154.0,12.572538605978641,19.872478875139148,0.49073148629397095,23.21353262213715
155.0,15.710698721533992,18.53882421151378,0.49059626436096876,23.247663382588826
156.0,19.39215565871994,17.29560102719859,0.49046338379276333,23.28125459451111
157.0,23.637057552128848,16.136872069619137,0.49033279407989483,23.314326788312172
158.0,28.45378469615607,15.05707669390959,0.49020431195562036,23.346932833745075
159.0,33.838023735666226,14.051045362542435,0.4900776707440188,23.37914225994158
160.0,39.77285359221344,13.114037522922043,0.4899525125478041,23.41104519161271
161.0,46.22878310078555,12.241781528933057,0.4898284306793401,23.44273946664072
162.0,53.16472724699047,11.430566560972418,0.4897049836043733,23.47432978818642
163.0,60.528792258489766,10.677371679906566,0.48958169733537443,23.505926669029197
164.0,68.25966150639147,9.980070604992642,0.48945807129705293,23.537646879930776
165.0,76.28783373839146,9.337694518702243,0.4893336116278916,23.569606919932124
166.0,84.53703428705674,8.750749305560824,0.48920782525532064,23.601923581028874
167.0,92.92605722326094,8.221543227588768,0.48908023225204933,23.634716485158332
168.0,101.37081149028255,7.754479376955886,0.48895044988884184,23.6680823333252
169.0,109.78739835889034,7.3562271945491045,0.48881802864164703,23.702136455023773
170.0,118.09536861392476,7.035716213033936,0.48868269944720705,23.73696072454536
171.0,126.2209281212919,6.803986819611255,0.48854429882133305,23.772609169952624
172.0,134.09917202259558,6.673818265037622,0.488402786696777,23.809109193877326
173.0,141.67273950700488,6.659296306068122,0.48825825909984705,23.84645571054927
174.0,148.8856888513053,6.775447420322559,0.4881110789304131,23.884565783939436
175.0,155.67208702503905,7.037913318470025,0.487961777239776,23.923309199184445
176.0,161.94094415668343,7.462642028632944,0.48781107173423827,23.962497985016757
177.0,167.56305857257436,8.065388710239699,0.48765981895398647,24.001900978668388
178.0,172.36692138056114,8.86091995541813,0.4875089414679593,24.04126417885636
179.0,176.14946494370096,9.86182887821135,0.4873593511645895,24.080335083958172
180.0,178.70263845989533,11.077359765334386,0.48721186889815443,24.11888819853655
181.0,179.84982207217428,12.512223296805244,0.48706715023388475,24.15674777289893
182.0,179.48082125291745,14.165991491216621,0.48692567484508614,24.193789104890975
183.0,177.57438371068156,16.032561709109224,0.48678771476475713,24.229948117447424
184.0,174.20145240868766,18.100382099959013,0.48665336610813653,24.265208416741366
185.0,169.51016453988186,20.35270083170513,0.48652255369020364,24.29959901275444
186.0,163.6990405470683,22.768203181986955,0.48639506439367286,24.333181931103404
187.0,156.9874569139652,25.321694877237523,0.48627058755924496,24.366040781889243
188.0,149.59080476064358,27.98484254656172,0.48614875649119044,24.39827230528758
189.0,141.70380344854487,30.72701818498178,0.4860291419334114,24.429983327781994
190.0,133.4925816286023,33.51606279627527,0.48591130106389446,24.46128242437781
191.0,125.09348109643021,36.31920969106857,0.48579475760217444,24.49228531287917
192.0,116.61528529462643,39.10418829073098,0.48567910135163134,24.52308924183968
193.0,108.14383360467922,41.840229521184746,0.4855638426238771,24.55381371725979
194.0,99.74557539786386,44.499635991681686,0.48544858241935096,24.584555305110797
195.0,91.47112490030379,47.05900161164871,0.48533295591618086,24.615405087181266
196.0,83.3579539977219,49.50008847633532,0.4852165902773768,24.64645818441004
197.0,75.43280834113543,51.80996597433896,0.48509923144281275,24.677783880466805
198.0,67.71531329431578,53.97928133558466,0.48498065194525414,24.709447799697013
199.0,60.222700051696705,55.99867060206729,0.48486072473826103,24.74149079881548
200.0,52.976443138763024,57.853252740313174,0.48473939702668556,24.773937643326843
201.0,46.00924787460577,59.516462061135385,0.4846167546997408,24.806777751195185
202.0,39.37088110998161,60.94506972411218,0.48449293819919853,24.839982528225878
203.0,33.129431916782,62.07885142506256,0.48436823252077355,24.873485631772528
204.0,27.366011257852254,62.846409498001535,0.4842430528676804,24.907177737692937
205.0,22.16302691082337,63.17721066688432,0.48411784211872927,24.940940143401765
206.0,17.588069989745073,63.017502572079366,0.48399316183311886,24.974615764102307
207.0,13.679906314091703,62.34355267542651,0.4838695848208663,25.00804192583444
208.0,10.440636387126812,61.168424169468075,0.48374767802070073,25.041054534917304
209.0,7.8363585837389245,59.540156174736374,0.48362795910155976,25.073503580149932
210.0,5.80495844090185,57.53304268538104,0.483510879424454,25.105258592604223
211.0,4.267851477322766,55.235458558968624,0.4833967779803674,25.136223548246686
212.0,3.141781476070044,52.738174657291836,0.48328591790071096,25.16632512360844
213.0,2.3487057063666668,50.125190623310544,0.4831784427549649,25.195525544564266
214.0,1.8224027741636177,47.46822639633552,0.4830744147178476,25.223810825698834
215.0,1.512128076341525,44.824400604033634,0.48297381732117733,25.25118881646553
216.0,1.383872903648303,42.236312835460005,0.4828765877085808,25.277678848333267
217.0,1.4200052510116792,39.73362335858149,0.4827825971635845,25.303318322783674
218.0,1.617867174954775,37.33532486035805,0.4826917023621021,25.32814776744495
219.0,1.9878298856755576,35.052186995069654,0.48260375566092006,25.352207136249184
220.0,2.5511351891510916,32.88897594835994,0.4825185721302023,25.37554512646125
221.0,3.33764065717817,30.84629731014076,0.48243597205267563,25.398207957828784
222.0,4.38359177985666,28.92201163303721,0.4823557819217871,25.420239716200932
223.0,5.729337715972108,27.11226937579324,0.4822778356098276,25.441681640680194
224.0,7.417134899888035,25.41223031992704,0.4822019844458155,25.462570256845858
225.0,9.488897719051147,23.816546937277696,0.482128096493705,25.4829374308344
226.0,11.984127272367653,22.319686514488932,0.4820560429572172,25.502814480118
227.0,14.937884109213554,20.91612481517922,0.48198572391848,25.522225177846842
228.0,18.379015088375258,19.600472171606015,0.4819170555784248,25.54118930011471
229.0,22.328753514795025,18.367548849829213,0.4818499640533141,25.559724666631844
230.0,26.799407997979003,17.2124230601296,0.4817844037612576,25.57784158916405
231.0,31.79380255014674,16.13044690492762,0.4817203298045895,25.59555116707913
232.0,37.30463560082039,15.117272715196135,0.48165773631658443,25.612853641735494
233.0,43.31464749689474,14.168888646346996,0.481596616773657,25.629750564646965
234.0,49.79691319029462,13.281664752488101,0.48153697077992647,25.64624159283125
235.0,56.71528769543836,12.452411430269901,0.48147882182737656,25.662320904455438
236.0,64.02511839845772,11.67847789093431,0.48142220859150964,25.67797766593076
237.0,71.67438232327144,10.95789705294876,0.4813671548340262,25.693206900930676
238.0,79.60435089976652,10.289566847490914,0.481313734852357,25.70798719533747
239.0,87.75077963932904,9.673463680030842,0.4812619961672293,25.72230684500304
240.0,96.04505196026221,9.110921413783005,0.481212044160439,25.736134895635526
241.0,104.41567957332026,8.604824302650112,0.4811639387794431,25.749459698394713
242.0,112.79032698153347,8.159937979064576,0.4811176614012265,25.762280929910023
243.0,121.09761969432502,7.783001327108608,0.48107334047260614,25.774564753820606
244.0,129.26981081985832,7.482805533053817,0.48103100392650716,25.78630325239094
245.0,137.24493731161917,7.270175440107688,0.4809907649001898,25.797466727449002
246.0,144.96753770703324,7.157783484388295,0.4809526486940965,25.808048052287898
247.0,152.38670309722764,7.159812377407702,0.48091673916150757,25.81802182568455
248.0,159.45078875180639,7.291487545685296,0.48088308961729603,25.827372936765386
