Time,J,A,S,tau
0.0,100.0,10.0,0.7038088847281911,23.19064262817627
1.0,98.35435496391239,15.0730234154322,0.7021362747925314,23.155237963475603
2.0,93.59575826929895,19.931364013583103,0.7003987226463504,23.118488858453418
3.0,87.46023700640774,24.58225858709223,0.6986003711801447,23.08047731073482
4.0,80.80657461022072,29.033036310787956,0.6967418452930249,23.041213380072698
5.0,74.00923973514585,33.2907754230363,0.6948238128246195,23.000707531204274
6.0,67.22550943318366,37.36231132519944,0.6928469841672925,22.958970631720593
7.0,60.52110931699577,41.25424733481354,0.690812111756719,22.916013949095866
8.0,53.92362817335567,44.97295901585652,0.6887199896690005,22.871849149479022
9.0,47.444780426427286,48.52460577292921,0.6865714528125779,22.82648829273069
10.0,41.08946774508196,51.91512885757068,0.6843673766936285,22.77994383408864
11.0,34.85964818261489,55.1502716276387,0.6821086765595527,22.73222861924554
12.0,28.75593694498486,58.23558156243718,0.6797963056143007,22.683355871491187
13.0,22.77830012768603,61.17640745043048,0.6774312556225957,22.63333920299811
14.0,16.926382163492683,63.97791713456885,0.6750145564132287,22.582192615262183
15.0,11.199651359932355,66.64512548560174,0.6725472721689292,22.529930466020726
16.0,5.597468226337634,69.18281336913638,0.6700305033174145,22.4765675007358
17.0,0.11910251539441141,71.5956728504236,0.6674653838099305,22.422118822296753
18.0,0.0,73.88821065016701,0.6648530807083434,22.36659990113552
19.0,0.0,76.06477906405864,0.6621947927813399,22.3100265668977
20.0,0.0,78.12958290774301,0.6594917495414427,22.252415007061554
21.0,0.0,80.08669260777798,0.6567452086540753,22.19378174562164
22.0,0.0,81.9399818838866,0.6539564581458852,22.13414368726724
23.0,0.0,82.54449322877389,0.652522808370356,22.10538931020316
24.0,0.0,80.87836909932113,0.6512921519216603,22.081306536129862
25.0,0.0,78.22270931018755,0.6500755324574181,22.057582594771844
26.0,0.0,75.22997986464047,0.6488734344497058,22.034223316206813
27.0,0.0,72.17652532435993,0.6476863379415615,22.011234404258506
28.0,0.0,69.17288345370726,0.6465147182422245,21.98862143624873
29.0,0.0,66.26132560967365,0.6453590456254715,21.966389862801343
30.0,0.0,63.45651459740667,0.6442197850292735,21.94454500762868
31.0,0.0,60.76195172205093,0.6430973957718649,21.923092067702175
32.0,0.0,58.17658884786513,0.6419923312830981,21.90203611357256
33.0,0.0,55.697551508342094,0.6409050388062957,21.881382088844767
34.0,0.0,53.32126302218358,0.6398359587025637,21.861134803106086
35.0,0.0,51.0439288666626,0.6387855253977186,21.841298953912847
36.0,0.0,48.86174087342389,0.6377541652573355,21.82187909373861
37.0,0.0,46.77090294488534,0.6367422982048321,21.802879663689836
38.0,0.0,44.767805262541515,0.6357503360841885,21.784304969064497
39.0,0.0,42.84888945136129,0.6347786830376563,21.766159191301487
40.0,0.0,41.01073774955962,0.6338277353164741,21.748446388241508
41.0,0.0,39.25008886045964,0.6328978806051831,21.731170487920462
42.0,0.0,37.56377190112022,0.631989498168133,21.714335294772773
43.0,0.0,35.94875196179685,0.6311029584042764,21.697944486698816
44.0,0.0,34.40210788697344,0.6302386227779712,21.682001617557816
45.0,0.0,32.92103392799696,0.6293968434740117,21.666510115751763
46.0,0.0,31.502837293353608,0.6285779632196373,21.65147328507123
47.0,0.0,30.144927870196103,0.6277823151527571,21.63689430594893
48.0,0.0,28.84482049499407,0.6270102225280961,21.62277623461779
49.0,0.0,27.600133874502216,0.6262619985506093,21.6091220038391
50.0,0.0,26.40858703938853,0.6255379462620921,21.595934424113015
51.0,0.0,25.268000982300194,0.6248383582905429,21.583216183185407
52.0,0.0,24.176304897367288,0.6241635167097586,21.570969846826657
53.0,0.0,23.131541255939606,0.6235136928883186,21.559197859350803
54.0,0.0,22.131878807269178,0.6228891473389997,21.5479025440799
55.0,0.0,21.17563147292837,0.6222901295525086,21.53708610356704
56.0,0.0,20.261283383734888,0.6217168778917792,21.52675062039052
57.0,0.0,19.387523353224378,0.6211696194484717,21.5168980574579
58.0,0.0,18.55328928347951,0.6206485699252523,21.5075302585191
59.0,1.0287007443983398,17.757821804721544,0.6201539335287349,21.498648948694882
60.0,4.132548952075836,17.000728549682986,0.6196859028661357,21.49025573497135
61.0,7.546113644156607,16.282057960981415,0.6192446588468784,21.48235210666968
62.0,11.275737824451209,15.602379742713754,0.6188303705964177,21.474939435949068
63.0,15.322197050623336,14.962871096964989,0.6184431953729657,21.468018978283563
64.0,19.679694227287552,14.365409012352854,0.6180832784384397,21.461591872453855
65.0,24.334599236521413,13.812637068449451,0.6177507531419174,21.45565914234349
66.0,29.264491120381436,13.308053593540317,0.6174457407077051,21.450221696031765
67.0,34.43716395502366,12.856060411058026,0.6171683502917443,21.445280327245403
68.0,39.80977043399238,12.462003130599035,0.6169186788964345,21.44083571541818
69.0,45.328320688506544,12.13218709023626,0.6166968113122171,21.43688842596584
70.0,50.927370825697615,11.873850413416783,0.6165028201702577,21.433438911450498
71.0,56.5301197788502,11.695123560968788,0.6163367658110048,21.43048751103269
72.0,62.04884852414196,11.60493045595587,0.6161986964042787,21.42803445210457
73.0,67.38577965829651,11.61287548724606,0.616088647837,21.42607984976367
74.0,72.43445325960866,11.729080192113413,0.6160066437763271,21.424623707786264
75.0,77.08192480312269,11.963995386808271,0.61595269567432,21.423665919014237
76.0,81.21201195973723,12.328178301355756,0.6159268027553615,21.423206265496244
77.0,84.71006768445524,12.832040037869977,0.6159289520871029,21.423244419311203
78.0,87.46955293621117,13.485571347776332,0.615959118592849,21.423779942807904
79.0,89.40006471095293,14.298032375972783,0.6160172650700524,21.42481228880227
80.0,90.43578165762618,15.277626930080396,0.6161033423147979,21.426340801670502
81.0,90.54337403651755,16.431131284759925,0.6162172890699329,21.42836471678982
82.0,89.72664367245693,17.763502510053534,0.6163590321194202,21.43088316123394
83.0,88.02651190292109,19.27745142570903,0.6165284864324231,21.433895154802
84.0,85.5165625045935,20.972965826922874,0.6167255551715349,21.437399609786276
85.0,82.294176157584,22.846802172318867,0.6169501297791931,21.441395331349238
86.0,78.46943689724009,24.891991207562487,0.6172020900906802,21.44588101814166
87.0,74.15445216996125,27.097304974455323,0.6174813043964973,21.4508552623034
88.0,69.4551172603238,29.446806645678645,0.6177876295780474,21.456316550137828
89.0,64.46646958794065,31.91943558195573,0.6181209111916149,21.46226326218123
90.0,59.27161696195188,34.488745919436305,0.6184809835997753,21.468693673707634
91.0,53.94329697480119,37.12276805650899,0.6188676700854088,21.475605954941628
92.0,48.5468450835169,39.784059254240006,0.6192807829786412,21.48299817139013
93.0,43.143445221348614,42.42993159192629,0.6197201237999396,21.490868284199767
94.0,37.7928911855253,45.01286660831012,0.6201854833817848,21.49921415030538
95.0,32.55547533452306,47.48117929640961,0.6206766420356578,21.508033522896614
96.0,27.49284050665468,49.779993558086346,0.621193369700912,21.517324051686007
97.0,22.667725829871596,51.85271336712456,0.621735426078691,21.52708328294853
98.0,18.142514343600368,53.643221101981354,0.6223025608303608,21.537308660140024
99.0,13.976543566818858,55.09895333474831,0.6228945137224503,21.547997523928924
100.0,10.222256473036632,56.17487874952863,0.6235110148087516,21.559147112535843
101.0,6.9205816256806765,56.838042894232395,0.6241517846099301,21.570754561991492
102.0,4.096302360998714,57.07196328613123,0.6248165342986495,21.582816906394488
103.0,1.7544620314173902,56.87986994704366,0.6255049658864893,21.595331078130382
104.0,0.0,56.28575349907756,0.6262167724300157,21.608293908242917
105.0,0.0,55.33264583871022,0.6269516382221761,21.62170212658919
106.0,0.0,54.07813792624577,0.6277092389986839,21.635552362110356
107.0,0.0,52.58798955752364,0.6284892421483491,21.649841143090992
108.0,0.0,50.929171681807986,0.629291306927657,21.664564897418128
109.0,0.0,49.16375044057716,0.6301150846794069,21.679719952839136
110.0,0.0,47.344633956961985,0.6309602190552217,21.695302537217923
111.0,0.0,45.51356199242988,0.6318263462427248,21.711308778803197
112.0,0.0,43.701094065178374,0.632713095196276,21.727734706496907
113.0,0.0,41.927969522024775,0.6336200878694477,21.744576250099033
114.0,0.0,40.207131464750944,0.6345469394573656,21.761829240651647
115.0,0.0,38.54581754913649,0.6354932586376303,21.77948941072821
116.0,0.0,36.947371295214886,0.6364586478032114,21.79755239454056
117.0,0.0,35.41264829503448,0.637442703305596,21.816013728146437
118.0,0.0,33.94099781612798,0.6384450157475507,21.8348688504973
119.0,0.0,32.53090486742803,0.6394651701803967,21.854113102810928
120.0,0.0,31.180398163046092,0.6405027463947773,21.873741729527737
121.0,0.0,29.88729090261205,0.6415573191633501,21.89374987840703
122.0,0.0,28.649320592963726,0.6426284584993588,21.914132600868715
123.0,0.0,27.464228437928142,0.6437157299187867,21.934884852397072
124.0,0.0,26.329803813944338,0.6448186947015069,21.95600149290883
125.0,0.0,25.24390929730264,0.6459369101542092,21.977477287156876
126.0,0.0,24.204496385410625,0.6470699298728861,21.999306905108853
127.0,0.4811806387238858,23.209616772331994,0.6482173040076495,22.021484922389156
128.0,1.4607033635099538,22.2574334357377,0.6493785795270499,22.044005820715665
129.0,2.600050091355717,21.346234087115118,0.6505533004824064,22.066863988343467
130.0,3.9167648631914185,20.474448424152936,0.6517410082725938,22.09005372054779
131.0,5.428391608553637,19.64067042582655,0.6529412419082204,22.11356922012044
132.0,7.152115961448172,18.843686170078712,0.6541535382756103,22.137404597903082
133.0,9.104348988574884,18.08250695136307,0.6553774323988313,22.161553873297983
134.0,11.3002514275758,17.356407265349194,0.6566124577018294,22.186010974858064
135.0,13.753197806154489,16.664967449091872,0.6578581462690635,22.210769740889695
136.0,16.47414132235799,16.008120432028917,0.65911402910195,22.23582391990112
137.0,19.470946028517595,15.386200962485448,0.6603796363795019,22.261167171522697
138.0,22.747568140151426,14.79999604768827,0.6616544977081268,22.28679306711207
139.0,26.30328498794243,14.250802065800734,0.6629381423781274,22.312695090205086
140.0,30.131817354367417,13.740482920667924,0.6642300996207754,22.338866636697894
141.0,34.22023827563256,13.27149551276304,0.6655298988348708,22.365301017367617
142.0,38.54824127658159,12.846951502557197,0.6668370698483322,22.391991457028045
143.0,43.08715997577064,12.47063817737989,0.6681511431475851,22.418931096006446
144.0,47.799363741649216,12.14704526978378,0.6694716501247636,22.446112990649347
145.0,52.63771276560956,11.881365088217926,0.6707981233037691,22.473530114549874
146.0,57.545248412800184,11.679481857347843,0.6721300965702263,22.501175359297896
147.0,62.45517314427045,11.547943126551926,0.6734671054015978,22.529041535188945
148.0,67.29134434548511,11.49390781036318,0.674808687077411,22.557121372723717
149.0,71.9690534767208,11.525081651172393,0.6761543809111233,22.58540752296236
150.0,76.39654317277791,11.649624065658553,0.6775037284433125,22.613892559238717
151.0,80.47717296517806,11.876041634212573,0.6788562736666846,22.642568977611802
152.0,84.11269201562759,12.213058085568525,0.6802115632088973,22.67142919857463
153.0,87.20755249886777,12.669463366113384,0.6815691465466237,22.70046556767702
154.0,89.67442204383791,13.253945149685132,0.6829285761791531,22.729670357207205
155.0,91.44042528006133,13.974888691461189,0.6842894078266026,22.759035767046118
156.0,92.45351783877288,14.840161668776236,0.6856512006044064,22.78855392615279
157.0,92.68761226869157,15.856862315378251,0.6870135171899291,22.818216893952442
158.0,92.14561690261615,17.03103052166363,0.688375924002784,22.84801666144744
159.0,90.85907352939464,18.367330967055302,0.6897379913728415,22.877945152635174
160.0,88.8840660829428,19.868704565234083,0.6910992936687741,22.90799422634808
161.0,86.29449527025342,21.5359556284913,0.6924594094621225,22.938155677410247
162.0,83.17366779612959,23.36733654045742,0.6938179216633903,22.96842123835105
163.0,79.606107147817,25.35807426025024,0.6951744176821947,22.998782580679038
164.0,75.67120242400435,27.499923149051767,0.6965284895336293,23.02923131683794
165.0,71.4396403352832,29.780713916594486,0.6978797339563761,23.05975900189634
166.0,66.97252226701623,32.18391608828633,0.6992277525571853,23.09035713496349
167.0,62.322767956321215,34.68830531738559,0.7005721519072697,23.12101716116307
168.0,57.5377368701444,37.26772977489578,0.7019125436305541,23.151730473573306
169.0,52.662142545478616,39.89097256810719,0.7032485445238819,23.18248841484823
170.0,47.740677626372246,42.521798811645596,0.7045797766508703,23.213282279159834
171.0,42.81991716193777,45.11921872084372,0.7059058674011011,23.244103314359798
172.0,37.949419679333,47.63795107089019,0.707226449586374,23.274942723815858
173.0,33.18201083395095,50.02920991921547,0.7085411615140318,23.305791668469507
174.0,28.573261327813018,52.24189602180953,0.7098496470408436,23.33664126902997
175.0,24.180183681261383,54.22428052199249,0.711151555638816,23.367482608079783
176.0,20.059101198611476,55.92631828479376,0.7124465424493622,23.39830673226116
177.0,16.262728376148154,57.30258649176559,0.713734268326402,23.429104654559584
178.0,12.836614273275185,58.31573356696181,0.7150143998764759,23.45986735660267
179.0,9.815303396456999,58.94009500336565,0.7162866094929522,23.490585791009863
180.0,7.218794587320296,59.16491335031383,0.7175505753822172,23.521250883797375
181.0,5.049952856697433,58.996524709367044,0.7188059816057343,23.55185353676758
182.0,3.293810323896933,58.4586392934756,0.7200525180591802,23.582384630133696
183.0,1.918792052615832,57.590704656785434,0.7212898805118247,23.612835024959182
184.0,0.8801538582897975,56.44412941277373,0.722517770604325,23.643195565790126
185.0,0.1249344596880684,55.077114315320784,0.7237358958488037,23.67345708329648
186.0,0.0,53.54901507470067,0.7249439696235657,23.70361039696227
187.0,0.0,51.91527994061657,0.726141711163082,23.733646317823066
188.0,0.0,50.223771240900604,0.7273288455428472,23.76355565125079
189.0,0.0,48.5128447892464,0.728505103659352,23.793329199784534
190.0,0.0,46.81109277419157,0.7296702222052791,23.822957766006965
191.0,0.0,45.13831801171287,0.7308239436406591,23.85243215546614
192.0,0.0,43.50718078274589,0.7319660161587845,23.88174317964059
193.0,0.0,41.92501167819821,0.7330961936489558,23.91088165894852
194.0,0.0,40.39545040146093,0.7342142356548376,23.939838425801092
195.0,0.0,38.91974695464171,0.7353199073209529,23.968604327662604
196.0,0.0,37.497693454900585,0.7364129793756754,23.99717023031808
197.0,0.0,36.1282552239294,0.7374932280309799,24.025527020877444
198.0,0.0,34.80995237287626,0.7385604349564415,24.0536656110719
199.0,0.0,33.5410938846281,0.7396143872123074,24.081576940497932
200.0,0.0,32.31990847447797,0.740654877188509,24.109251979911015
201.0,0.0,31.144616236232128,0.7416817025401994,24.13668173455691
202.0,0.0,30.013466350611168,0.7426946661162505,24.163857247499827
203.0,0.0,28.92475650867022,0.7436935758941158,24.190769603055916
204.0,0.0,27.87684196138761,0.7446782449039548,24.21740993018871
205.0,0.02637385885887305,26.86813965928763,0.7456484911553667,24.243769405975744
206.0,0.34931273548722525,25.897129694051085,0.746604137560343,24.269839259085025
207.0,0.7400416365179109,24.962355870460502,0.7475450118553223,24.29561077328985
208.0,1.2094469731062507,24.062426169164954,0.7484709465210064,24.321075291000664
209.0,1.7693468026162917,23.19601386259582,0.7493817787014369,24.346224216829725
210.0,2.43243054906025,22.3618598227334,0.7502773501207245,24.37104902116258
211.0,3.2121726581701373,21.558776537203723,0.7511575069997641,24.395541243764125
212.0,4.12271820605135,20.785654257056198,0.7520220999720422,24.419692497406317
213.0,5.178738651681602,20.041469581758246,0.7528709839960289,24.443494471462266
214.0,6.3952563158610625,19.32529695207239,0.7537040182724043,24.466938935615254
215.0,7.787433986847592,18.63632313144577,0.7545210661551738,24.490017743475804
216.0,9.37032695971033,17.973865171791985,0.7553219950654803,24.512722836262082
217.0,11.158592507417794,17.337392168522328,0.7561066764053211,24.535046246493366
218.0,13.166152169689704,16.726550865995822,0.7568749854679361,24.556980101599315
219.0,15.405806402611269,16.14119612009455,0.7576268013541466,24.578516627705785
220.0,17.8887692570546,15.581424359306409,0.7583620068860393,24.599648153272458
221.0,20.62417437379932,15.047612686240795,0.7590804885198545,24.620367112844807
222.0,23.618478771864986,14.540458222368295,0.7597821362540613,24.64066605042784
223.0,26.87480229713185,14.061020146259805,0.7604668435450281,24.660537623039612
224.0,30.392286610541536,13.610776096931271,0.7611345072558151,24.67997460614883
225.0,34.16521822109897,13.191653408498183,0.761785027534648,24.698969895339555
226.0,38.182316879489036,12.806070224515485,0.7624183077198653,24.717516509445275
227.0,42.42587659952382,12.456985084070316,0.7630342543100971,24.735607596361707
228.0,46.87106306383883,12.147921232873614,0.7636327768414956,24.753236434757525
229.0,51.48519713261823,11.882997283314879,0.7642137878321255,24.770396438606145
230.0,56.227215223563796,11.666944168376116,0.764777202702773,24.787081160672447
231.0,61.047344796789424,11.505111657427252,0.7653229396983876,24.80328429593221
232.0,65.88697861359756,11.403458924857667,0.7658509198103898,24.818999684625723
233.0,70.6788582639995,11.368536402421007,0.7663610667127498,24.834221316084363
234.0,75.34773238570028,11.40745428907329,0.7668533066953833,24.848943332501236
235.0,79.81147784137704,11.527826982650343,0.7673275685822023,24.863160031215354
236.0,83.98283292896315,11.737709807733324,0.7677837836860786,24.87686586925674
237.0,87.77209683609692,12.045515287570728,0.7682218857311244,24.89005546586501
238.0,91.09055613530803,12.459908069821303,0.7686418107946124,24.902723605515213
239.0,93.85509016742945,12.98968788388505,0.7690434972596606,24.914865242139502
240.0,95.99330271123168,13.643647047282993,0.7694268857422446,24.926475500845285
241.0,97.44897471786304,14.43040451040854,0.7697919190529141,24.937549681847464
242.0,98.18704553737139,15.358220346175338,0.7701385421433103,24.948083263625424
243.0,98.19672986950692,16.434779446547644,0.7704667020494751,24.95807190477913
244.0,97.49249037119331,17.66694171051672,0.770776347856408,24.967511447678458
245.0,96.11196322153262,19.06045379904129,0.7710674306584095,24.976397921456506
246.0,94.1109958637362,20.61963413982907,0.7713399035088894,24.98472754404919
247.0,91.55692834093354,22.346996580787817,0.7715937213951052,24.992496725100114
248.0,88.52128630877272,24.24285440347115,0.7718288411956956,24.99970206809001
249.0,85.0734363599792,26.30486483840769,0.7720452216581225,25.00634037317825
250.0,81.27617302660819,28.527547236151833,0.7722428233721171,25.012408639946102
251.0,77.18389485538268,30.90179834381859,0.7724216087402499,25.0179040689282
252.0,72.84301626817968,33.414408753001645,0.7725815419575531,25.022824063674204
253.0,68.29394684362398,36.047594718618654,0.7727225889997703,25.02716623325888
254.0,63.57386734483655,38.778593116458254,0.772844717609132,25.030928394602206
255.0,58.71955562909029,41.579380579723804,0.7729478972785205,25.034108573581875
256.0,53.76974173309567,44.41651470190036,0.773032099244386,25.036705006699187
257.0,48.76681527663072,47.25113695575826,0.7730972964889374,25.038716143319935
258.0,43.75781439338756,50.03920987532611,0.7731434637370491,25.040140647347304
259.0,38.794677987770775,52.732074201513484,0.7731705774541506,25.040977397457933
260.0,33.93389189362653,55.277313448978276,0.7731786158627224,25.041225489931236
261.0,29.235399017270325,57.620135846046914,0.7731675589405591,25.04088423844444
262.0,24.760814178889596,59.70531462933423,0.7731373884445537,25.03995317620788
263.0,20.57082765319399,61.479810006855004,0.7730880879218951,25.0384320563433
264.0,16.721849384591113,62.896047903549416,0.7730196427307927,25.0363208527162
