Time,J,A,S,tau
0.0,100.0,100.0,0.6510406561416919,27.027027027027028
1.0,102.63243454673135,36.788724518097354,0.6499237974792337,27.956316115836934
2.0,104.80907620935197,13.533655209904298,0.6488063653674269,28.887928984300185
3.0,105.80526080825655,4.9786959389697545,0.6476888447192561,29.821661708054258
4.0,106.05043945758027,1.8315384446278409,0.6465716618813053,30.757355767583338
5.0,105.96634011707668,0.6737778222899027,0.6454551866346399,31.6948604559945
6.0,105.7563689279518,0.24786636401030546,0.6443397359907875,32.63403231540658
7.0,105.50160768981907,0.09118417505917291,0.6432255785440487,33.57473475386869
8.0,105.23231689477976,0.03354467107674409,0.6421129377554505,34.51683736032558
9.0,104.95946873000509,0.012340531627910125,0.6410019965864409,35.46021565915354
10.0,104.6869364529354,0.004540047654760701,0.6398929001025866,36.40475033142849
11.0,104.41600959051898,0.0016704390090111773,0.6387857603878822,37.35032709140562
12.0,104.147041053406,0.0006147760078678237,0.6376806583992665,38.296835837870596
13.0,103.8800476366406,0.00022641903508457042,0.6365776646133599,39.244169592489584
14.0,103.61492326454808,8.35481839325096e-05,0.6354768135329233,40.19222452830382
15.0,103.35152427553612,3.0986186017216134e-05,0.6343781897412833,41.14089532948906
16.0,103.08966142529042,1.1647147601953287e-05,0.6332815625070704,42.09008908489078
17.0,102.82922193731503,4.530273988648252e-06,0.6321869860003967,43.03973394544606
18.0,102.57003281043366,1.910082126209531e-06,0.6310944954064572,43.989723592067094
19.0,102.31191381030479,9.446153058433966e-07,0.6300040764111924,44.939951594032294
20.0,102.05471736112139,5.882585390585732e-07,0.6289156164203836,45.89034060001554
21.0,101.7982850873255,4.5642212623912734e-07,0.6278290763794684,46.84079843668318
22.0,101.5424624449228,4.0761511053383917e-07,0.6267444013312784,47.79123598075951
23.0,101.28709605516914,3.8978461900151657e-07,0.6256615364626305,48.741563908344915
24.0,101.03203375249839,3.837810224595318e-07,0.624580428422419,49.69169258857127
25.0,100.77712475080622,3.8256279748980833e-07,0.6235010342410638,50.6415312849806
26.0,100.52221871690361,3.8354264683209687e-07,0.6224233161745117,51.59098808747764
27.0,100.26716602692238,3.8577444578455466e-07,0.6213472475103224,52.53996947273468
28.0,100.01182080950639,3.88906581391011e-07,0.6202728114975502,53.488382311762294
29.0,99.75602698234042,3.9285204066134566e-07,0.6192000162883361,54.43612354308584
30.0,99.49963960787447,3.9755776379147495e-07,0.6181288799335246,55.38309509725342
31.0,99.24251148709067,4.0302647483454016e-07,0.6170594516387835,56.329193284284464
32.0,98.98449209450763,4.09271842196555e-07,0.6159917859179744,57.274310688981814
33.0,98.7254274537464,4.1633101715348116e-07,0.614925973676889,58.218332861752444
34.0,98.46517125052085,4.242183439173656e-07,0.6138621423323483,59.16114532421616
35.0,98.20357235299923,4.329669280126163e-07,0.6128004435497197,60.10262683387631
36.0,97.94047554031734,4.426163955081007e-07,0.6117410582128163,61.042649251162125
37.0,97.67572832121144,4.532037172277236e-07,0.610684216426923,61.98107977806305
38.0,97.4091745865268,4.647793402545449e-07,0.6096302000334907,62.917776543666136
39.0,97.14065747970209,4.773721496693543e-07,0.6085792951477823,63.852595265271034
40.0,96.87001646197685,4.910456722672118e-07,0.6075318653533809,64.78537970013168
41.0,96.59709511820718,5.05833664134535e-07,0.606488309264099,65.71597099792316
42.0,96.32172686754657,5.218202489893834e-07,0.6054491028878511,66.6441939166764
43.0,96.04374855511406,5.390459370567386e-07,0.6044147507963004,67.5698706072016
44.0,95.76299304215047,5.575768889895209e-07,0.6033858257628151,68.49281156255608
45.0,95.47928930493306,5.774795098443082e-07,0.6023629517056681,69.41281731140879
46.0,95.19246829594029,5.988170583281273e-07,0.601346825320714,70.32967989131132
47.0,94.90234926311088,6.216817402744885e-07,0.600338208538269,71.24317445601733
48.0,94.60875633095716,6.46136880578143e-07,0.599337925303537,72.15307040770685
49.0,94.31150670732787,6.722629762460518e-07,0.5983468627319996,73.05912332818401
50.0,94.01041542480488,7.001432282029225e-07,0.5973659818010525,73.96107683006417
51.0,93.70529487120474,7.298544457083608e-07,0.5963962995379268,74.85866395554345
52.0,93.3959524517103,7.614883325945094e-07,0.595438915608706,75.75160263665924
53.0,93.08219237267282,7.95121989555588e-07,0.5944949717861726,76.63960097713675
54.0,92.76381460813906,8.308495343556034e-07,0.5935656908499508,77.52235227116626
55.0,92.44061620888817,8.687459949820543e-07,0.5926523335767351,78.39954025136637
56.0,92.1123888918149,9.089062092401163e-07,0.5917562279989086,79.2708341646515
57.0,91.77892015889255,9.514196295165071e-07,0.5908787652635307,80.13588976397554
58.0,91.43999640137342,9.96344078773176e-07,0.5900213281544914,80.99435885733577
59.0,91.09539470153341,1.0437850555504807e-06,0.5891853926216432,81.84587267335986
60.0,90.74489216440136,1.093792839466774e-06,0.5883724023907798,82.69006144331654
61.0,90.38826027342941,1.1464405764098542e-06,0.5875838330205647,83.52654349816522
62.0,90.0252647908107,1.201800209330131e-06,0.5868211757755538,84.35492669439599
63.0,89.65566804474435,1.2599290828449728e-06,0.5860859053505713,85.17481324895864
64.0,89.2792267217633,1.3208893772610168e-06,0.5853794921215671,85.98579666772584
65.0,88.89569505956459,1.3847100795502005e-06,0.5847033347964948,86.78747100728789
66.0,88.50482286408665,1.4514152399514229e-06,0.5840587732123008,87.57942790197094
67.0,88.10635186274452,1.521082225114125e-06,0.5834471682128701,88.36124509526091
68.0,87.70002400964127,1.5936977313982158e-06,0.5828697164076001,89.13251204590513
69.0,87.28557491746598,1.669290966243327e-06,0.5823275660852848,89.89281249435369
70.0,86.8627362086727,1.7478727102723308e-06,0.5818217607081154,90.64173191919198
71.0,86.43123680662369,1.8294261628520307e-06,0.581353191881535,91.37886323799093
72.0,85.99079980509849,1.9139767448190535e-06,0.5809226866230999,92.103794727279
73.0,85.54114537490119,2.0015188850045363e-06,0.5805309172190799,92.81612147180057
74.0,85.08199226429511,2.0920192271552984e-06,0.5801783748666519,93.51544890768481
75.0,84.61305475287905,2.1854665516159704e-06,0.5798654166926375,94.20138501003058
76.0,84.13404485576679,2.281831035110301e-06,0.5795922220041063,94.87354611332486
77.0,83.64467159059333,2.3811163135052663e-06,0.5793588384932671,95.53155075439288
78.0,83.14464281204941,2.4832774155488417e-06,0.5791650993212264,96.17502941001719
79.0,82.63366473264234,2.588295509070946e-06,0.5790106662542407,96.80361873686977
80.0,82.11144319331565,2.69612651582105e-06,0.5788949925901139,97.41696580866181
81.0,81.57768267437477,2.8067589645240307e-06,0.5788173720410783,98.01472120111664
82.0,81.03208896295384,2.9201412556134704e-06,0.578776856774016,98.59654904432398
83.0,80.47436844827128,3.036234087131007e-06,0.5787722972995905,99.16212118374096
84.0,79.90422952727283,3.154985257166893e-06,0.578802309898606,99.71112076957057
85.0,79.32138304149076,3.276346186336785e-06,0.5788652817531378,100.24324093117569
86.0,78.72554268067209,3.4002675266572353e-06,0.5789593779579324,100.75818314318458
87.0,78.11642769676251,3.526670684069968e-06,0.5790824927273549,101.25566343636386
88.0,77.49376009199676,3.6554787376798674e-06,0.579232222189092,101.73541175555162
89.0,76.85727177346087,3.786584296752175e-06,0.5794058879543668,102.19717378035635
90.0,76.20669880136904,3.919870512914518e-06,0.579600462990362,102.64071283935634
91.0,75.54178892423909,4.055222655864658e-06,0.579812648658143,103.06580616089948
92.0,74.86229687911049,4.192454235845311e-06,0.5800386702710006,103.47226160460312
93.0,74.16799099209993,4.3314138517863796e-06,0.5802744692245473,103.85990061351087
94.0,73.45865430368488,4.748835562654751e-06,0.5805155403039187,104.22857505178725
95.0,72.73407691145631,5.155073741836282e-06,0.5807568891709834,104.57816366665602
96.0,71.99406969202337,5.543966522508159e-06,0.5809930164686476,104.90858378820295
97.0,71.23846548515266,5.923891204708218e-06,0.5812180841627009,105.21977263085647
98.0,70.46710965069325,6.301931898427583e-06,0.5814255796575692,105.51171368333397
99.0,69.67986989840249,6.682940551732245e-06,0.581608508163224,105.78442264132076
100.0,68.87663702466462,7.070442206536017e-06,0.5817593386042956,106.03795235936575
101.0,68.05732590172506,7.4666727116493065e-06,0.5818699592080572,106.27239692258973
102.0,67.22187915548221,7.872280180204888e-06,0.581931729660283,106.48788798955721
103.0,66.37026425593103,8.289611906305517e-06,0.581935452462039,106.68459389546304
104.0,65.502487221,8.719183195996027e-06,0.5818715036806746,106.8627173248964
105.0,64.61857768585392,9.161932357099541e-06,0.5817296647294484,107.02249864303815
106.0,63.71860255395208,9.617822039923739e-06,0.5814993479879912,107.16420386180094
107.0,62.80266688226617,1.0088775113666006e-05,0.5811695392774433,107.2881316728213
108.0,59.53870628759966,3.2877656731192957,0.5903979667504471,98.43630670736825
109.0,61.30333390982271,1.8718397224502332,0.6084345992309527,81.48043502460241
110.0,62.19556782004403,1.0834166418776208,0.6237380387957923,67.38421276437818
111.0,62.405750357799775,0.637632744262642,0.633601311099878,58.05599561220965
112.0,62.14160665987571,0.3815544515455402,0.6394845097387214,51.72499873918028
113.0,61.56340563044029,0.23214216550536376,0.6422258263642362,47.53826687406253
114.0,60.78022159929201,0.14360887475485784,0.6431470955078962,44.408261543484535
115.0,59.862466285778844,0.09033449738747522,0.6434710301900929,41.560687285401904
116.0,58.85468051815075,0.057792096315742454,0.6423777856469625,39.47879758415209
117.0,57.78494457973045,0.03760882999470305,0.6408369751195065,37.55264076770147
118.0,56.671109138850774,0.024902071947821607,0.6383386727388678,36.106303422504745
119.0,55.524748845149205,0.01678244636970551,0.6357698320679438,34.57384488770892
120.0,54.353511737870356,0.011517410983089445,0.6324223388562297,33.455008253610785
121.0,53.16264256498004,0.008051822386718305,0.6287544560192764,32.40422931470779
122.0,51.955934603889176,0.005738579267148689,0.6247652230556079,31.420179596693135
123.0,50.736267301085604,0.004172760711743691,0.6204119548320168,30.497481538138643
124.0,49.50596125927825,0.0030990966238885528,0.6156959396859021,29.63648601917156
125.0,48.26688735661651,0.0023545414806290643,0.6107635357435293,28.980117971130472
126.0,47.0206419557089,0.0018329554857279351,0.6056059299140663,28.389920190695733
127.0,45.769037697847985,0.0014657767047561137,0.5998659597195392,27.674175882778115
128.0,44.51345473770926,0.0012085033983605328,0.5943877161628622,27.26688462594846
129.0,43.25540028242483,0.0010320389083642786,0.5880858039705493,26.638038155154746
130.0,41.99637974723975,0.0009252445433129626,0.5823493984376952,26.28098223763023
131.0,40.737913218232706,0.0008824366631594968,0.5754903106818388,25.72607977512414
132.0,39.48142720492022,0.0008698803195564902,0.5694590937584094,25.40786983810292
133.0,37.61083615843458,1.1318026011474989,0.5625235718774293,25.004368993380865
134.0,37.59491138716732,2.968497386560751,0.5553611140023704,24.617599935642893
135.0,39.00417849581694,4.013582668001214,0.5491132232908584,24.35091955456049
136.0,40.948416258351074,4.509829628645293,0.5416227641389945,24.003388706942495
137.0,43.07900299641391,4.696691319922042,0.5339564621072018,23.67042249859862
138.0,45.21863154096532,4.7434003933539675,0.5273989608834592,23.438037281670244
139.0,47.31467505100867,4.707002016856053,0.5202233362263817,23.193741392086245
140.0,49.334633341425615,4.622839984432128,0.5120469247699194,22.87397973086353
141.0,51.2525247477881,4.517474894415031,0.5043759952659882,22.63329192371246
142.0,53.05695676420836,4.401524786081411,0.497663131476386,22.43712394691335
143.0,54.74122492999169,4.280035231416519,0.4904250501276756,22.233521918739363
144.0,56.300052505257035,4.1561021445886155,0.48218388902413867,21.982032609901577
145.0,57.72893877373207,4.032045399241172,0.47398576378657936,21.748121133587
146.0,59.02485596179456,3.909229793972283,0.46674358799372656,21.566774721221243
147.0,60.185686422945835,3.7881661676871774,0.4600171189352309,21.401934436600417
148.0,61.209823801411986,3.669266084166789,0.45267505419699866,21.226946514530294
149.0,62.09624021828324,3.552742939085762,0.4445216633056164,21.0218960104396
150.0,62.84445898116214,3.4387678049534567,0.43630388537332976,20.81742188400571
151.0,63.454762105477336,3.327491092504223,0.42879147878700485,20.650804495029266
152.0,63.92789949258723,3.2189624783218407,0.42208914176048346,20.506370744397657
153.0,64.25183866190297,3.126732330760283,0.4154967368072735,20.366485548171326
154.0,63.42274938177411,4.179199994755156,0.4083158991217173,20.216458323912708
155.0,61.98141158026901,5.799625640102147,0.4005342003761274,20.047184839006125
156.0,60.157693649705784,7.416889146076047,0.39266870014769745,19.87415147556222
157.0,57.959733375303536,8.916106193196411,0.3852831385657717,19.72400450147659
158.0,55.42997783623671,10.294433205095292,0.378657394441271,19.59500333134252
159.0,52.62542301154757,11.579529904356598,0.37256240641071137,19.47682166124668
160.0,49.61792744902198,12.789287620279891,0.36645822101480807,19.359933619266176
161.0,46.475574134995064,13.937186897499199,0.3599325303131981,19.23630425544034
162.0,43.259423639919596,15.031760118901808,0.3529667369434897,19.100984075822257
163.0,40.035539754789504,16.064260199961968,0.34585540042512597,18.958605752412648
164.0,36.868996808753,17.015728260070542,0.33896894845946113,18.824814147336753
165.0,33.80381428931251,17.878514769761964,0.3326013360837935,18.707401275307294
166.0,30.86207129789892,18.658225113447436,0.32684672824064886,18.603507656736923
167.0,28.056379522639183,19.362905241662446,0.32154883382226407,18.507673661541176
168.0,25.39316989120364,20.00127341830718,0.31640052155274856,18.414850766636523
169.0,22.874807127991865,20.581793034003702,0.3111164228154837,18.320785957483714
170.0,20.503097818144322,21.110059439705292,0.3055639558100671,18.222134831542224
171.0,18.281332665738194,21.587458299941154,0.299791446426856,18.117405971993364
172.0,16.181756155133304,22.04387986907945,0.2939610323864499,18.008945700236684
173.0,14.22535296710715,22.457765876059735,0.28826260297483397,17.90331327985606
174.0,12.549446316323866,22.69328709229401,0.2828597787125243,17.80640536295026
175.0,11.177683549776265,22.728843052665432,0.2778593460771069,17.719712357114222
176.0,10.076135768597624,22.59893880416418,0.27328604695340414,17.641807304778478
177.0,9.206845229773107,22.34090393548682,0.26908131927348666,17.570448783743174
178.0,8.53843712125393,21.98482147287608,0.2651313381401934,17.503548761647767
179.0,8.045332503576777,21.554710162441204,0.26130661467464744,17.43939980516379
180.0,7.707094782732172,21.069344558371146,0.2575008234598206,17.37670248301753
181.0,7.506498185369755,20.544145538970273,0.2536519453083089,17.31451700881163
182.0,7.428101569054443,19.992624477294864,0.2497457353814652,17.2522886603767
183.0,7.458194087634206,19.426380232396394,0.24580536243042642,17.189947790730173
184.0,7.585329316361948,18.854496742711362,0.24187483518240027,17.127967919160604
185.0,7.800437816956034,18.2833827029736,0.23800313167036982,17.067380331481285
186.0,8.09619292163167,17.7174127249067,0.23423352269233946,17.00952483599113
187.0,8.466198204849006,17.15967427803307,0.23059859863837065,16.955693939818158
188.0,8.904399327021427,16.612620903663114,0.22711946065763675,16.906743575982155
189.0,9.405075180839443,16.078016597156935,0.22380614518453815,16.86307488729875
190.0,9.963219570678547,15.556684902578892,0.2206599292781726,16.8246743721903
191.0,10.571979403498126,15.050958876123206,0.2176761614707898,16.79128984297361
192.0,11.223465037895632,14.563760217869229,0.21484590360291686,16.762569382563786
193.0,11.909763667878199,14.09752810137278,0.21215877330237556,16.73814016412256
194.0,12.623111153526803,13.65410665287513,0.2096051143944202,16.717650681984917
195.0,13.356000845863582,13.234829417744097,0.2071770720877075,16.70074818095523
196.0,14.101150582098398,12.84062026251881,0.2048682385303378,16.6871279308897
197.0,14.851577306586362,12.47209285855639,0.20267530732647496,16.676480648636485
198.0,15.6006052886943,12.129616695373512,0.20059674454004306,16.668522574394096
199.0,16.34195549920559,11.813381521882054,0.1986337808241898,16.662959822454578
200.0,17.069732070540812,11.523444516093013,0.19678948368575389,16.65948644621462
201.0,17.778539152727554,11.259750297851935,0.1950678516458954,16.657800197597258
202.0,18.463481702559456,11.022147152804243,0.1934740141426899,16.657596151101416
203.0,19.12019771308705,10.810411990721807,0.1920131389040179,16.658583513809955
204.0,19.744925238234476,10.624240331816784,0.19069073758661825,16.6604747106013
205.0,20.33439443197771,10.46328762762414,0.18951347067261887,16.662958293417223
206.0,20.88584619581791,10.327130055815507,0.18848636707947827,16.665759118519727
207.0,21.39708169168235,10.215299854916353,0.18761384847607412,16.668645617269682
208.0,21.866311472648633,10.127283757550897,0.18690150056392313,16.67136307973184
209.0,22.292296880931854,10.062391094599496,0.18635223124667327,16.673727702403117
210.0,22.674271364361445,10.01982718056934,0.18596934993722994,16.675576087980698
211.0,23.011913749231407,9.998639527888587,0.18575383897620096,16.676835219742944
212.0,23.305234172808234,9.997801538807376,0.1857073675231921,16.67741158167714
213.0,23.554590835288142,10.016196910549347,0.18583058121008617,16.677284024148456
214.0,23.760641351828536,10.052653000730755,0.18612364610415122,16.67646687932881
215.0,23.924266097332698,10.105906935751932,0.18658483009095955,16.675069950079692
216.0,24.04656180609149,10.174667918967929,0.1872120972036475,16.673217637440302
217.0,24.128797695188332,10.257607900821904,0.1880022829122628,16.67108137464851
218.0,24.172400428579888,10.353379519919576,0.18895135055681464,16.668869127629442
219.0,24.178945638213435,10.460637901344429,0.19005462445813756,16.66681268426175
220.0,24.150054057234982,10.578063838034625,0.1913076642609503,16.66511748973625
221.0,24.08766693853308,10.704287742010322,0.19270238253466707,16.66416701238603
222.0,23.99362964900848,10.838041146094005,0.19423357192015073,16.664192709780377
223.0,23.869917525793078,10.978060096212216,0.19589454029868622,16.6654869481588
224.0,23.718586380370375,11.123127634806043,0.19767899160639174,16.668340055036268
225.0,23.541746981508098,11.272077255580768,0.19958120549856156,16.67303498060362
226.0,23.341517662328826,11.423834778950352,0.20159802202115368,16.679814950632494
227.0,23.120127366745237,11.57734140567958,0.2037252685803457,16.68899857517914
228.0,22.87977182394963,11.731639526652629,0.20596105338707937,16.700864449287053
229.0,22.62260100416038,11.885882591459804,0.20830667606923706,16.715689350593014
230.0,22.35066819928202,12.039330527566994,0.21076596623930938,16.733741540988625
231.0,22.06602666111136,12.191347562958278,0.21334462765866327,16.75531901974477
232.0,21.770667816381444,12.34139398293431,0.21605143854129114,16.780723548808513
233.0,21.46653546086279,12.488988465286408,0.21889546072545446,16.81027388704926
234.0,21.155568953081968,12.633657817290654,0.22188651155091982,16.84424530496154
235.0,20.83975898762898,12.77486033482792,0.22503161280305253,16.882881360179343
236.0,20.521192348765812,12.911983190801793,0.22833288922003048,16.92629378363753
237.0,20.201854632191633,13.044468417105167,0.23178537027870807,16.974317657336968
238.0,19.88351907110033,13.17196717069575,0.23537390591577842,17.026466351334342
239.0,19.567672972871126,13.294370589163963,0.2390719641137735,17.081845711459632
240.0,19.255932794081712,13.411451681001179,0.24284030313324487,17.139338675908167
241.0,18.950404002463515,13.52249296561748,0.2466294524577564,17.197820067077473
242.0,18.653782386970743,13.626085695268785,0.2503842008260596,17.256490001720064
243.0,18.368813894296103,13.720696237497583,0.2540556097902945,17.314971417816682
