Time,J,A,S,tau
0.0,100.0,10.0,0.5360353654792245,17.327481028024454
1.0,97.75087462910821,12.632292968313923,0.5359848204911559,17.28742195493494
2.0,93.88906573671208,15.084155434505561,0.5359322616243085,17.245798835254153
3.0,89.05848019889636,17.36752553919863,0.5358778535289863,17.202742467443965
4.0,83.69494380264447,19.493858628454994,0.5358216083788522,17.15826405397939
5.0,78.07482345826779,21.473841297791264,0.5357635390398785,17.11237526270706
6.0,72.36879528643804,23.317443919030612,0.5357036590693685,17.065088224531973
7.0,66.68106130763957,25.033964323385796,0.5356419827151586,17.016415531300787
8.0,61.07481454898711,26.632078541210696,0.5355785249133747,16.966370232776253
9.0,55.58794277442487,28.119871939108712,0.5355133012870961,16.91496583431172
10.0,50.24269584728689,29.50488979227676,0.5354463281418135,16.862216292446114
11.0,45.05150927178708,30.79416984520204,0.5353776224648863,16.80813601323239
12.0,40.020646778203826,31.99426474123527,0.5353072019211523,16.75273984811469
13.0,35.15243890797436,33.11127828201706,0.5352350848507984,16.696043091334452
14.0,30.446698562618984,34.15091533244481,0.5351612902613198,16.63806147352008
15.0,25.901611233118345,35.11848155980229,0.5350858378303711,16.578811162527682
16.0,21.5143258746054,36.01892429383505,0.5350087478944513,16.518308755053184
17.0,17.56731454723908,36.57330191408907,0.5349563615743456,16.477476254920738
18.0,14.836864605832716,36.03617704441292,0.5349287340539371,16.456336991359127
19.0,12.965818218740326,34.798637729529894,0.5349014426281788,16.43548519480022
20.0,11.65587602027026,33.17861077812128,0.5348744955220962,16.41492594906141
21.0,10.718126128544156,31.377289686783868,0.534847900844,16.394664233546816
22.0,10.040912674493443,29.516291177727766,0.534821666582988,16.374704923096047
23.0,9.563770489926414,27.667206347890396,0.5347958006064873,16.355052787861887
24.0,9.260273582844563,25.871107081720226,0.5347703106579057,16.33571249327134
25.0,9.127482990881692,24.150615499975412,0.5347452043541701,16.31668859988302
26.0,9.17932425539282,22.517226783899847,0.5347204891834396,16.297985563389098
27.0,9.442121111904408,20.975725249549246,0.5346961725032143,16.279607734911743
28.0,9.951238135189056,19.52684019747835,0.5346722615378091,16.261559360781767
29.0,10.74804809625245,18.168882810012533,0.5346487633763918,16.243844582754317
30.0,11.876984668286687,16.898747942568736,0.5346256849709209,16.226467438128996
31.0,13.382577524113858,15.712537251183068,0.5346030331341584,16.209431859911273
32.0,15.306516760243875,14.605949148533343,0.5345808145377403,16.192741677001216
33.0,17.684787145991862,13.574597450206479,0.5345590357103233,16.176400614419332
34.0,20.542834709389517,12.61597975069279,0.5345377030358751,16.16041229361599
35.0,23.892667558690327,11.728724311656986,0.5345168227516914,16.144780232570252
36.0,27.73202442658408,10.911535250294587,0.5344964009463571,16.12950784583636
37.0,32.041286817185934,10.164311269195604,0.5344764435593972,16.11459844573174
38.0,36.78119437498912,9.488879353891692,0.5344569563781686,16.100055241611035
39.0,41.8915298611322,8.88952039579778,0.5344379450376666,16.08588134109191
40.0,47.29031106848913,8.373398950963391,0.5344194150180311,16.07207974971818
41.0,52.87443247644377,7.950794608300112,0.5344013716436811,16.05865337168248
42.0,58.52163288712821,7.63511113904828,0.5343838200820058,16.045605010220694
43.0,64.09321663758867,7.442606937244348,0.534366765341709,16.032937367764493
44.0,69.43618841668659,7.391789488078041,0.5343502122719443,16.020653046574196
45.0,74.38368963136642,7.502524565506456,0.5343341655610545,16.00875454908583
46.0,78.75398597422777,7.794896580976675,0.5343186297354074,15.997244278293692
47.0,82.3512102182357,8.287900396875033,0.5343036091583822,15.986124538197448
48.0,84.97394422546927,8.998081701121935,0.5342891080293786,15.975397534233458
49.0,86.4364775331035,9.938238778857082,0.5342751303829002,15.96506537371922
50.0,86.60143183000461,11.115995678130766,0.5342616800876745,15.95513006629148
51.0,85.4138327656617,12.532086783843285,0.534248760846057,15.945593524476303
52.0,82.92097806644222,14.179472055297602,0.534236376192212,15.936457563502215
53.0,79.2644621356881,16.042674249109773,0.5342245294929971,15.927723902696604
54.0,74.65220423748436,18.09734714604921,0.5342132239464324,15.919394165396525
55.0,69.31921141485516,20.31008156123579,0.534202462581143,15.911469879413557
56.0,63.493350184235105,22.638673993230174,0.5341922482559075,15.903952477523834
57.0,57.37488431778879,25.032987842498855,0.5341825836591718,15.89684329790201
58.0,51.13028969054777,27.43636057733548,0.5341734713086219,15.890143584553554
59.0,44.89586604854333,29.78714759676676,0.5341649135508106,15.88385448774253
60.0,38.78600210324136,32.01965779370142,0.534156912560838,15.877977064414157
61.0,32.90257876337515,34.063867777962365,0.5341494703420872,15.87251227861153
62.0,27.34328298330889,35.84430105701003,0.5341425887260118,15.867461001885847
63.0,22.206421537956796,37.28019049749515,0.5341362693719518,15.862824013685321
64.0,17.58925397701851,38.29024680684514,0.5341305137670864,15.858602001784124
65.0,13.57803853510667,38.804206915479526,0.5341253232263556,15.854795562655825
66.0,10.231778715679336,38.77946708744204,0.5341206988924712,15.851405201859784
67.0,7.566161021167815,38.216581969563606,0.5341166417358326,15.848431334339754
68.0,5.546522530421696,37.165260000817845,0.5341131525547876,15.845874284867893
69.0,4.09466097348404,35.716657141863,0.5341102319757941,15.84373428840768
70.0,3.1072259878240467,33.98473826118231,0.5341078804535223,15.842011490398063
71.0,2.478151859328093,32.08457765871689,0.5341060982711416,15.840705947103999
72.0,2.117166735570023,30.1154273411174,0.5341048855406201,15.839817625936917
73.0,1.9601760981812968,28.15234637659241,0.5341042422030743,15.839346405765154
74.0,1.971718042439868,26.245689630554047,0.5341041680291824,15.839292077221243
75.0,2.1422246428765885,24.42531374014914,0.5341046626196027,15.839654342974491
76.0,2.483045941621434,22.706295829106654,0.5341057254054137,15.840432817979716
77.0,3.0211450785997025,21.094132258635252,0.5341073556488054,15.841627029824897
78.0,3.794332222693519,19.588618601841336,0.5341095524435459,15.84323641892029
79.0,4.847055902324284,18.186428728761495,0.5341123147156457,15.845260338759038
80.0,6.226609076241138,16.882698195083986,0.5341156412240292,15.847698056144969
81.0,7.979581880678669,15.671957317806514,0.5341195305612726,15.850548751421714
82.0,10.148501464670188,14.548684136212508,0.5341239811543549,15.853811518673112
83.0,12.768679038951698,13.507662973216371,0.534128991265505,15.857485365940382
84.0,15.86526826729078,12.544271972181539,0.5341345589930463,15.861569215406137
85.0,19.4506247915818,11.654787753745289,0.534140682272365,15.866061903606733
86.0,23.52180755703352,10.836763194122772,0.5341473588764536,15.870962181387757
87.0,28.058471589731163,10.089489043071,0.5341545864171313,15.87626871417375
88.0,33.020530667768526,9.414478056221634,0.5341623623466883,15.881980082472502
89.0,38.346670590588104,8.815969732137727,0.5341706839580498,15.888094781516958
90.0,43.95374369533788,8.301287788403949,0.5341795483863344,15.89461122163237
91.0,49.73742363481332,7.88099510994575,0.5341889526100063,15.90152772836142
92.0,55.57435102770203,7.568789438988493,0.534198893451823,15.908842542443743
93.0,61.325069772826694,7.381085843058397,0.5342093675802001,15.91655381999636
94.0,66.83651697271702,7.336309507386099,0.5342203715106165,15.924659632684541
95.0,71.94240485555282,7.453915739534918,0.5342319016067475,15.933157967719804
96.0,76.46223292816651,7.753208072214817,0.5342439540818472,15.942046727961094
97.0,80.20214980526994,8.252027463208462,0.5342565250001373,15.951323731997789
98.0,82.96391184206487,8.96541695022312,0.5342696102782244,15.960986714221374
99.0,84.56651307931624,9.904351403822877,0.5342832056865642,15.971033324898398
100.0,84.87825078612389,11.07460834699273,0.5342973068510884,15.981461130315783
101.0,83.84917463234846,12.475798439854648,0.5343119092541208,15.992267612475032
102.0,81.52733955815421,14.100620425814027,0.5343270082368863,16.00345016971168
103.0,78.05243271741249,15.93417389102908,0.5343425990002824,16.01500611626378
104.0,73.62738056595879,17.953542743301274,0.5343586766070941,16.026932682674
105.0,68.48118610691,20.127549268540754,0.5343752359832884,16.039227015617698
106.0,62.83614163860236,22.41691114750545,0.5343922719198279,16.051886178026663
107.0,56.887958778834815,24.77493939765576,0.5344097790743881,16.064907149135298
108.0,50.79938048786624,27.1487910240892,0.5344277519731155,16.07828682453246
109.0,44.70319883980258,29.48094917150917,0.5344461850124146,16.092022016215182
110.0,38.709858691500266,31.710260336103204,0.5344650724607667,16.106109452645093
111.0,32.91631088174641,33.771880156845526,0.5344844084605782,16.1205457788083
112.0,27.414109934707117,35.59625377217373,0.5345041870300589,16.13532755627952
113.0,22.294777369304136,37.10873505753974,0.5345244020651173,16.150451263283827
114.0,17.64987143510629,38.232697282860286,0.5345450473413191,16.165913294788034
115.0,13.563802800939934,38.89846253613159,0.5345661165158354,16.181709962572466
116.0,10.100312105788271,39.057417133535175,0.5345876031294546,16.197837495337293
117.0,7.287526592757565,38.69664604380818,0.5346095006085494,16.214292038764064
118.0,5.108835238199338,37.84718157201618,0.5346318022671231,16.231069655625454
119.0,3.504862043755065,36.58112296669399,0.5346545013089584,16.248166325963435
120.0,2.3864863356360804,34.99812018428731,0.5346775908296377,16.26557794716493
121.0,1.6539226597642198,33.20659557128546,0.5347010638186707,16.283300334109754
122.0,1.2149596760442554,31.306623607805278,0.5347249131616412,16.301329219329666
123.0,0.9974376033615019,29.379136763688397,0.5347491316423701,16.31966025317542
124.0,0.9546096022308329,27.482405322146988,0.5347737119451036,16.33828900400066
125.0,1.064843264416249,25.653931738536468,0.5347986466567282,16.35721095836713
126.0,1.3281682534006116,23.914981882970615,0.5348239282689597,16.376421521223566
127.0,1.7617140914389982,22.275519516318376,0.5348495491806572,16.395916016193482
128.0,2.3952625074413,20.73832185659559,0.5348755017000524,16.415689685791584
129.0,3.267255322763684,19.301945934118255,0.5349017780470532,16.435737691706276
130.0,4.4212310543042435,17.9626637129109,0.5349283703555415,16.4560551150801
131.0,5.902543124830985,16.715648452114714,0.5349552706757198,16.476636956841222
132.0,7.755266191510005,15.555678476530067,0.5349824709764328,16.497478138016387
133.0,10.019255093112204,14.477558646183516,0.5350099631475494,16.51857350010871
134.0,12.727407447225325,13.476397671248005,0.5350377390023281,16.539917805466654
135.0,15.90315630859874,12.547831546687792,0.5350657902798537,16.561505737740376
136.0,19.55818950912772,11.688260956213124,0.5350941086473269,16.583331902182255
137.0,23.690590201383948,10.895144774332993,0.5351226857026554,16.60539082629223
138.0,28.282867495111923,10.167359518850056,0.5351515129766772,16.62767696006124
139.0,33.300351698162395,9.50560859933814,0.5351805819357918,16.650184676694035
140.0,38.689947224527415,8.91283217620788,0.535209883984482,16.672908273242847
141.0,44.37963948852342,8.394568234917374,0.5352394104676084,16.69584197095916
142.0,50.278836839156874,7.959156901034576,0.5352691526729098,16.718979915911174
143.0,56.28005983772828,7.61774371552306,0.5352991018336433,16.742316179822097
144.0,62.261522053144844,7.384072130550843,0.5353292491309697,16.76584476057989
145.0,68.08951109750654,7.274017797672771,0.5353595856964598,16.78955958292403
146.0,73.61939954617824,7.304891881498483,0.535390102614738,16.81345449937673
147.0,78.69459703994974,7.494559522267786,0.5354207909259033,16.83752329085089
148.0,83.14483786079225,7.860408451747829,0.5354516416281107,16.861759667531107
149.0,86.78794303166656,8.418247178392226,0.5354826456801116,16.88615726972184
150.0,89.44036792130856,9.181207565434073,0.5355137940038058,16.910709668739635
151.0,90.93908881153965,10.158720144061986,0.5355450774868026,16.93541036785815
152.0,91.17108980533494,11.35561503352626,0.5355764869849778,16.96025280327873
153.0,90.10021918367232,12.771366203958122,0.5356080133250165,16.985230345087732
154.0,87.77985037669615,14.39953607634099,0.5356396473069994,17.010336298273458
155.0,84.34348516574457,16.227266435042715,0.5356713797070206,17.035563904098034
156.0,79.98004549468328,18.23497491109896,0.5357032012796734,17.060906340933986
157.0,74.90098248903539,20.396209933315376,0.5357351027606668,17.0863567255583
158.0,69.31179879287038,22.677757397687717,0.5357670748693909,17.111908114374238
159.0,63.394340225194256,25.040133765559254,0.5357991083114861,17.13755350468035
160.0,57.30049165363862,27.43851663902656,0.5358311937814116,17.16328583598437
161.0,51.154067298464966,29.823970498306736,0.5358633219650107,17.18909799136081
162.0,45.056875799756824,32.14454634710377,0.5358954835420743,17.214982798845917
163.0,39.09609910222444,34.34567006504487,0.5359276691889004,17.240933032898685
164.0,33.35150712027713,36.36946333844277,0.53595986958085,17.266941415904174
165.0,27.90155327385218,38.15345063735768,0.535992075394895,17.293000619719052
166.0,22.82690038784157,39.63027261884462,0.5360242773121641,17.319103267262996
167.0,18.20938323862101,40.73074757142796,0.5360564660204734,17.34524193416089
168.0,14.125052434701871,41.39188884865905,0.5360886322168587,17.371409150425624
169.0,10.632295472600454,41.569037471056305,0.5361207666100966,17.39759740220544
170.0,7.759018349176012,41.24828336307577,0.5361528599232089,17.423799133574004
171.0,5.494390654361978,40.453883953576344,0.5361849028959893,17.450006748340304
172.0,3.789446176801584,39.246806625636445,0.5362168862874543,17.476212611968975
173.0,2.56674499109261,37.71449623969382,0.5362488008783445,17.502409053497768
174.0,1.7357241946371633,35.95558674784084,0.5362806374735926,17.5285883675154
175.0,1.208478334076951,34.06487560272638,0.5363123869047738,17.554742816200225
176.0,0.9117156802456224,32.12267221540747,0.5363440400325477,17.58086463139877
177.0,0.7931344439539099,30.189990464820955,0.5363755877490846,17.60694601675658
178.0,0.8227798404789614,28.30870239348307,0.5364070209804732,17.632979149897828
179.0,0.9911306374079863,26.504642913721113,0.5364383306891227,17.658956184650496
180.0,1.3056873930210822,24.79172407736044,0.5364695078761451,17.684869253323345
181.0,1.7872515041168588,23.175775567675853,0.5365005435837017,17.710710469032023
182.0,2.466470315480312,21.657551776764596,0.5365314288973595,17.736471928068728
183.0,3.3807296983572295,20.234837941446308,0.5365621549484191,17.76214571232084
184.0,4.57131903735201,18.903815623135213,0.536592712916213,17.7877238917388
185.0,6.080767076063248,17.659903034576452,0.536623094030402,17.813198526847195
186.0,7.950287364110957,16.4982578108727,0.536653289573232,17.838561671303903
187.0,10.21735209113924,15.414080040582903,0.5366832908817981,17.86380537450315
188.0,12.913423112419,14.40280711710139,0.5367130893502402,17.88892168422323
189.0,16.061916926129413,13.460266652049219,0.5367426764319904,17.913902649320438
190.0,19.676422208169896,12.582826428202361,0.5367720436417632,17.93874032243952
191.0,23.759127651352692,11.767594083471627,0.5368011825582307,17.963426762861918
192.0,28.29968595747236,11.01266444384119,0.536830084825686,17.987954039281014
193.0,33.27380948805412,10.317412745437874,0.5368587421560492,18.01231423260291
194.0,38.64235383417701,9.682862139997226,0.536887146331358,18.036499438932324
195.0,44.35085047476246,9.112041111032593,0.5369152892056643,18.060501772486234
196.0,50.329259283633256,8.6102712318432,0.5369431627069696,18.084313368532573
197.0,56.492872775618096,8.18536795557164,0.5369707588393293,18.10792638642306
198.0,62.74384790182106,7.847672669041921,0.5369980696849532,18.131333012684287
199.0,68.97351815759495,7.6098914562810345,0.5370250874058589,18.15452546397881
200.0,75.06443986607728,7.486756849750018,0.5370518042461666,18.177495990355418
201.0,80.89093392296762,7.494465491599826,0.5370782125337417,18.200236878283047
202.0,86.31757670047391,7.649959666221913,0.5371043046821568,18.222740453849767
203.0,91.1963298766941,7.970074161257978,0.5371300731925637,18.244999085967155
204.0,95.36512859586497,8.47059879884818,0.5371555106555084,18.26700518958608
205.0,98.65252038298348,9.16532346222004,0.5371806097527398,18.288751228947106
206.0,100.89193384407646,10.065125614433871,0.5372053632589555,18.31022972083195
207.0,101.94522083708758,11.177150499263282,0.5372297640435982,18.331433237881125
208.0,101.72893234540817,12.504138397239334,0.537253805072164,18.352354411632334
209.0,100.23572132186531,14.04383634717128,0.5372774794093104,18.372985936771965
210.0,97.53762019528396,15.788709886997617,0.5373007802184485,18.39332057310895
211.0,93.77434830111399,17.725527806198482,0.5373237007646963,18.413351149783182
212.0,89.12893950906651,19.83528159797156,0.5373462344163197,18.433070568520655
213.0,83.79925917473605,22.093138433604008,0.537368374646122,18.452471806862963
214.0,77.974795200209,24.468610102578822,0.5373901150330878,18.471547921597757
215.0,71.82264549708162,26.926002945409248,0.5374114492638934,18.49029205211674
216.0,65.48272734392043,29.425213294647993,0.5374323711344183,18.508697423793723
217.0,59.06947301851711,31.922798193257663,0.5374528745512577,18.526757351385204
218.0,52.676845441798875,34.37303121201386,0.5374729535331494,18.54446524237815
219.0,46.38443100601722,36.72844403263168,0.5374926022123859,18.56181460033562
220.0,40.263620674702445,38.939361740055915,0.5375118148362267,18.578799028255716
221.0,34.38346324042491,40.952380323367095,0.5375305857682505,18.595412231885234
222.0,28.815462794093097,42.70861310612198,0.5375489094898863,18.61164802320522
223.0,23.63573403839273,44.14356897957304,0.5375667806014618,18.62750032348082
224.0,18.92266192554485,45.19074945322006,0.5375841938237023,18.64296316671792
225.0,14.749091516753511,45.79005368570597,0.5376011439989766,18.65803070289477
226.0,11.170410229891877,45.89969277944853,0.5376176260925591,18.672697201196467
227.0,8.212429905420121,45.50778244035179,0.5376336351938514,18.68695705320272
228.0,5.863915228856468,44.63891491453036,0.5376491665177147,18.70080477618786
229.0,4.077360451448044,43.35252999455829,0.5376642154054665,18.71423501604215
230.0,2.7778095992766803,41.733445286519874,0.5376787773262284,18.72724255055898
231.0,1.8768409358891531,39.87780187253041,0.5376928478780253,18.73982229243738
232.0,1.287043865809847,37.879119783865185,0.5377064227889412,18.75196929231932
233.0,0.9332824045225027,35.81807418269039,0.537719497918239,18.763678741765307
234.0,0.7590703278881188,33.75744563728287,0.5377320692574643,18.774945976181762
235.0,0.7283883013241775,31.74165802515427,0.5377441329315291,18.785766477695446
236.0,0.8243770275365536,29.799248434274453,0.5377556851997733,18.796135877964176
237.0,1.0465009914782113,27.94653693756274,0.537766722457055,18.806049960990382
238.0,1.4072996147714643,26.19126939396099,0.5377772412347327,18.81550466575832
239.0,1.9293571490844899,24.53560423799795,0.5377872382016976,18.824496088891188
240.0,2.6426352095635393,22.978292642307235,0.5377967101653992,18.833020487251048
241.0,3.582106407358938,21.516144793585678,0.5378056540727982,18.84107428040291
242.0,4.785581734830725,20.144959847878194,0.5378140670113618,18.848654053073837
243.0,6.291631478380556,18.86009392782926,0.5378219462099942,18.855756557480028
244.0,8.137572137224613,17.656801356420637,0.5378292890399893,18.862378715618725
245.0,10.357522490924808,16.530443163118846,0.5378360930159681,18.8685176214826
246.0,12.980565750462175,15.476625886218656,0.537842355796726,18.874170543093953
247.0,16.029069551860957,14.491316315992815,0.5378480751861944,18.879334924615947
248.0,19.5171993106413,13.57096315600368,0.5378532491341398,18.884008388072697
249.0,23.449505588254677,12.712651661547781,0.5378578757373639,18.888188735596138
