Time,J,A,S,tau,r
0.0,1.0,1.0,0.6506317368596238,16.949152542372882,0.0
1.0,8.771284640396061,4.182782859685532,0.6505774748456065,16.908111431883746,0.032896202925608575
2.0,28.409680888602864,7.271490430758038,0.6505223288526333,16.865567417086126,0.032918647450963595
3.0,58.04135431029398,10.26885132705817,0.6504662961215213,16.82152628535941,0.03294101301213572
4.0,96.04195020153622,13.17751313663843,0.6504093752533153,16.775995396442628,0.032963287071679316
5.0,141.0024109653007,16.000052623087768,0.650351562056857,16.728981016065607,0.032985474033034826
6.0,191.70071281016976,18.73897047366578,0.6502928569459067,16.680490663108042,0.0330075686652893
7.0,247.0760576704664,21.396695739430918,0.650233257212498,16.63053248594117,0.03302956587325432
8.0,306.2084820399599,23.975585695830723,0.6501727637115194,16.57911588651586,0.03305145810092187
9.0,368.2999415030844,26.477931120501026,0.6501113827368938,16.52625052314858,0.033073240268984325
10.0,432.6575485678859,28.905958041445356,0.6500491034731258,16.471946258915473,0.03309490865816537
11.0,498.68297372180376,31.26183046100968,0.6499859336800936,16.41621261785996,0.033116461851260215
12.0,565.8569346697391,33.5476432231055,0.6499218784485996,16.35906248193825,0.03313789005413203
13.0,633.7319667928948,35.76545774662926,0.6498569308747763,16.300498948784654,0.03315921036877868
14.0,701.9217110483273,37.91724174102322,0.6497911046338465,16.24053872343422,0.03318040416270275
15.0,770.0926254453431,40.00491685847565,0.6497243965113052,16.179194716437706,0.033201465811134305
16.0,837.959962322023,42.0303558562294,0.6496568115966,16.11647845491889,0.03322239384945039
17.0,902.6897684793198,47.187580208222265,0.6496528667534532,16.117296543814035,0.03302651172852023
18.0,960.7102854713685,60.38310397241173,0.6496361389079741,16.08940493883813,0.032835444460761545
19.0,1009.4230292089476,80.36114513005505,0.6496193499704703,16.061050456991776,0.032664471139366526
20.0,1042.1018407990707,105.96636298912924,0.6496026089534914,16.032450650095825,0.03251074603747356
21.0,1053.4576179269616,136.20603032106766,0.6495859451782753,16.0038633142742,0.03237204024545678
22.0,1042.395761377864,170.22562900703105,0.6495693331239717,15.975562366949678,0.0322465573562109
23.0,1011.4332670377768,207.28752417787697,0.6495527556742503,15.94780663326779,0.0321328041679379
24.0,964.8175955003838,246.75220594532544,0.6495362536324626,15.9208136425533,0.03202950608118454
25.0,906.9452884516763,288.0614924893518,0.6495199241740216,15.894746401527348,0.03193547898012235
26.0,841.5349702473862,330.72658280057107,0.6495039051214,15.869709148199744,0.031849637031945294
27.0,771.4097413692454,374.32008078901686,0.6494883175836652,15.845755148681466,0.03177100146497604
28.0,698.583223787349,418.4691904173025,0.6494732501970192,15.822894455853703,0.031698661952575556
29.0,624.4453898264246,462.85094812464536,0.6494587647586368,15.801112156358563,0.031631766581404305
30.0,549.9402201858636,507.18999476667204,0.649444885247127,15.78036689087706,0.03156959557046377
31.0,475.70747206732983,551.2539118800887,0.6494316223567324,15.760610119684173,0.03151149501193164
32.0,402.18454626503035,594.8497943392083,0.6494189535716023,15.741775515677789,0.031456944292474094
33.0,328.77749817762367,638.7113115571219,0.6494068689413932,15.72380779983679,0.031405485592148646
34.0,255.03134975858583,683.368123613275,0.6493953415451822,15.706638372377276,0.03135673529611054
35.0,185.02353660501996,724.791474233902,0.6493843330426808,15.690210112359482,0.03131042587186983
36.0,124.41978914177278,757.3662795277451,0.6493738084043907,15.67446569271475,0.03126632962008331
37.0,76.69845509913488,777.6692969715666,0.6493637329769766,15.65935126744782,0.031224263451473683
38.0,42.09062056912219,785.5214818246675,0.6493540756274884,15.644819356812977,0.031184071515584146
39.0,18.611304366003587,782.948900572962,0.6493448026910473,15.630824509977733,0.03114562958602254
40.0,3.5041135675321753,772.7349149049921,0.6493358894747462,15.61733100193871,0.031108826073654543
41.0,-5.799110730583115,757.4609063494996,0.6493273071097232,15.604303814736262,0.0310735681659639
42.0,-11.29600856102649,739.12689621439,0.6493190279841238,15.591709088593618,0.031039774311992573
43.0,-14.386959728924298,719.1283271021645,0.6493110287818726,15.579518398634391,0.031007369982997312
44.0,-15.99169210635062,698.3755060139398,0.6493032898018685,15.567708080907366,0.03097628837598414
45.0,-16.688786311370347,677.4354363617357,0.6492957925403487,15.556257458580998,0.030946465079707837
46.0,-16.831459745074287,656.6489055993924,0.6492885222383747,15.545147759940658,0.03091783610964709
47.0,-16.62999384505215,636.2140948815543,0.6492814632500097,15.534362033612592,0.030890342775541743
48.0,-16.206299956863003,616.2417796721585,0.6492746037136422,15.523886624846003,0.030863927291427604
49.0,-15.626800401005202,596.7886956429962,0.6492679292663358,15.513708120673634,0.030838541551789472
50.0,-14.925999061450582,577.8816001815036,0.6492614364643244,15.503816997093267,0.030814124367367853
51.0,-14.121736640446453,559.5326740321942,0.6492551123399706,15.494204235097941,0.030790629632549988
52.0,-13.218397992996398,541.74302654036,0.6492489555218413,15.484863910180199,0.03076801456848358
53.0,-12.209611849242233,524.5056602900169,0.6492429574793642,15.475787717679326,0.030746228652391124
54.0,-11.081836280072775,507.8092208189758,0.6492371134927072,15.46697257774739,0.03072523472815552
55.0,-9.81673245709811,491.6405864274222,0.6492314244212942,15.458416884016764,0.030704987913959567
56.0,-8.392173988354804,475.98607071597394,0.649225886245924,15.450118222736943,0.03068545349853036
57.0,-6.782868436784618,460.8321602357891,0.6492204958190311,15.442073715070922,0.030666594673691698
58.0,-4.96053558445887,446.165867759045,0.6492152553873682,15.434285128149245,0.030648373172251827
59.0,-2.894053323263265,431.97488178424607,0.6492101664674605,15.426753210041015,0.030630751947787162
60.0,-0.5495271518137707,418.2477156701882,0.649205231991855,15.419478994489177,0.03061369591534149
61.0,2.1095629381689713,404.97378892110106,0.6492004551948637,15.412465285467276,0.03059717219864654
62.0,5.122119440307827,392.1435361113993,0.6491958407923111,15.405715169802548,0.03058114675421867
63.0,8.52913640589269,379.7485094848525,0.6491913936728795,15.39923265839418,0.030565589500192614
64.0,12.37330972860985,367.78146031825634,0.6491871174613274,15.393021232322464,0.030550473292217304
65.0,16.698433638347975,356.23646526341275,0.6491830174712753,15.387086024638466,0.030535770842912358
66.0,21.54870158740402,345.10908172902253,0.6491790992442183,15.381431305614294,0.030521456132891405
67.0,26.967866388113592,334.3963128704982,0.6491753677505072,15.376062931766034,0.030507504571494398
68.0,32.9981603547239,324.0969238357201,0.6491718288331164,15.370986288615413,0.03049389432525954
69.0,39.67898371543517,314.21142052692227,0.6491684882614671,15.366206849413317,0.03048060355818246
70.0,47.04564351437552,304.74224921590326,0.6491653530356664,15.361730898547055,0.030467611093546232
71.0,55.127505287731225,295.6938531571554,0.6491624269059129,15.357560886432285,0.03045489581551947
72.0,63.94643932412084,287.07264017579695,0.6491597139364662,15.353705306016705,0.0304424470092907
73.0,73.51446924645077,278.8874287164213,0.6491572208738724,15.350167722481427,0.030430242324740127
74.0,83.83195776141974,271.1492065372643,0.6491549521022857,15.346953474558573,0.03041826883906875
75.0,94.88524961913977,263.871172375877,0.6491529124041515,15.344067503610646,0.03040651215174878
76.0,106.64464418119368,257.0689638008959,0.6491511067455155,15.341512217635175,0.030394954360201964
77.0,119.06263183681686,250.76012184643534,0.649149538000203,15.33929300562901,0.030383586975564623
78.0,132.0718957365477,244.96452319960767,0.6491482091945006,15.337412969367389,0.03037239865925925
79.0,145.58376100888296,239.70370671960384,0.649147122046278,15.335874657281716,0.03036138007025974
80.0,159.48730398451616,235.001274901975,0.6491462810344758,15.334680196573778,0.03035051829668322
81.0,173.64913704539939,230.8816664715935,0.6491456880068326,15.333832250689099,0.03033980703046595
82.0,187.91489826061775,227.3700739206819,0.6491453422391108,15.333333271098725,0.03032924236231171
83.0,202.1092753524544,224.4923894672021,0.6491452471048791,15.333183085653388,0.030318811339397563
84.0,216.03961853428984,222.27398478383884,0.6491453977695688,15.333378041676399,0.030308509375576335
85.0,229.49849005321786,220.73865102246378,0.6491457997992143,15.3339228862946,0.03029833145867947
86.0,242.26982618240498,219.90818531047032,0.6491464483046422,15.334813979604151,0.03028827202802077
87.0,254.1333335339371,219.8011522896436,0.6491473424951141,15.33605014746238,0.030278326881243604
88.0,264.8716237456335,220.4315897924254,0.6491484789483043,15.337627558267583,0.03026849142793893
89.0,274.2774852363097,221.80830420812194,0.6491498553849772,15.339543976538348,0.030258763020189688
90.0,282.16118756080834,223.93274935496618,0.6491514696150352,15.34179635136429,0.030249138117886862
91.0,288.3582266307101,226.79800602636195,0.6491533173979775,15.344380193524126,0.0302396136806919
92.0,292.73758999686675,230.387561596333,0.6491553944774158,15.34729230310189,0.030230188117004314
93.0,295.20653568686356,234.67414548464902,0.6491576966607346,15.350528119837069,0.030220859486297078
94.0,295.7161956401638,239.6186149626982,0.6491602191145067,15.354082604416915,0.03021162618739591
95.0,294.26417682885165,245.16925843135832,0.6491629576851773,15.357951212386494,0.03020248643529492
96.0,290.896202645565,251.2612560596488,0.6491659054351065,15.362127184634222,0.030193439562315263
97.0,285.7046339511017,257.81655164846694,0.6491690570119857,15.366605841805537,0.03018448460980412
98.0,278.82478562113647,264.7446686599162,0.649172406403942,15.371381022209215,0.03017562091994207
99.0,270.4298948770938,271.9435440395916,0.6491759489126462,15.376447779904424,0.030166846839648775
100.0,260.7250191757969,279.30111909425307,0.6491796777651494,15.381799975525537,0.03015816222281747
101.0,249.9388510020114,286.69746434473666,0.6491835856852741,15.387431123766625,0.030149565725041946
102.0,238.3151556968229,294.00785014737994,0.6491876683993324,15.393336381086085,0.030141055739404978
103.0,226.1058375740523,301.104797848736,0.6491919211206169,15.399512076333782,0.030132633304360692
104.0,213.56132243560378,307.86372742517534,0.6491963378617749,15.40595281132617,0.03012429543001411
105.0,200.92446241932242,314.1655859691973,0.6492009135910057,15.412652783732531,0.03011604001020252
106.0,188.42444144577112,319.89999463114026,0.6492056443911183,15.419610136348766,0.030107866563176773
107.0,176.27015855239964,324.97059417269014,0.649210526215779,15.426821236181544,0.030099772254378446
108.0,164.64664573797845,329.29778847229056,0.6492155551438286,15.434282244852245,0.030091753898067383
109.0,153.71251339501632,332.82072120259,0.64922072904839,15.44199246554578,0.030083809322307437
110.0,143.59678426876798,335.50041359405753,0.6492260460046758,15.44994922910465,0.03007593323532784
111.0,134.40116632366593,337.31850397071327,0.6492315045702384,15.458153802044713,0.030068123453269893
112.0,126.19795253697608,338.2791347973921,0.6492371053356348,15.46660618493778,0.030060373808032313
113.0,119.03457011894766,338.40582150182183,0.6492428490074088,15.475307603261584,0.030052680132955995
114.0,112.93540189749392,337.73977004619337,0.649248737745363,15.484261362295385,0.03004503694674144
115.0,107.90542195718422,336.3370005553184,0.6492547750349014,15.49347128769341,0.030037437416365644
116.0,103.93416621890157,334.2647144708608,0.6492609654960236,15.502942018430895,0.030029874494423427
117.0,101.00013915759853,331.5976687991108,0.6492673148050804,15.51268026265612,0.03002234091363735
118.0,99.07374689735464,328.4150832168375,0.6492738305286363,15.5226940711193,0.030014828490670727
119.0,98.120505606869,324.79760326987065,0.6492805214776677,15.532992901515192,0.030007328006870664
120.0,98.10380032294314,320.82468652244813,0.6492873976686184,15.543588484313153,0.029999831426650136
121.0,98.98586978715338,316.57343915053787,0.6492944719510536,15.554493337322569,0.029992326396508995
122.0,100.72953662476034,312.11648890964227,0.6493017581185688,15.565722571353113,0.029984802616982505
123.0,103.29854065280973,307.5216920772038,0.6493092714018666,15.57729365669581,0.02997724891177077
124.0,106.65699425349294,302.8517667666724,0.6493170294696212,15.589226482692915,0.029969653434793762
125.0,110.76905582952386,298.1642578552552,0.6493250533658752,15.601544245177957,0.02996200359117603
126.0,115.59861393179983,293.51183210045,0.6493333630833525,15.61427156340338,0.029954286831100196
127.0,121.1073247186465,288.9425724133276,0.6493419829063923,15.62743723021034,0.02994649093287279
128.0,127.25453932572717,284.50026946987055,0.6493509367601211,15.641073641775467,0.029938606620534415
129.0,133.99527443480898,280.2255105048863,0.6493602546458843,15.655216536041141,0.029930618441063435
130.0,141.2803326868832,276.15532857651175,0.6493699623149135,15.669903401879907,0.02992252095182966
131.0,149.05404695901967,272.32385248145687,0.6493800939314867,15.685180638979201,0.029914303708687095
132.0,157.25503082564492,268.7625159977332,0.6493906795369627,15.701094465817148,0.029905965207014763
133.0,165.81536587766078,265.5000073345627,0.6494017504147015,15.717696594148087,0.029897507046084227
134.0,174.66033174277646,262.5622405015109,0.6494133375194233,15.735041733921816,0.02988893686039065
135.0,183.7093870403329,259.9720063850408,0.6494254704025129,15.753187746236234,0.02988026697548266
136.0,192.87654084595988,257.7482844398121,0.649438177408455,15.772195016866439,0.029871516438883344
137.0,202.07299977804882,255.90518257608178,0.6494514754550925,15.792120026699608,0.029862712649571473
138.0,211.20854982446866,254.45077290999873,0.6494653693486555,15.813013869294577,0.02985388954142824
139.0,220.19328281176593,253.38665887369294,0.6494798584511142,15.834923262577787,0.0298450758640471
140.0,228.94008631959906,252.70672315988423,0.6494949090999351,15.857872805443787,0.029836306761352946
141.0,237.36436968614083,252.39878073700797,0.6495104605063549,15.881862591909147,0.02982761366884888
142.0,245.38252091894375,252.44868265434974,0.649526431567258,15.906865464443065,0.02981900768748469
143.0,252.90760785503815,252.84515396875057,0.6495427113938248,15.932805771250969,0.029810497721803646
144.0,259.84583420050853,253.58719411381333,0.6495591937881358,15.959561336533321,0.02980206896288129
145.0,266.09411027364683,254.68603674461528,0.6495757949212962,15.986957057134537,0.029793702334054595
146.0,271.54363203793133,256.1660214032366,0.6495924731800338,16.01477337851188,0.029785360030357484
147.0,276.0883901301042,258.0573354420412,0.6496092114599377,16.042763813719628,0.02977700384084821
148.0,279.6346908997558,260.3879116556362,0.6496259787973239,16.070677502515146,0.0297685972561075
149.0,282.1130226270399,263.1724021812673,0.649642691714291,16.098282661631227,0.029760111781020514
150.0,283.4847016410271,266.4060563475898,0.649659226199384,16.125391529876126,0.029751532795980983
151.0,283.74379391603964,270.06355730503304,0.6496754470424136,16.151867472840596,0.029742860304126366
152.0,282.91597950000886,274.10082725245894,0.6496912179650672,16.177615413349734,0.029734113948298974
153.0,281.05055456362487,278.46108924579545,0.6497064470269212,16.20259297327159,0.02972532442309293
154.0,278.21575106262827,283.0807249013668,0.6497210669067379,16.22678713732777,0.029716532930797162
155.0,274.49247766387674,287.8940429368283,0.6497350467163819,16.250218596111072,0.029707780140081585
156.0,269.97203624638183,292.83506384457536,0.6497483759351944,16.272924570996963,0.02969910477650673
157.0,264.75445961633966,297.8380318858535,0.6497610633373797,16.29495792161945,0.02969053694125277
158.0,258.94712179913705,302.8374577362419,0.6497731310631556,16.316380382775325,0.029682097424743637
159.0,252.66125414741296,307.7703837965087,0.6497846124298291,16.33725689505698,0.02967379451777787
160.0,246.01166306803196,312.57496922666513,0.6497955472900796,16.35765724723866,0.02966562855946258
161.0,239.11226129324996,317.19387851815196,0.6498059820208744,16.377649189636777,0.029657589838225657
162.0,232.07546922397142,321.5734320517377,0.6498159663188566,16.397300069212797,0.029649663948958724
163.0,225.00964207252542,325.66538337856343,0.649825553275219,16.416676892306107,0.029641830351814533
164.0,218.0180119463621,329.42686932753077,0.6498347974281434,16.43584531713905,0.029634065820819764
165.0,211.1955109987872,332.8222688809216,0.649843757057746,16.454868970105377,0.0296263438922355
166.0,204.6303732779478,335.8218863447963,0.6498524903127598,16.47381251991994,0.02961863857182963
167.0,198.4012492509027,338.40384494776447,0.6498610566875823,16.492740131445004,0.029610921803787053
168.0,192.57738606708878,340.55315745769184,0.6498695204675542,16.511716873256937,0.0296031665396809
169.0,187.21851238139257,342.2626544642334,0.6498779438952472,16.530808768877606,0.02959534499619945
170.0,182.37463277923237,343.53205424352836,0.6498863916395271,16.550084316433914,0.029587430636959407
171.0,178.08705206439436,344.36791796874587,0.6498949275550248,16.569614313481832,0.029579398375959014
172.0,174.38736451816496,344.78344239788447,0.6499036183169942,16.589474183073513,0.029571224068019042
173.0,171.29842032011305,344.79770517019864,0.6499125336592605,16.609743306928518,0.029562885468522582
174.0,168.83638036304825,344.43395558238717,0.6499217409788655,16.630506491970163,0.02955436623127514
175.0,167.01069408078368,343.7196924296133,0.6499313059390841,16.651853992974775,0.02954565580570872
176.0,165.8244832661416,342.68563536846926,0.6499412956231249,16.673882384268094,0.02953675077705786
177.0,165.2762123330562,341.3646416390033,0.6499517723436435,16.6966930433657,0.029527660013655005
178.0,165.35991425742026,339.79113359498933,0.6499627914117609,16.72039138893636,0.029518402250897746
179.0,166.06824308383128,337.99815168120784,0.6499743975710384,16.745084288241372,0.029509012993916783
180.0,167.3936225185565,336.015918460671,0.649986617201474,16.770872818622742,0.029499539323588037
181.0,169.3316380876208,333.8684407401813,0.6499994471045969,16.797846785932578,0.02949003799851576
182.0,171.8826542974647,331.57173405914006,0.6500128355564737,16.826071283021665,0.02948056723752405
183.0,175.05187031081667,329.13296386296173,0.6500266546200806,16.85557065686978,0.029471179026113483
184.0,178.84480632849423,326.55446424327914,0.6500406860997865,16.88631235415084,0.02946190576375258
185.0,183.2564166218875,323.84444451494255,0.6500546236100578,16.91818025889898,0.029452759094918304
186.0,188.2553121690406,321.0320891770011,0.6500681698068836,16.950962153960926,0.029443719007193548
187.0,193.77366468612598,318.17852266714675,0.6500811786236922,16.984333519228443,0.029434744641301178
188.0,199.70827487647645,315.3728952082384,0.650093755412671,17.017876645685593,0.029425781967065617
189.0,205.94025933049068,312.7165779094008,0.6501061539505695,17.051138329493448,0.02941677229714878
190.0,212.35939396203705,310.2977164441908,0.6501185321830903,17.08370396915819,0.029407664139525332
191.0,218.88210611818783,308.1721317129457,0.6501308202806951,17.115257897346993,0.029398423344870802
192.0,225.4547325388464,306.3610646167861,0.6501427813594983,17.14559776554908,0.029389036031305188
193.0,232.04294912624212,304.86190827876834,0.6501541563161705,17.174622529752387,0.02937951015650549
194.0,238.61723291384473,303.6623341711227,0.6501647566447644,17.202315617137753,0.029369872337129736
195.0,245.14348971172146,302.75072307380555,0.6501744695801466,17.2287075748095,0.02936016158557836
196.0,251.57901924873886,302.12076437085227,0.6501832568978627,17.25387053224464,0.029350420636592017
197.0,257.8733955425831,301.77193863433865,0.6501911243176132,17.277896688766194,0.029340688650683195
198.0,263.9698972998976,301.70817429168414,0.6501981107831438,17.300890139331223,0.029330996493799194
