Time,J,A,S,tau,r
0.0,1.0,1.0,0.8212636156482086,2.247191011235955,0.0
1.0,4.030007932386942,3.70977051312728,0.8053077348414565,2.387042432961044,0.028821852784769366
2.0,12.709283203385832,6.146911888255353,0.7896482730701605,2.5270225420866215,0.02853134883694909
3.0,25.40474727496517,8.596977320014025,0.7761921930624025,2.653631449710929,0.027679646853514744
4.0,40.21313614047852,14.697805887394543,0.7761624192177086,2.653924289631158,0.02578626124825087
5.0,61.56950958357444,24.550559799351404,0.7761510684269504,2.6540390282602715,0.02464929680464589
6.0,89.58943867976296,37.41865016908681,0.7761579144013272,2.6539787104635963,0.023891065256657167
7.0,117.30410582287456,56.957993932492535,0.7761831743871815,2.6537403118551786,0.02334970790673913
8.0,138.02695614789482,84.9329048327501,0.7762269273055744,2.6533233736311206,0.022944291751083166
9.0,146.71377478622452,119.45624767178735,0.7762887998724849,2.6527318867671044,0.02262984653937973
10.0,142.07153599893164,157.44354532613937,0.7763690328345377,2.6519632915085065,0.02237940582145303
11.0,129.0870453662291,193.67275358116225,0.7764673790076518,2.6510202644550693,0.022175792398026587
12.0,114.67014885932937,223.45110751182173,0.7765842390172478,2.649898698997256,0.02200756203983829
13.0,102.89323329222694,245.28618525755698,0.776719453168044,2.6486001980383467,0.021866788007757272
14.0,94.56854836559761,260.3166115104467,0.7768731814200042,2.64712324043084,0.02174780600250231
15.0,89.0637065147854,270.4215224072561,0.7770452845272693,2.6454696593003892,0.021646462901785467
16.0,85.50185689586867,277.22295429413305,0.7772356529611963,2.6436409735741155,0.021559640783137112
17.0,83.16342162003436,281.88188634697815,0.7774442848073041,2.6416373516468945,0.021484955394261027
18.0,81.55885771699333,285.15635426405163,0.7776711822689873,2.6394589588367463,0.02142055199739476
19.0,80.38804189297154,287.5170112027619,0.7779163746361959,2.637105659212237,0.021364965112820718
20.0,79.4760060869816,289.2528144339281,0.7781796912375897,2.63457981081984,0.021317018830348547
21.0,78.72132584140144,290.544454361816,0.7784611944678365,2.6318808662461257,0.021275762362981725
22.0,78.06430178419586,291.5093731884137,0.7787607304899224,2.629010959152246,0.021240414799290744
23.0,77.4681020385577,292.2272470783648,0.7790782335752445,2.6259711121426723,0.021210330574832827
24.0,76.90901853675092,292.7543692669815,0.7794135907630787,2.6227629163403026,0.021184970165285227
25.0,76.37100985841874,293.13182235801395,0.7797667064029224,2.619387749952746,0.02116387927684998
26.0,75.84312932112005,293.39008358107395,0.7801373033486694,2.615849237518452,0.02114667143554364
27.0,75.31714746983624,293.55264856387953,0.7805253002376026,2.612148490775251,0.021133016410722228
28.0,74.78749105612293,293.63720294502207,0.7809303820206784,2.6082894854377123,0.021122629596423102
29.0,74.24975701644577,293.65752903751456,0.7813523025014371,2.6042753055981693,0.021115264500507512
30.0,73.70076544099592,293.62425641641244,0.7817907714294029,2.6001095687721274,0.02111070610951924
31.0,73.13850205524467,293.5455501032734,0.7822453333145925,2.595797818919636,0.021108765029504113
32.0,72.56125486638743,293.4278943220859,0.7827156558749524,2.591343957141554,0.02110927550011709
33.0,71.9683679277039,293.2760356279124,0.7832011770407755,2.586754797902876,0.021112088629471417
34.0,71.35939116442184,293.09341528146905,0.783701206115462,2.582038617733878,0.02111707170258701
35.0,70.73397061361052,292.8830544626065,0.7842152433520871,2.5772009730322623,0.0211241076044825
36.0,70.09249134571178,292.6468600290182,0.7847425281960632,2.5722508217739835,0.021133088818005033
37.0,69.43529830620308,292.38617318364965,0.7852822784235483,2.5671972366613147,0.02114391853783163
38.0,68.76311660219972,292.10188011529743,0.7858335554060707,2.5620509442170674,0.02115650856851093
39.0,68.07689456585078,291.79445390588046,0.7863953982467662,2.5568229456996003,0.02117077803801073
40.0,67.37772473848288,291.46412878738806,0.7869668066040293,2.5515246420677467,0.021186652264984826
41.0,66.66667705501409,291.11086427611093,0.7875466742770484,2.546168504840581,0.0212040626784361
42.0,65.9449617699905,290.7344831075907,0.7881338763733656,2.5407672126292975,0.02122294573872502
43.0,65.21419391886742,290.3345723964378,0.7887271706364715,2.535334776177754,0.021243241309671586
44.0,64.47574520194489,289.91070330926254,0.789325316733528,2.529885056332274,0.02126489357341722
45.0,63.73095913497719,289.4624453146095,0.7899271381095141,2.524431069740321,0.02128785051641377
46.0,62.981560310764046,288.9892088446184,0.7905313055883548,2.5189876639514583,0.021312061797209347
47.0,62.22902378031487,288.4904864989837,0.7911366276415495,2.5135679917221028,0.021337480380659062
48.0,61.47503236834211,287.9656669245606,0.7917418471083677,2.5081860422747493,0.021364060797512036
49.0,60.721215575983976,287.4142028225717,0.7923457725887197,2.502854918236596,0.021391759846287578
50.0,59.969130830011906,286.8357694028207,0.7929472659521455,2.4975871139660346,0.02142053564566054
51.0,59.220300836141014,286.22992871028345,0.7935452634418705,2.492394267108976,0.021450348315918435
52.0,58.476337737417175,285.596443491266,0.7941387428048375,2.4872875708429705,0.02148115850744858
53.0,57.738464331216285,284.9352396990626,0.7947268182681855,2.482276540236728,0.021512928674017204
54.0,57.008026692011335,284.2462661781183,0.7953086855214483,2.477369919794984,0.021545622165741248
55.0,56.28650534017088,283.5295948294956,0.795883532033633,2.4725764834054327,0.021579202386515627
56.0,55.575077510498616,282.78548978803565,0.7964506933718272,2.4679033525156187,0.021613633965532845
57.0,54.87478763718578,282.01432760850776,0.7970096136593124,2.463356358469215,0.021648882360222863
58.0,54.18662055392137,281.21666794494365,0.797559767809627,2.458941112813497,0.021684913515638303
59.0,53.5115845802792,280.3931212601233,0.7981007111603095,2.454662175301656,0.021721693653003343
60.0,52.85042956622301,279.54459902646477,0.7986320995637762,2.4505231233495404,0.021759189434982538
61.0,52.20405930693919,278.67192780669575,0.7991535604865796,2.4465279259070547,0.02179736758228621
62.0,51.572850737268766,277.77632983312606,0.7996649290022041,2.4426779039088307,0.021836196446171578
63.0,50.957543903382934,276.85902601210887,0.8001659463275971,2.438975748120648,0.021875642933757135
64.0,50.358531739124516,275.9213537536927,0.8006564684506121,2.435422726161759,0.021915675336857735
65.0,49.7761495466478,274.9648295787137,0.801136385015448,2.4320197243914192,0.02195626184131086
66.0,49.210929794917156,273.9909129797577,0.8016055228942655,2.4287685310276466,0.02199737036801289
67.0,48.66276475940471,273.0013981784898,0.8020639190553455,2.4256682141352277,0.022038970519866006
68.0,48.131934499636266,271.9980191752129,0.8025114961735373,2.4227194354340265,0.022081030626355216
69.0,47.61853078413477,270.9825858006649,0.8029482238974337,2.4199222675650334,0.022123519729978443
70.0,47.12267718146248,269.95691751862466,0.8033740646516372,2.417276796120867,0.022166407163688534
71.0,46.64447241531834,268.92287783793046,0.8037889917731411,2.414783044277161,0.022209662121647433
72.0,46.183857427024236,267.88248682007526,0.8041930140704191,2.4124406625650283,0.022253254197862737
73.0,45.74078617432645,266.8376924002419,0.8045861447826674,2.4102493904782585,0.022297152836928222
74.0,45.315102608877865,265.79063631292723,0.8049683764944102,2.408208602624311,0.022341329189159674
75.0,44.90674570383429,264.7432202601236,0.8053397225225835,2.4063180569180926,0.02238575268818389
76.0,44.51562706007812,263.69747465936246,0.8057001647711722,2.404577749518791,0.022430393468940917
77.0,44.141453762473624,262.65554761593637,0.806049761851172,2.402986714758736,0.02247522234052032
78.0,43.78432221549491,261.61912392470174,0.8063884216069899,2.4015456622475266,0.0225202102735492
79.0,43.44405809864366,260.59011984500285,0.8067161738614398,2.400253974180884,0.022565328110588912
80.0,43.120475975741755,259.5706609142132,0.80703297391389,2.399111896023069,0.022610547733392328
81.0,42.8134805388412,258.56243496887964,0.8073388187907667,2.3981191450084283,0.02265584004146769
82.0,42.52286530052611,257.56739128711837,0.8076336562624248,2.397275979931535,0.022701177759719103
83.0,42.24841141682843,256.5873264697313,0.807917518739462,2.3965818821946456,0.022746532180784255
84.0,41.989964463531685,255.62393151020743,0.8081903394588608,2.3960371801683165,0.022791876469595195
85.0,41.74727614659312,254.67891572495978,0.8084521062231536,2.3956415722379267,0.022837183584094416
86.0,41.5202450092365,253.75380135341987,0.8087027636316745,2.3953954133817854,0.022882426679036474
87.0,41.3087369670055,252.85017449603018,0.8089422418397388,2.395299157039764,0.02292757955585723
88.0,41.112353039860814,251.96968617582726,0.8091705798849879,2.3953519848472236,0.0229726160012093
89.0,40.930982702459445,251.11362538429614,0.8093876937092478,2.3955543820265017,0.023017510686687323
90.0,40.764369753891266,250.2834156288193,0.8095935523715485,2.395906358026869,0.023062238444359298
91.0,40.61239350953919,249.48022510511151,0.80978807172301,2.3964084325013846,0.023106774818247702
92.0,40.47472367569215,248.70539152218137,0.8099712533028836,2.3970601575647734,0.02315109555851309
93.0,40.35113806071727,247.96009803047988,0.8101430546445914,2.397861566261662,0.023195176935261786
94.0,40.241364924081864,247.2454687349672,0.8103034353901107,2.398812649773647,0.02323899576533356
95.0,40.14511595711833,246.56245431497672,0.810452368218605,2.399913188558093,0.023282529522583556
96.0,40.06204918139651,245.91215620937643,0.8105898605143936,2.401162568983513,0.023325755982001137
97.0,39.99201186601675,245.29531375456355,0.8107158118078369,2.402561493488804,0.023368653555884977
98.0,39.93468415776569,244.7127332920663,0.8108302310834502,2.4041090183068823,0.023411201577191516
99.0,39.88976853425683,244.16518865637096,0.8109331031809679,2.405804833619538,0.02345337899692316
100.0,39.85695142233421,243.65336743092558,0.8110243951117315,2.407648724400278,0.02349516670479396
101.0,39.83592793175999,243.1779494201589,0.8111040936081175,2.4096408162143756,0.023536544899587064
102.0,39.82634735117094,242.7394885209086,0.8111722191426328,2.4117798125393946,0.023577495036813733
103.0,39.8278640835706,242.33842082492492,0.8112287668226752,2.414065104155412,0.02361799953658254
104.0,39.84008158777181,241.9752519676035,0.8112737818845361,2.4164953080273297,0.023658040503488346
105.0,39.862648016363345,241.6503607090413,0.8113072992491251,2.419069529993205,0.023697601781082482
106.0,39.895267040277524,241.36404934854875,0.8113293011373187,2.4217876708794948,0.023736666909684605
107.0,39.937370420390415,241.1166599687393,0.8113399323490377,2.4246468607483167,0.023775220214649017
108.0,39.988742530632585,240.9083426775531,0.811339198123427,2.4276469248468024,0.023813247567112422
109.0,40.04886291241497,240.7393310620299,0.8113271990315422,2.430785309102937,0.023850734443321673
110.0,40.11731120402225,240.6096795533821,0.8113040431250684,2.434060300406342,0.023887668082094082
111.0,40.19371397979491,240.5194360714616,0.8112698279753224,2.4374701330911077,0.023924035738039803
112.0,40.27759458162645,240.46865682315737,0.8112246953257589,2.4410124612718884,0.02395982617812137
113.0,40.36842873222126,240.45738556504685,0.8111688079262696,2.444684557071448,0.023995027489124153
114.0,40.465789446384015,240.48548006026897,0.811102303451376,2.4484840843438858,0.02402962913607635
115.0,40.56925456187038,240.55278368358998,0.8110253562866655,2.452408354684667,0.024063621660953504
116.0,40.6783011080371,240.6591718266625,0.8109381868153919,2.456453853393209,0.024096995376218143
117.0,40.79229023751865,240.80456350754875,0.8108410656783974,2.4606167136286343,0.024129741868336725
118.0,40.91083161978003,240.9885956871399,0.8107341823984526,2.4648942529207014,0.02416185342790475
119.0,41.03345109133278,241.2109741914491,0.8106177794911628,2.4692827779774253,0.024193322810040302
120.0,41.15959903234879,241.47131133484925,0.8104921712919181,2.473777876084059,0.024224143706218056
121.0,41.28874738923247,241.76931253778415,0.8103576651067614,2.4783752794012144,0.024254310298861496
122.0,41.42057721304022,242.10435547761927,0.8102145016750704,2.4830714984221642,0.024283817387611185
123.0,41.554385967591,242.47610034423,0.8100631070965634,2.487860828173759,0.02431266101839275
124.0,41.68979392148378,242.8839483327831,0.8099037882090702,2.4927390139166263,0.024340837729921957
125.0,41.82643963779895,243.32717902912032,0.8097368431770462,2.4977020637180667,0.024368344194378097
126.0,41.963842237596644,243.8051432591765,0.8095626873432769,2.502744208871232,0.0243951782583263
127.0,42.10154168804705,244.31715271925202,0.8093816939540642,2.507860736538978,0.024421338460042363
128.0,42.239046076605604,244.8624723958105,0.8091942849080267,2.5130459191056924,0.02444682379518258
129.0,42.37595919600098,245.44023283307533,0.8090008307157797,2.518294922598173,0.024471633930803382
130.0,42.511910482054866,246.04958866020664,0.8088017344971655,2.5236021677993996,0.02449576990824376
131.0,42.64645838363154,246.68963385489957,0.8085973883554528,2.528962525435914,0.024519232561410954
132.0,42.77928725290963,247.35940499887383,0.8083881535147253,2.534371126653999,0.02454202377988535
133.0,42.909858089452506,248.05798647070102,0.8081744984476527,2.539821694677291,0.02456414635506539
134.0,43.03786539743081,248.78434521976448,0.8079567755326418,2.545309681756507,0.02458560324258312
135.0,43.163032789802166,249.5373935477711,0.8077353617749535,2.5508298663315134,0.024606398374454608
136.0,43.28497386655094,250.3159556345571,0.8075106575526062,2.556376783537832,0.02462653660380516
137.0,43.40344280093054,251.1188903464998,0.8072830510924909,2.561945209721013,0.02464602294229229
138.0,43.51819016857397,251.94490732044133,0.8070529186419703,2.567529916643812,0.024664863421393356
139.0,43.62913460325553,252.79268014390192,0.8068205802359274,2.5731263460690514,0.02468306460912058
140.0,43.73614718787204,253.66078521825332,0.806586392399932,2.578729514696023,0.024700633734542333
141.0,43.83912066340359,254.54778590488743,0.8063507091346687,2.5843343138929464,0.024717578683665066
142.0,43.93795010081483,255.45223907247512,0.8061138921353745,2.5899355940112954,0.02473390791721732
143.0,44.03279356488032,256.37255234303854,0.8058761998565175,2.5955294553206842,0.024749630339055684
144.0,44.12357223646203,257.3072110954248,0.8056380013262041,2.6011103641793736,0.024764755736774627
145.0,44.210398158795556,258.25459289748466,0.8053995672676879,2.60667412635819,0.024779294358138818
146.0,44.293380569569194,259.2130948147549,0.8051611839818831,2.612216292773947,0.024793256842078986
147.0,44.37255996209178,260.1811164801615,0.8049231641568617,2.6177318418642326,0.02480665469552754
148.0,44.44797462790577,261.15704847402884,0.8046858171915086,2.6232157714779554,0.02481949980721802
149.0,44.519816123687455,262.1392870412123,0.804449391906563,2.6286638457112668,0.02483180439420507
150.0,44.588225826125516,263.1262184614742,0.8042141362963638,2.634071741257032,0.024843581139640872
151.0,44.65318813923063,264.1162975981125,0.8039803817571997,2.6394339214200895,0.02485484322430159
152.0,44.71486135877826,265.10793567905665,0.8037483518497469,2.644746089845306,0.024865604505306955
153.0,44.77330062403028,266.099652858417,0.803518353296196,2.6500030337179523,0.024875878225063815
154.0,44.828574600204846,267.0898782226465,0.8032906475567323,2.655199877899161,0.024885678522247094
155.0,44.88068941340497,268.0771596180054,0.803065520701129,2.660331262402408,0.024895019970319624
156.0,44.929563785084156,269.0599506066123,0.8028432824918299,2.6653914182625282,0.024903917607889868
157.0,44.97534671912191,270.0368235017877,0.8026241558742281,2.6703757765766776,0.024912385914306303
158.0,45.01809026615068,271.00634994545015,0.8024083950433167,2.6752792176543148,0.024920439702177763
159.0,45.05779147850834,271.9671131930935,0.802196264572459,2.6800963876018806,0.02492809403755427
160.0,45.09446630186854,272.9177539488496,0.8019880139242777,2.6848219986098822,0.02493536410905815
161.0,45.12794333785617,273.8569669125984,0.8017839948248213,2.6894494970402993,0.024942264643945906
162.0,45.15822438823843,274.783402514188,0.8015844396414697,2.693973663828517,0.024948810969141037
163.0,45.18534740685415,275.6957550872413,0.8013895710393699,2.698389456188277,0.024955018045748775
164.0,45.209203564644795,276.5927630783042,0.8011996852844007,2.7026908261097855,0.02496090064372339
165.0,45.229716909068564,277.47315716000355,0.8010150439483487,2.7068720393312793,0.024966473666849863
166.0,45.24675028086566,278.3357105087496,0.800835948657221,2.7109268980146073,0.024971751779645383
167.0,45.26021543000867,279.17919492964364,0.8006626438461755,2.714849834089684,0.024976749872086604
168.0,45.27005030090695,280.00245561828086,0.8004953897224505,2.7186350900343106,0.024981482210185892
169.0,45.27612524709682,280.8042962165276,0.800334441005964,2.722276985561025,0.024985963401305253
170.0,45.27835121057985,281.58357791008433,0.8001800456296319,2.7257699639715645,0.024990207537900003
171.0,45.276543057714015,282.3391973722884,0.8000324935351197,2.729107789664888,0.024994228798225028
172.0,45.27067401816205,283.0700490737587,0.7998919737200122,2.7322856832740947,0.024998041309168682
173.0,45.260443753393695,283.77510699279327,0.7997588426818197,2.7352967054145116,0.025001658558884837
174.0,45.24579937614284,284.453327860635,0.7996332964758832,2.738136040603296,0.025005094376150606
175.0,45.22663662379894,285.1036992322081,0.7995155549777297,2.740798625434927,0.02500836229227545
176.0,45.20277488088826,285.72525110385897,0.7994058802730137,2.7432788899014624,0.025011475691007458
177.0,45.17405616227084,286.3170312758483,0.7993045113018608,2.745571648460699,0.025014447899856563
178.0,45.14040219661826,286.8781303241133,0.7992116477261906,2.7476723892206376,0.025017291944181487
179.0,45.10170870367348,287.40765879145835,0.7991274913259794,2.7495766575235208,0.025020020786190925
180.0,45.05792284092157,287.90478155994447,0.7990522135228726,2.7512805277820447,0.025022647194718174
181.0,45.00893608813358,288.36865443725986,0.7989860039735238,2.7527799831861612,0.02502518384410332
182.0,44.954665566198926,288.7984912117653,0.798929035417913,2.7540713419114673,0.025027643258121804
183.0,44.89514340704574,289.1935055582386,0.7988814137126429,2.7551520528032754,0.0250300377945299
184.0,44.830272181767846,289.5530075040576,0.7988433101886486,2.75601881674779,0.025032379592424082
185.0,44.76012681857606,289.8762952003303,0.7988147870773146,2.756669895918969,0.025034680759685426
186.0,44.68470051986176,290.16275318943826,0.7987959589256356,2.7571031501145264,0.0250369530121724
187.0,44.60410164622329,290.41173191675296,0.7987868461269102,2.7573178959923657,0.02503920812172519
188.0,44.51840360984206,290.6227031791029,0.7987875074551611,2.757313093648376,0.025041457428034278
189.0,44.42777225988821,290.7951054784202,0.7987979167499908,2.7570890839056754,0.025043712307488378
190.0,44.332346027505146,290.92849510059455,0.7988180754500561,2.7566460318530592,0.025045983663060847
191.0,44.23233641383595,291.0224265206074,0.7988479257594794,2.755985054465454,0.025048282445141984
192.0,44.12795871586215,291.0765257269863,0.7988873923366449,2.7551077611069923,0.025050619266672996
193.0,44.019430635705845,291.090501165143,0.7989364035846322,2.7540158706249414,0.025053004368138402
194.0,43.90710114171766,291.06404974928364,0.7989947887175944,2.7527126976245913,0.0250554478982064
195.0,43.791143355301244,290.99700515687726,0.7990624768413795,2.751200228609765,0.02505795977165741
196.0,43.67197667375623,290.88924152054693,0.7991392533014487,2.7494827269123268,0.02506054939774178
197.0,43.54987065046464,290.7407081473303,0.7992249604934593,2.7475637104417157,0.025063226111531296
198.0,43.42514753628766,290.55142903811253,0.799319411696245,2.745447281899243,0.025065998825593763
