Time,J,A,S,tau,r
0.0,1.0,1.0,0.7667039399393523,24.390243902439025,0.0
1.0,0.998493185932029,0.6065274581203515,0.7655517393311349,25.3898745595289,-0.004999999999999999
2.0,0.9970338894174794,0.3678752852314223,0.7644359616269788,26.389505216618772,-0.005000000000000001
3.0,0.9955868333219442,0.22312624784519988,0.7633295598239708,27.389135873708643,-0.005000000000000002
4.0,0.994151020912071,0.13533207498386784,0.762231769823908,28.388766530798517,-0.005000000000000002
5.0,0.9927253812535866,0.08208255845394481,0.7611417706242456,29.388397187888387,-0.004999999999999998
6.0,0.991308872669983,0.04978527529186244,0.7600587636426412,30.388027844978257,-0.004999999999999997
7.0,0.9899005483149069,0.030196111338290164,0.7589820229922962,31.387658502068128,-0.004999999999999991
8.0,0.9884993678974863,0.018314756580128443,0.7579107511277311,32.387289159158,-0.004999999999999988
9.0,0.9871043714362707,0.011108391336038293,0.7568442120672441,33.386919816247875,-0.004999999999999988
10.0,0.9857146347359157,0.00673753907481745,0.7557816972550839,34.38655047333775,-0.004999999999999989
11.0,0.9843291429891715,0.004086499103388712,0.7547224286485098,35.38618113042763,-0.00499999999999999
12.0,0.9829469997180095,0.002478571409769269,0.75366571892082,36.385811787517504,-0.00499999999999999
13.0,0.9815672814440747,0.0015033204855102664,0.7526108600310325,37.38544244460738,-0.004999999999999992
14.0,0.9801890007438339,0.0009118043361722963,0.7515570948973711,38.38507310169726,-0.004999999999999997
15.0,0.9788112940606811,0.0005530338396637425,0.750503761401291,39.38470375878713,-0.005
16.0,0.9774332279462089,0.00033542996115514255,0.7494501438229321,40.384334415877014,-0.005000000000000003
17.0,0.9760538412603339,0.00020344728442125775,0.7483955051988195,41.38396507296689,-0.0050000000000000044
18.0,0.9746722761656981,0.00012339625548111216,0.7473391877619996,42.38359573005676,-0.005000000000000007
19.0,0.9732875770108004,7.48431613514891e-05,0.7462804587340298,43.383226387146635,-0.005000000000000009
20.0,0.9718989874511542,4.539435263175854e-05,0.745218738147383,44.38285704423651,-0.00500000000000001
21.0,0.9705052422886389,2.7532856444693742e-05,0.7441530558512568,45.38248770132638,-0.00500000000000001
22.0,0.9691058082962885,1.6699377887711713e-05,0.743083002934754,46.38211835841625,-0.005000000000000008
23.0,0.967699342425724,1.0128582431176161e-05,0.7420075495292149,47.381749015506124,-0.005000000000000007
24.0,0.9662853755194666,6.1432123830585685e-06,0.7409263358299967,48.38137967259598,-0.005000000000000007
25.0,0.9648624054977217,3.725979607804376e-06,0.7398382100022024,49.381010329685864,-0.005000000000000007
26.0,0.9634294186798333,2.2598635547656685e-06,0.7387423946867863,50.38064098677574,-0.005000000000000006
27.0,0.961984383617299,1.3706358587745592e-06,0.7376373321052498,51.38027164386562,-0.005000000000000006
28.0,0.9605293018216557,8.31299425587905e-07,0.7365245568805248,52.37990230095549,-0.005000000000000009
29.0,0.959061913437703,5.041881041146494e-07,0.7354023360810431,53.37953295804537,-0.005000000000000011
30.0,0.9575781825458739,3.057950987447997e-07,0.7342675748651342,54.37916361513524,-0.005000000000000012
31.0,0.9560818874678779,1.8546948337073746e-07,0.7331231702936922,55.37879427222512,-0.005000000000000013
32.0,0.9545694713117133,1.1249008408898647e-07,0.7319663948191077,56.378424929315,-0.005000000000000014
33.0,0.9530398792562169,6.822699231295556e-08,0.7307964394473523,57.3780555864049,-0.005000000000000015
34.0,0.9514923392174155,4.1380766121315946e-08,0.7296127119791259,58.37768624349477,-0.005000000000000015
35.0,0.9499255597810212,2.509808881108232e-08,0.7284142219761084,59.37731690058465,-0.005000000000000016
36.0,0.9483384258093506,1.5222393251050188e-08,0.7272001141558071,60.37694755767452,-0.005000000000000014
37.0,0.9467296873327435,9.232632667212519e-09,0.7259694298300253,61.376578214764386,-0.005000000000000013
38.0,0.9450984056903092,5.599738167878473e-09,0.7247214490142609,62.37620887185425,-0.005000000000000011
39.0,0.9434429080886584,3.396333353753387e-09,0.7234548887614447,63.37583952894411,-0.00500000000000001
40.0,0.9417621918595447,2.0599305364817344e-09,0.7221689799739105,64.375470186034,-0.00500000000000001
41.0,0.9400546782786577,1.2493820168207927e-09,0.7208625118044837,65.37510084312386,-0.005000000000000009
42.0,0.9383192506325444,7.577702419976082e-10,0.7195346276717467,66.37473150021374,-0.005000000000000008
43.0,0.9365542510504066,4.596003771156604e-10,0.7181840560014213,67.3743621573036,-0.005000000000000008
44.0,0.9347585632788672,2.7875514290569487e-10,0.7168099405317127,68.37399281439349,-0.005000000000000008
45.0,0.9329305295698626,1.6906858639800184e-10,0.7154110097463409,69.37362347148338,-0.005000000000000009
46.0,0.9310671806941038,1.0254272211823025e-10,0.7139849864100825,70.37325412857327,-0.005000000000000008
47.0,0.9291684531030882,6.219384424707726e-11,0.7125318214589669,71.37288478566313,-0.005000000000000008
48.0,0.9272332396095676,3.772172638904513e-11,0.7110506655149265,72.37251544275301,-0.005000000000000007
49.0,0.9252580036765523,2.2878839132120245e-11,0.7095388062314163,73.37214609984288,-0.005000000000000007
50.0,0.9232423395427896,1.389723473873461e-11,0.7079959760364296,74.37177105529406,-0.004999999999991373
51.0,0.9211364665577784,4.035796341419506e-05,0.7064224580911089,75.37137258982206,-0.004989045246266498
52.0,0.9189635990997193,8.607977900678805e-05,0.7048151814686752,76.37095130468471,-0.004975890834274717
53.0,0.9167174258415278,0.00014055299662038795,0.7031731158167625,77.37049798305415,-0.004961019741732475
54.0,0.9143884667020779,0.0002080455154274229,0.7014944766016726,78.37000073821125,-0.004944744320297404
55.0,0.911965505574009,0.00029400699072418,0.699778150973792,79.36944366647359,-0.004927278971147488
56.0,0.9094336468468774,0.00040549271306409326,0.6980227169864625,80.36880570919759,-0.004908787095702081
57.0,0.9067738469540164,0.0005518259123291056,0.6962268575586628,81.36805862217683,-0.004889401786928645
58.0,0.9039614357497301,0.0007456088649130085,0.6943893237335946,82.36716507209174,-0.004869217519452247
59.0,0.900963817458514,0.0010037736351797342,0.6925085383716008,83.3660746237675,-0.004848321652101977
60.0,0.8977385299746955,0.0013494609450132964,0.6905830454167741,84.36471929034128,-0.004826775731485237
61.0,0.8942306650484978,0.001814318289129866,0.6886120087288242,85.36300736656564,-0.0048046177026714754
62.0,0.8903675181131541,0.0024411658471700376,0.6865943245967085,86.36081477074616,-0.004781899275349071
63.0,0.8860540965362572,0.003288920954618247,0.6845294537060974,87.35797404532406,-0.004758640116257703
64.0,0.8811653637004248,0.0044374307021390795,0.6824168137996025,88.3542583257453,-0.004734860037613226
65.0,0.875539022436217,0.005995412076408284,0.6802568772991835,89.3493622301266,-0.004710557922685925
66.0,0.8689642011989144,0.008109540303447346,0.6780504005706088,90.34287559418428,-0.004685729223217463
67.0,0.8611709760037829,0.010976858816037124,0.6757991227012257,91.334250728289,-0.004660336319235588
68.0,0.8518190853250879,0.014856922368722509,0.6735060686106132,92.32276369928623,-0.004634342550218892
69.0,0.840489376682131,0.020087745104276817,0.6711756236296066,93.30747001362253,-0.004607683620731291
70.0,0.8266828149204172,0.027098815344250897,0.6688140117401047,94.287159929011,-0.004580270348563367
71.0,0.8098339901207318,0.03642040558011586,0.6664294740044439,95.26032146085264,-0.004551982702514427
72.0,0.7893470684923659,0.04867664665229235,0.6640322674753603,96.22512442975463,-0.004522684007263434
73.0,0.7646655996906856,0.06456564086227723,0.6616345467923868,97.17944204861539,-0.004492220349659663
74.0,0.7353808396779239,0.08481600655720695,0.6592498082053253,98.12092335733753,-0.004460424518223423
75.0,0.70137753441911,0.110127885611023,0.6568918568946654,99.04712187876734,-0.0044271214100022275
76.0,0.6629897740539893,0.1410833855358254,0.6545736791557684,99.95566165178369,-0.004392170372818631
77.0,0.6211618094305629,0.1781285952588307,0.6523062187824274,100.84441300386551,-0.00435543198415743
78.0,0.5775518425434054,0.2214934305539798,0.6500974310684678,101.7116292302188,-0.004316826905977795
79.0,0.5345913057351462,0.2712436670766546,0.6479517428359627,102.5560173301469,-0.004276308472248263
80.0,0.49548230969977614,0.3273116227781791,0.6458701852855562,103.3767335781657,-0.004233874484981587
81.0,0.4641831822042277,0.3895907796184806,0.6438512062379179,104.17332079178102,-0.004189542573517767
82.0,0.44536747003315524,0.45800672969652517,0.6418906898240229,104.94561361677262,-0.004143352245807675
83.0,0.4444272784847241,0.532576754357139,0.6399834049905132,105.69363840677423,-0.00409535173784588
84.0,0.4674996107213079,0.6134908829286948,0.6381231810403928,106.41752759491341,-0.004045588104912002
85.0,0.5215516355182995,0.7011151463222969,0.6363036009174893,107.11744887840396,-0.003994107162660744
86.0,0.6145213706388524,0.7960965633119269,0.6345178885378836,107.79356303817806,-0.003940939559910322
87.0,0.7555342924389877,0.8994150681559375,0.6327597846041242,108.44598906572374,-0.003886098998137702
88.0,0.9552398580469097,1.0124937180793485,0.6310232485650691,109.07478973518332,-0.0038295749552560987
89.0,1.2262297291723736,1.13728230424325,0.6293026254664923,109.67996051497487,-0.003771336906675017
90.0,1.5837620728328825,1.2766951088418275,0.62759239901334,110.26142745566632,-0.0037113061142002974
91.0,2.046788022656577,1.43514349872727,0.6258876185885813,110.81904611830136,-0.0036493439035509335
92.0,2.6401999778632272,1.6203271863901552,0.624183629172535,111.3525990150091,-0.003585164018240485
93.0,3.4003455060154537,1.8514562091926223,0.622476054820573,111.86180796319357,-0.0035179454089115567
94.0,4.385332697264242,2.142932308442083,0.6207609352624252,112.34631286119395,-0.0034474513886461142
95.0,5.6485569303536804,2.468265244649767,0.6190344525599039,112.80571032163232,-0.0033756360416987642
96.0,7.215965283590742,2.8060175646829193,0.6172931538917044,113.23951932521322,-0.0033037343154247094
97.0,9.119645831940716,3.1562468104726547,0.6155338602965871,113.64719730561474,-0.003231724068083757
98.0,11.392837404022238,3.519041015657877,0.613753690667742,114.02813148019288,-0.0031595801629146505
99.0,14.0697550342652,3.8945180523340186,0.6119500748557969,114.38163808400593,-0.0030872746423507027
100.0,17.185370830401883,4.282836757193229,0.6101208931266786,114.70694275869845,-0.003014775699376047
101.0,20.775172734844833,4.684194389246042,0.6082644573246264,115.00318258314086,-0.0029420480704516424
102.0,24.874956316864573,5.098825992431048,0.606379490350783,115.26940498337494,-0.002869053207497172
103.0,29.52051152895282,5.527015403952496,0.6044652816481149,115.50454799299477,-0.00279574830085395
104.0,34.747357563602044,5.969096843153268,0.6025216421593318,115.70743512714222,-0.0027220862612165006
105.0,40.59034562662387,6.425453063433251,0.6005490364245973,115.87677656685813,-0.0026480160379346693
106.0,47.08351119169572,6.896507196751055,0.5985483259470833,116.01117968723668,-0.0025734834844732646
107.0,54.25951726822273,7.382704284356816,0.5965207127252375,116.10917757848867,-0.0024984332067200473
108.0,62.14947584501952,7.8844622880783986,0.5944671537399142,116.16930767638073,-0.002422813130935786
109.0,70.7823434185973,8.402128891115032,0.5923879736588212,116.19018271109718,-0.002346578361316707
110.0,80.1845288887887,8.935897022225554,0.5902819670738924,116.17063085983698,-0.002269698638380732
111.0,90.37932243213402,9.485682194898468,0.5881449559621379,116.10989989531119,-0.0021921689475528825
112.0,101.38614502708889,10.051037496077637,0.5859692788436794,116.00780505815901,-0.0021140163666767066
113.0,113.21958590133143,10.631068829685713,0.5837425287845234,115.8648742931854,-0.002035306511073163
114.0,125.8885727529379,11.22447227106774,0.5814483348615305,115.68229382843198,-0.001956139027014994
115.0,139.39526617719682,11.829583530579388,0.5790666135041669,115.46182954691511,-0.0018766421230265037
116.0,153.9283844448607,12.117536317892535,0.6811039822705108,37.44203144096909,-0.001600954753523192
117.0,168.73303636196056,12.54166931840109,0.6905170941876654,32.53769843434839,-0.0014750235951803386
118.0,183.92721863523548,13.380652674420796,0.6948519116958473,29.599630869620672,-0.0013603100871179227
119.0,199.9483308755026,14.719955891191765,0.6969295315169841,27.539535736147187,-0.0012471141249897702
120.0,217.1512414155412,16.859291438472027,0.6987429433706723,25.651575522990544,-0.001129942139709287
121.0,236.19510202863972,20.0311651192632,0.6987822830757084,24.420899791124594,-0.0010126826146326534
122.0,257.7887935031112,24.306210464734416,0.6985463774481588,23.242569768386456,-0.0008943168997491911
123.0,281.90161402396376,30.077373505306642,0.6995284814445182,21.762673385592773,-0.0007681035972041667
124.0,308.85349461513573,36.82633944635873,0.6987807347232611,20.803321224453136,-0.0006447336989264692
125.0,337.99640799142844,44.47959807393569,0.69668018335307,20.242022954627068,-0.0005234265132686153
126.0,367.6757240456613,53.51387404411748,0.6954420777821517,19.409033724602786,-0.0003984339703551265
127.0,397.0962559847701,63.289847327457956,0.6932342073764223,18.624642689274992,-0.0002781950622595609
128.0,424.23714265534784,74.30248351687239,0.690672139540734,18.213485301853733,-0.00015379603456112132
129.0,448.34522891956766,85.86866347613294,0.6875654658445198,17.5747361000041,-3.591485219901192e-05
130.0,467.4832208413338,98.71515583221627,0.6845143699591044,17.239400161973528,8.702434849692141e-05
131.0,482.0555156278309,111.54651509363667,0.6801189633957204,16.704813406030738,0.0001989034128450103
132.0,489.88364197584616,125.96077626440726,0.676680217755678,16.435244520384515,0.0003198208342275053
133.0,492.1481396670052,140.5492342160066,0.6723789447399745,16.129096300631122,0.00043706342410553537
134.0,489.12830715836657,155.20961060771393,0.6671448947187979,15.728189792465427,0.0005472859736970062
135.0,478.8161416105157,172.09036168517915,0.6631189963244396,15.500743967860952,0.000665374161463869
136.0,461.315781366487,191.30597593986306,0.6590703224606848,15.286860930983986,0.0007824050287334676
137.0,436.0398377421788,213.76643564365355,0.6536198888844976,14.97751534628029,0.0008935628983183176
138.0,402.41636295814885,240.61570622904117,0.6481945063600187,14.697923050054849,0.0010056901158649757
139.0,362.8047618248638,270.3397653865196,0.6439275620310031,14.515431300090588,0.0011195741372409646
140.0,319.5359270469252,301.6973067592705,0.6397636646916033,14.34763682858839,0.0012311867315907233
141.0,273.27369013502243,335.0099529572726,0.6345839228762714,14.13833796171896,0.0013425695333266598
142.0,225.78950849144366,369.2677867155622,0.6286014456204853,13.876475076579949,0.0014487509455349376
143.0,182.3357164570087,399.74912242085355,0.6231580451351213,13.682271132621512,0.001557493793816332
144.0,144.88072601056174,424.794559166586,0.6185124914795234,13.54273884874518,0.0016627297088638003
145.0,112.3489927844444,445.6049257366267,0.6140659025566769,13.418942124679582,0.001764306496748546
146.0,84.62895408106246,462.30795268533905,0.6091111575027124,13.291151897292194,0.0018653506811814888
147.0,60.88590329547851,475.69358709870335,0.6033857973585406,13.140629344740328,0.0019656992689615085
148.0,40.19990597001806,486.61048869146254,0.5971238761451761,12.967767431041363,0.0020623905378880244
149.0,25.044646658942266,492.50432398641505,0.5908685899123695,12.817490592632586,0.0021574769058481367
150.0,15.22385446052183,493.48693968173774,0.5849102279335014,12.707550992493543,0.0022504508132365673
151.0,8.84082501976866,491.37404940698406,0.5792097127659439,12.623880303155143,0.0023391206941345767
152.0,4.902450100746708,487.0900437890817,0.5736530638638093,12.554504072103132,0.002423805870755706
153.0,2.7065988665112237,481.2883669566337,0.5680991662117003,12.493827524051262,0.0025053425073773916
154.0,1.680557971749764,474.51441039655595,0.5623827343133465,12.440486178527694,0.0025841973885717463
155.0,1.4034743433777157,467.1793803604282,0.556403171875677,12.39438718565178,0.002660549134792628
156.0,1.6037033681382218,459.5580260137626,0.5501537776015701,12.355410310458419,0.002734416922030067
157.0,2.1303869276257377,451.8122996520782,0.5436742515665629,12.323527296006613,0.0028057317892508805
158.0,2.909400884007001,444.032103052183,0.537011767216236,12.298951637176678,0.0028743927417403873
159.0,3.909643519030563,436.2671123624778,0.5302072521511131,12.281976748928168,0.0029403174299467445
160.0,5.122700783488915,428.5459439253827,0.5232926028689825,12.27274933006082,0.003003470383528644
161.0,6.550845895270223,420.88729967019424,0.516290985550083,12.271133850045498,0.0030638699668213165
162.0,8.200492727478771,413.3058950000993,0.5092174328019077,12.276688208275136,0.003121582048050883
163.0,10.079980846103608,405.81402089433345,0.5020803270342789,12.28873224057665,0.0031767110614049224
164.0,12.198243265435705,398.42248084137606,0.49487958591827086,12.30652567011769,0.0032293847767997977
165.0,14.56369718298437,391.14103142279424,0.48760491375093434,12.32947624376426,0.003279735064516825
166.0,17.184565406579853,383.9777116801579,0.48022743764423304,12.357447053323504,0.003327871379913268
167.0,20.070706133744768,376.93651913172994,0.4726857372478246,12.391130103403258,0.0033738572589020453
168.0,23.23791504562484,370.0127319557072,0.46487029157591314,12.43236618899281,0.003417699807685733
169.0,26.708490290498652,363.1919349809556,0.45666679151943945,12.483445148711057,0.003459373002949049
170.0,30.481625739148928,356.479570145808,0.44819411003699033,12.543230858090642,0.0034989012756370483
171.0,34.50077667814315,349.9331503910869,0.4399416345628102,12.604703037216193,0.0035363939932883575
172.0,38.72124790406264,343.59473885388746,0.43224075584659993,12.663268052265037,0.0035718781474455568
173.0,43.13588448052302,337.46527804709683,0.42506356715201504,12.720732251054395,0.0036052323262992848
174.0,47.73818216737569,331.54151901865686,0.41830484245585164,12.780825384494358,0.003636324530183651
175.0,52.51349346958671,325.8254086186876,0.4118969990896339,12.846396752049266,0.003665168529652133
176.0,57.44321457863081,320.320610346969,0.40579545776460296,12.91820710021268,0.0036920040604360616
177.0,62.50725194482733,315.03088007494745,0.39995144019046497,12.993989867970711,0.003717178335010763
178.0,67.68062766342264,309.9619917813227,0.3943050838721444,13.06887514371941,0.0037409887101042334
179.0,72.93183584418404,305.12298247582663,0.38880009326340426,13.13823445756067,0.0037637182793216
180.0,78.22920379381841,300.51926037367826,0.38339261272154274,13.200371429219826,0.003785665294402931
181.0,83.54812767439995,296.14809946598933,0.37803521568959986,13.256766832905269,0.003806966975575228
182.0,88.88268925373492,291.9873347018798,0.3726168977591485,13.311806571138899,0.0038275273603052755
183.0,94.28920787979153,287.95302986721225,0.3668040744212355,13.374752212561003,0.0038470886343993853
184.0,100.00253218906944,283.7822297340008,0.35974911822292144,13.464040439657749,0.003865317169227161
185.0,105.96413406741617,279.50543335506217,0.3518578138027985,13.573373988160576,0.0038822905843337195
186.0,111.4050900721146,275.86449649325266,0.3457854372547571,13.653131095182324,0.00389857899523307
187.0,116.4362981877975,272.7229679171278,0.34107136810491845,13.71074798687098,0.003914082835220625
188.0,121.2042036426262,269.90974088710766,0.33704760822920304,13.75987471540873,0.003928640450305435
189.0,125.74110229601972,267.36970361389984,0.33347335341080414,13.805827543897339,0.003942239839194201
190.0,130.04806440344035,265.0809011250784,0.33025489467861835,13.850311003473559,0.003954962799299824
191.0,134.1189718568793,263.03039863066493,0.3273473530479468,13.893415767238185,0.0039669384006066535
192.0,137.94735312647128,261.20678248124534,0.3247227511472132,13.934522425646255,0.00397829885968321
193.0,141.52838942717614,259.59686591481477,0.3223626901102769,13.972749067338478,0.0039891575449842774
