Time,J,A,S,tau
0.0,100.0,10.0,0.737611814190134,22.05900797678472
1.0,98.15710383266492,15.302152857172823,0.7356861317565766,22.029566214916443
2.0,93.15170769624596,20.37744510843145,0.7336895958603143,21.999069955359897
3.0,86.80540868167003,25.233521779773184,0.7316230737064486,21.96753022912936
4.0,79.9810537503419,29.878106672284606,0.7294873003796617,21.934955615313847
5.0,73.03843937360278,34.318660042225225,0.7272830632118358,21.901355020375494
6.0,66.12243320595604,38.56238816470076,0.7250112012767611,21.866737675866585
7.0,59.29120905506405,42.61625253782663,0.7226726049403495,21.831113136884944
8.0,52.56848528332916,46.48697723005235,0.7202682150578766,21.794491278828943
9.0,45.96409071542184,50.18106129454263,0.7177990222232116,21.75688229459462
10.0,39.482134087821414,53.70476974742955,0.715266066340117,21.718296695209673
11.0,33.124331193142766,57.0641580352012,0.7126704358703303,21.678745307436362
12.0,26.891332903494426,60.26508656016677,0.7100132655251383,21.63823926200549
13.0,20.783276083594018,63.31321289350812,0.7072957359341285,21.596789995784995
14.0,14.800035954556048,66.2139777384633,0.7045190744789602,21.554409263148067
15.0,8.94133748540595,68.97267731578668,0.7016845511318375,21.51110910997349
16.0,3.2068089243772473,71.59437816427675,0.6987934777607734,21.46690187869198
17.0,0.0,74.08403816481409,0.6958472083512452,21.42180020941398
18.0,0.0,76.44642135718858,0.6928471361152173,21.37581703139294
19.0,0.0,78.68612744295028,0.689794692669228,21.328965562746458
20.0,0.0,80.80761166549792,0.6866913470970527,21.281259311112994
21.0,0.0,82.81511115788352,0.6835386019601153,21.232712056242995
22.0,0.0,83.74357293076898,0.6817521427183482,21.20673299341267
23.0,0.0,82.17651774985704,0.6803664508310804,21.18742075396378
24.0,0.0,79.50108901364678,0.6789951039236285,21.168387392600145
25.0,0.0,76.45808279683317,0.6776386838029881,21.149637707396113
26.0,0.0,73.35097018069017,0.6762977684849195,21.131176400480182
27.0,0.0,70.29654759422382,0.6749729317837706,21.113008077582055
28.0,0.0,67.337679867628,0.6736647429050456,21.095137247637677
29.0,0.0,64.48849895914665,0.6723737660538041,21.077568322675774
30.0,0.0,61.75192438301109,0.671100560010671,21.060305617049753
31.0,0.0,59.12652243462378,0.6698456777182715,21.043353347002164
32.0,0.0,56.609155315772995,0.6686096660625961,21.026715633153135
33.0,0.0,54.196121412896716,0.6673930650290072,21.010396492834772
34.0,0.0,51.88348275093192,0.6661964077184869,20.994399847441798
35.0,0.0,49.66734322304661,0.6650202203106279,20.97872952470659
36.0,0.0,47.54388754604161,0.6638650203815019,20.963389243009825
37.0,0.0,45.50937711369695,0.6627313182775277,20.948382632705595
38.0,0.0,43.56027062879641,0.661619615279024,20.933713217743836
39.0,0.0,41.6930930251664,0.6605304040801653,20.919384426141033
40.0,0.0,39.90451489285047,0.6594641682265844,20.905399586933893
41.0,0.0,38.191349296213346,0.6584213817156385,20.891761929588014
42.0,0.0,36.55051378158652,0.657402508688187,20.87847458438211
43.0,0.0,34.97905540216897,0.6564080030839335,20.86554058220724
44.0,0.0,33.47413108245173,0.6554383084245111,20.85296285552841
45.0,0.0,32.03301171821911,0.654493857406022,20.840744237497763
46.0,0.0,30.65307778301853,0.6535750716264191,20.82888746228769
47.0,0.0,29.331812928212596,0.6526823613090437,20.817395165283475
48.0,0.0,28.066806965445902,0.6518161250217734,20.806269883188804
49.0,0.0,26.855754008808326,0.6509767494186729,20.795514054231802
50.0,0.0,25.69645399797437,0.6501646089325214,20.785130017914785
51.0,0.0,24.586819700845897,0.649380065595985,20.77512001574547
52.0,0.0,23.52488594215243,0.6486234687134127,20.765486190708867
53.0,0.0,22.508823599747334,0.6478951547281699,20.756230588182092
54.0,0.0,21.53696251452222,0.6471954469261889,20.74735515554026
55.0,0.0,20.607821169717937,0.6465246552552829,20.73886174256878
56.0,0.0,19.72014557503573,0.645883076139612,20.730752101755005
57.0,0.0,18.872959537703107,0.6452709922700278,20.72302788834938
58.0,0.07212834453572475,18.065624474492957,0.6446886724397707,20.71569066067564
59.0,3.04761736091734,17.297909883867927,0.644136371374594,20.708741880333967
60.0,6.327846768017777,16.57007272138635,0.6436143295808758,20.702182912461144
61.0,9.919340056084534,15.882943521661952,0.6431227732025213,20.696015025984416
62.0,13.822709135009562,15.238013269723497,0.6426619139008249,20.69023939392159
63.0,18.031829796349744,14.637540335287216,0.6422319485802365,20.684857092837493
64.0,22.532087830928848,14.084603813524776,0.6418330595272853,20.679869104446382
65.0,27.299618121998336,13.583192787380689,0.6414654141728262,20.67527631518193
66.0,32.30006868170954,13.13825364925031,0.6411291650294101,20.671079516567417
67.0,37.48782209400239,12.755727245900387,0.6408244495506414,20.667279405145525
68.0,42.805380279508256,12.442541109779587,0.6405513901646733,20.66387658335735
69.0,48.18316517188979,12.206588601796792,0.6403100940989026,20.660871559115705
70.0,53.539726025049326,12.056653108485866,0.6401006534462467,20.65826474676772
71.0,58.78235265710265,12.002309005329359,0.6399231450497573,20.65605646689068
72.0,63.80831611280518,12.053777881142565,0.6397776305012501,20.65424694672827
73.0,68.50680056206487,12.221748813361469,0.639664156138962,20.652836320551692
74.0,72.76184651020787,12.517164674392037,0.6395827530178584,20.65182462979694
75.0,76.45660586131359,12.950969164284729,0.6395334369154926,20.651211823342333
76.0,79.4792829963439,13.533822628414221,0.6395162083699456,20.65099775792743
77.0,81.73067407009906,14.275784848515427,0.6395310526981499,20.65118219839252
78.0,83.13277447476702,15.185955056158617,0.639577939992886,20.651764817721062
79.0,83.63683995188714,16.272084218357826,0.639656825260083,20.652745197866096
80.0,83.22983008212489,17.54012545774055,0.6397676483352471,20.654122829204155
81.0,81.93633867194751,18.99376082526376,0.639910334053764,20.655897111443505
82.0,79.81591256533252,20.633856779353604,0.640084792286061,20.658067353636877
83.0,76.95563527431578,22.457911586973253,0.6402909181162342,20.66063277500629
84.0,73.45993205237302,24.459420244697572,0.6405285917676148,20.663592504218446
85.0,69.43943359226638,26.627324873977237,0.6407976788664297,20.66694558061477
86.0,65.00182297966309,28.945413389608884,0.6410980304245567,20.67069095367956
87.0,60.246064918501624,31.39189188009279,0.641429483090139,20.674827484085032
88.0,55.26019961105474,33.93899646068296,0.6417918591555631,20.679353943190595
89.0,50.12228646791983,36.55288192226737,0.6421849668243079,20.684269014081266
90.0,44.902953633117065,39.19361727306672,0.6426086002401697,20.68957129107104
91.0,39.66858873486196,41.815517154799,0.6430625397696271,20.695259280735016
92.0,34.484072510484275,44.367635402375825,0.6435465520483594,20.7013314013961
93.0,29.414629633871808,46.79467361199383,0.644060390279068,20.707785984143452
94.0,24.52651985790463,49.03824894757336,0.6446037943416403,20.714621272613176
95.0,19.886447879850852,51.03882255503365,0.6451764910010868,20.721835423324944
96.0,15.559626628846646,52.73844320327486,0.6457781941429286,20.72942650614745
97.0,11.606503868331313,54.084425471389956,0.6464086049583868,20.737392504386886
98.0,8.078371681095842,55.03385161982872,0.6470674121755412,20.745731315118384
99.0,5.012432790175371,55.5583867192013,0.6477542922887741,20.754440749454837
100.0,2.427275399736804,55.64851138198922,0.6484689097955092,20.763518532812935
101.0,0.3199285209672724,55.31606040198585,0.6492109174408763,20.772962305180513
102.0,0.0,54.59409460423086,0.6499799564806318,20.782769621461053
103.0,0.0,53.53375536352322,0.6507756569314501,20.79293795168173
104.0,0.0,52.19848867653581,0.6515976378415157,20.803464681293633
105.0,0.0,50.65684901846545,0.6524455075668313,20.81434711146593
106.0,0.0,48.97542495561639,0.6533188640531762,20.82558245937519
107.0,0.0,47.21326792397068,0.6542172951245282,20.83716785849683
108.0,0.0,45.41860618691169,0.6551403787793745,20.849100358913738
109.0,0.0,43.62788951254526,0.6560876834909579,20.86137692761009
110.0,0.0,41.86664853300448,0.6570587685158693,20.873994448792473
111.0,0.0,40.151392612967086,0.658053184205903,20.886949724193357
112.0,0.0,38.491833687472685,0.6590704723259143,20.900239473386446
113.0,0.0,36.89294337327573,0.6601101663965554,20.91386033431521
114.0,0.0,35.356581749560235,0.6611717919525721,20.927808862887364
115.0,0.0,33.88271184476128,0.6622548669774619,20.9420815343884
116.0,0.0,32.47017680640071,0.6633589021776188,20.956674743167895
117.0,0.0,31.117211247381366,0.664483401336663,20.971584803140004
118.0,0.0,29.821745699765913,0.6656278616600517,20.986807948145536
119.0,0.0,28.58158453517924,0.6667917741257976,21.00234033236511
120.0,0.0,27.3945082924445,0.6679746238336,21.018178030685373
121.0,0.0,26.258331664398895,0.6691758903593064,21.034317039112974
122.0,0.0,25.17093820773816,0.6703950481084168,21.050753275147756
123.0,0.0,24.13030248802531,0.6716315666770941,21.067482578258957
124.0,0.27534668439390775,23.1345080012197,0.6728849112095889,21.08450071029483
125.0,1.294353835637247,22.181765011813862,0.674154542758881,21.101803355940472
126.0,2.478259750013898,21.27043186562681,0.6754399186475469,21.11938612317705
127.0,3.8447648855352927,20.3990412784028,0.6767404928288353,21.137244543752818
128.0,5.411408695062172,19.566332446259743,0.6780557162483543,21.1553740736868
129.0,7.195149945538193,18.77128918132417,0.6793850372048009,21.173770093772706
130.0,9.211872271663516,18.01318302669677,0.6807279017098996,21.19242791011213
131.0,11.475814669096055,17.291621033021976,0.6820837538471418,21.211342754668557
132.0,13.998919000597557,16.606598434024786,0.6834520361277007,21.230509785725758
133.0,16.79006861955874,15.958550942207108,0.6848321898474564,21.24992408873041
134.0,19.854251746698605,15.34841378758024,0.6862236554354638,21.269580676640008
135.0,23.191642607006887,14.77768657598985,0.687625872810544,21.2894744900464
136.0,26.796654462213848,14.248477255057042,0.6890382817272082,21.309600398985086
137.0,30.656809141311687,13.763557626463818,0.690460322110424,21.329953202849534
138.0,34.75176017280418,13.326410573676762,0.6918914344025903,21.350527630985596
139.0,39.05236486462492,12.941255439678029,0.6933310598885742,21.371318343900104
140.0,43.51982125910374,12.613074711858925,0.6947786410369026,21.392319933324565
141.0,48.10517932366541,12.347613010545942,0.6962336218214604,21.413526923336498
142.0,52.749021621966435,12.151356982117989,0.6976954480334083,21.43493377122054
143.0,57.38148810789563,12.031500834663504,0.6991635676061098,21.456534867878748
144.0,61.92293774316583,11.995882825875407,0.7006374309087726,21.478324539068897
145.0,66.2850753574252,12.052907392200959,0.7021164910653147,21.50029704581132
146.0,70.37282484365491,12.211432746094717,0.7036002042295223,21.522446585627467
147.0,74.08723344843293,12.480646034969235,0.7050880298889521,21.54476729313906
148.0,77.32934442271034,12.869902154466335,0.7065794311333299,21.567253241143643
149.0,80.00543528333756,13.388546066904423,0.7080738749313972,21.58989844151625
150.0,82.03311697949025,14.045694518180143,0.7095708323983241,21.612696846092483
151.0,83.34796651707157,14.849996069144467,0.7110697790417083,21.6356423478381
152.0,83.90960498098316,15.809340439994164,0.7125701950220804,21.658728781672725
153.0,83.70598799615918,16.930535904451858,0.7140715653910015,21.68194992558689
154.0,82.75461094994571,18.21893079789906,0.7155733803225962,21.70529950170769
155.0,81.10007393082033,19.677992738463374,0.717075135335945,21.728771177433142
156.0,78.80825788621114,21.308838665520483,0.7185763314730113,21.75235856680209
157.0,75.95840905457196,23.109698413975355,0.7200764755690977,21.776055231124637
158.0,72.63449921571741,25.075387389685314,0.7215750803994039,21.799854680625184
159.0,68.91815478635976,27.19674367949041,0.7230716648656299,21.823750375601893
160.0,64.88402613584633,29.4600628834499,0.7245657542104976,21.847735727427644
161.0,60.598234993909095,31.846640442766805,0.7260568801364732,21.871804100197696
162.0,56.11920544398524,34.33235888712804,0.7275445809817321,21.895948811880505
163.0,51.50003770222292,36.88741362621226,0.7290284018910701,21.92016313556233
164.0,46.791433906177076,39.4762750143782,0.730507894904,21.944440301136172
165.0,42.04430393511702,42.057808175226874,0.7319826191245422,21.96877349645601
166.0,37.31164576534859,44.585719387388636,0.7334521408242267,21.99315586891447
167.0,32.64946736640557,47.009350455882355,0.7349160335375929,22.017580526970878
168.0,28.11673125227465,49.2748831095475,0.7363738781860774,22.0420405415809
169.0,23.774282607729084,51.32713771090865,0.7378252631458628,22.06652894783894
170.0,19.68280342500493,53.112003202890044,0.7392697843380924,22.091038746539837
171.0,15.89981871199641,54.57957724269643,0.7407070452953659,22.115562905824103
172.0,12.475922864184557,55.68789509732773,0.74213665722375,22.140094362840692
173.0,9.450588728401062,56.40691901794502,0.7435582390567244,22.164626025442676
174.0,6.848204423500949,56.7221707334989,0.7449714174927252,22.189150773942412
175.0,4.675097022582432,56.637277482049235,0.7463758270397647,22.21366146285568
176.0,2.9184493791659114,56.174580677939375,0.747771110021453,22.23815092276863
177.0,1.5474773623927793,55.37350229036894,0.7491569166071834,22.262611962132002
178.0,0.5170145392186986,54.286570447064264,0.7505329048174386,22.28703736915915
179.0,0.0,52.97382110154345,0.7518987405227969,22.311419913743453
180.0,0.0,51.496645160163844,0.753254097435344,22.335752349410697
181.0,0.0,49.91227009082452,0.7545986570926632,22.36002741530704
182.0,0.0,48.269800800871515,0.7559321088336988,22.384237838223136
183.0,0.0,46.60822928640435,0.7572541497673537,22.408376334653294
184.0,0.0,44.956275936256944,0.758564484733788,22.4324356128899
185.0,0.0,43.3335457140542,0.7598628262593679,22.456408375152453
186.0,0.0,41.75235874486532,0.7611488945030748,22.480287319751902
187.0,0.0,40.21969676432951,0.762422417199491,22.504065143288585
188.0,0.0,38.73891504265855,0.76368312959141,22.52773454288347
189.0,0.0,37.31106404851474,0.7649307743562161,22.551288218440227
190.0,0.0,35.93581639668298,0.766165101551901,22.574718874974398
191.0,0.0,34.61207417158558,0.7673858685005167,22.598019224910594
192.0,0.0,33.33833473420229,0.7685928397181419,22.621181990452982
193.0,0.0,32.112907988860314,0.7697857868208816,22.644199905990902
194.0,0.0,30.93403663190189,0.7709644884296857,22.667065720527482
195.0,0.0,29.79996197111793,0.7721287300646109,22.68977220013006
196.0,0.0,28.708958408536386,0.7732783040442046,22.712312130431684
197.0,0.0,27.659351375304684,0.7744130093711004,22.73467831913535
198.0,0.0,26.649526452909353,0.7755326516217923,22.756863598569826
199.0,0.1631163805839391,25.67793420275395,0.7766370428286351,22.778860828258125
200.0,0.5786391674856514,24.743093406045165,0.7777260013605749,22.80066289751983
201.0,1.0770389755768153,23.8435943243572,0.7787993518006339,22.822262728098806
202.0,1.6705954755537809,22.97810300152441,0.7798569248205113,22.843653276813185
203.0,2.372443745200564,22.145367522542223,0.7808985570532393,22.864827538231808
204.0,3.1964675933083067,21.344226861464666,0.7819240909631926,22.88577854737043
205.0,4.157158929119342,20.573622662197625,0.7829333747137804,22.906499382403624
206.0,5.269440798247483,19.832614414677366,0.7839262620369228,22.926983167427583
207.0,6.5484490649207014,19.120397992619782,0.78490261209455,22.947223075184546
208.0,8.009268441316962,18.43632812266777,0.7858622893454106,22.96721232985953
209.0,9.666617484553822,17.779944951878893,0.7868051634076176,22.986944209866305
210.0,11.53447554663965,17.15100500918383,0.7877311089210767,23.00641205065299
211.0,13.625640441909471,16.54951683011355,0.7886400054136384,23.025609247577222
212.0,15.951216438187467,15.975779231809602,0.7895317371482353,23.044529258520686
213.0,18.520022139481195,15.430427202890531,0.7904061930110406,23.06316560713304
214.0,21.337922652720735,14.914474690372865,0.7912632663425802,23.081511885198694
215.0,24.407071298664718,14.429358656065705,0.7921028547948276,23.099561755244086
216.0,27.725105712123774,13.977013444382749,0.7929248603174761,23.1173089561678
217.0,31.28431856397378,13.559870852987215,0.7937291887827022,23.134747301055615
218.0,35.070623594629716,13.180937093373522,0.7945157500632942,23.151870684348772
219.0,39.06283421061346,12.843814121054482,0.7952844577891918,23.168673082571505
220.0,43.231787792316744,12.55273341978719,0.7960352292531787,23.18514855797272
221.0,47.53970247899563,12.312574464961074,0.7967679852708254,23.20129126124724
222.0,51.939735726683146,12.128873954139062,0.7974826500518231,23.217095434500454
223.0,56.3757976092173,12.007815014498297,0.7981791510587873,23.23255541362919
224.0,60.78269414735752,11.956210123875271,0.7988574188963669,23.24766563164083
225.0,65.0868468335675,11.981464949928364,0.7995173871773906,23.262420621299626
226.0,69.207435342527,12.091519450069606,0.8001589923986948,23.27681501771044
227.0,73.05839427013886,12.294779988311701,0.8007821738307916,23.290843561646692
228.0,76.55115067761614,12.600019742627895,0.801386873382411,23.304501101487705
229.0,79.59838941200879,13.01626693817894,0.8019730355059758,23.31778259693283
230.0,82.11865103044818,13.552663141857593,0.8025406070627318,23.330683120729187
231.0,84.04162361640807,14.218294470490724,0.8030895372314216,23.343197862169863
232.0,85.31350305362992,15.021997220236935,0.8036197773873205,23.355322129203483
233.0,85.90158264329328,15.972124413962245,0.8041312810019587,23.36705135112049
234.0,85.79730138077853,17.07627179736094,0.8046240035482817,23.378381081653984
235.0,85.01649492873604,18.340968094704735,0.8050979023906467,23.389307000767978
236.0,83.59698360938914,19.7713043641283,0.8055529366990731,23.399824918021352
237.0,81.59335818741458,21.370531811095585,0.8059890673464822,23.4099307736957
238.0,79.07044539644235,23.139582140312804,0.8064062568346024,23.419620642459723
239.0,76.09631512997032,25.076558288463833,0.806804469201985,23.42889073552088
240.0,72.73664449984983,27.176188041959705,0.8071836699396343,23.4377374024825
241.0,69.05123382669387,29.42926884301813,0.8075438259148533,23.446157133581526
242.0,65.09288875686077,31.822089273984034,0.8078849053025792,23.45414656242572
243.0,60.90838648564534,34.33591734980037,0.8082068775104746,23.461702467997224
244.0,56.54074231711221,36.94658223582268,0.8085097131108196,23.468821776302505
245.0,52.03188819199414,39.62416993267464,0.8087933837803787,23.47550156245614
246.0,47.42517311087658,42.3328740325817,0.8090578622451017,23.48173905335456
247.0,42.767227579888136,45.03114104945652,0.809303122218981,23.4875316288279
248.0,38.109020134456685,47.67209761965512,0.8095291383575574,23.492876823243623
249.0,33.50611874791864,50.204311805251294,0.8097358862122254,23.49777232838972
250.0,29.018034039662652,52.573106019412386,0.8099233421843574,23.502215993677133
251.0,24.706786153445858,54.72236977276557,0.8100914834904325,23.50620582878435
252.0,20.634568374281976,56.5970712684949,0.8102402881269026,23.509740004837752
253.0,16.860601330818003,58.14641821454132,0.8103697348403697,23.512816855607426
254.0,13.437283724004079,59.32758409202021,0.8104798031028031,23.515434879120107
255.0,10.405993861256912,60.10965528395821,0.8105704730901686,23.517592738793788
256.0,7.793110546058387,60.4772472080856,0.8106417256660843,23.51928926455516
257.0,5.606968520343152,60.43309457415036,0.810693542369806,23.520523454137138
258.0,3.8366226934106056,59.9987890148536,0.8107259054062101,23.52129447368672
259.0,2.4528270051097496,59.213321197922326,0.8107387976465155,23.52160165891551
260.0,1.4114128557725394,58.12928781133033,0.810732202626774,23.521444515777333
261.0,0.6585131848059325,56.80738866331709,0.8107061045538031,23.520822721215712
262.0,0.1366555797718379,55.310218926367604,0.8106604883153518,23.51973612373194
263.0,0.0,53.69655976495578,0.8105953394947961,23.518184743888657
264.0,0.0,52.01715751890576,0.8105106443902772,23.516168774703814
265.0,0.0,50.31249042719003,0.8104063900383564,23.513688581950277
