Time,J,A,S,tau
0.0,100.0,100.0,0.5070079709668526,31.25
1.0,98.343723832558,95.94298645693925,0.507531544600872,31.433128366995362
2.0,96.71913498364874,92.0574878844195,0.5080599358963529,31.61887363614284
3.0,95.12656640918085,88.33857666314388,0.5085922139801394,31.806819319588378
4.0,93.56518900256954,84.77852667692414,0.5091282419848525,31.996910660288783
5.0,92.03420627480554,81.37000130994822,0.5096678832259849,32.18909301737321
6.0,90.53277790656101,78.10589387519789,0.5102110051781092,32.383270754942224
7.0,89.06025140671018,74.97970179110678,0.5107575044657676,32.579418517587875
8.0,87.61593608043965,71.98509852758647,0.5113072332256317,32.77747015419616
9.0,86.19924531396325,69.11613033374586,0.5118600890036272,32.977375499296414
10.0,84.8096557824677,66.36710356809816,0.5124159576783509,33.179074167203595
11.0,83.44675751575465,63.73260607189963,0.5129747258638577,33.38250595867927
12.0,82.11030156548772,61.20750789838526,0.5135362847332758,33.58761641989923
13.0,80.80021315583981,58.78689624999473,0.5141004948852587,33.794340861911074
14.0,79.51675850531127,56.46620818596679,0.5146673863884351,34.00264901994558
15.0,78.26040647949942,54.240930780664485,0.5152367621434334,34.21245500781044
16.0,77.03204812997964,52.106773612074235,0.5158085238527044,34.42366584523082
17.0,75.8331852722196,50.059766429098424,0.5163825847404635,34.63623632787506
18.0,74.66594286221401,48.096097598114525,0.5169588342452829,34.85010993937237
19.0,73.53322041772189,46.21214266594988,0.5175371957995138,35.065231086797546
20.0,72.43881180867108,44.40442157606191,0.5181175516968402,35.281533240218735
21.0,71.3876117808755,42.669700383358595,0.5186999344273802,35.49898470256688
22.0,70.3856408984449,41.00477255812686,0.51928417210517,35.71749872108729
23.0,69.44019031690361,39.40656894901594,0.5198701852635091,35.93697242929773
24.0,68.5601959735173,37.872273322445025,0.520457877690961,36.157365490501824
25.0,67.75613955758224,36.399170801094044,0.5210471497604869,36.378622592578004
26.0,67.04013445813865,34.984724818369564,0.5216380672130743,36.60071332761526
27.0,66.42595449230582,33.626378556572554,0.5222304637233042,36.82353149222811
28.0,65.9292056441217,32.32174020197259,0.5228242002197755,37.046997677856986
29.0,65.56723554033675,31.068626815507393,0.5234193319313805,37.27109222286723
30.0,65.35913266541449,29.864852039590936,0.5240157109351546,37.495734208248464
31.0,65.32528277037852,28.708347717426065,0.5246132872830703,37.72084908132938
32.0,65.48767761680189,27.597155936168207,0.525211988784355,37.94637656881163
33.0,65.86954766493295,26.529403319315932,0.5258117403806586,38.17225416037306
34.0,66.49489477967586,25.503290251199637,0.5264124821614875,38.398408769872255
35.0,67.38874638041389,24.517117847978916,0.5270141336726998,38.62478649129084
36.0,68.57608444097649,23.569246160329534,0.5276166520384249,38.851316341164214
37.0,70.0824158342904,22.658111533737273,0.5282199309474275,39.077933743882085
38.0,71.9325186019321,21.782223170022124,0.528823935078327,39.3045743559025
39.0,74.1507246601117,20.940152412202707,0.5294285855229952,39.531172030962225
40.0,76.76006660834305,20.130514181012998,0.5298461683184644,39.6902621363774
41.0,79.7827873319292,19.352039452640145,0.5299304010470423,39.7410238392339
42.0,83.23891075672235,18.603468664472192,0.530012187891836,39.79040422731487
43.0,87.14665856667968,17.88360750875552,0.5300908464154485,39.83820066005257
44.0,91.52166791887255,17.191314736509838,0.530165667413934,39.88408030364857
45.0,96.37696488865507,16.525499504740655,0.5302360101882932,39.927646709034384
46.0,101.72306547884997,15.885142314546377,0.530301390479474,39.96851695391426
47.0,107.56695699456952,15.2692444516568,0.5303614392148269,40.00633303130676
48.0,113.91279887147302,14.676892226953921,0.5304159391143914,40.040840668505105
49.0,120.76129588442797,14.1072126366557,0.5304647721357572,40.07187664601899
50.0,128.1097519701151,13.559399288196198,0.5305079011730774,40.09935895422764
51.0,135.95182216750484,13.03273359635158,0.5305453384484257,40.123262072764966
52.0,144.27761946903738,12.526590939326743,0.5305771590790349,40.14362614665359
53.0,153.0736457751665,12.040450708267624,0.5306034470517982,40.16048961775028
54.0,162.3227885264877,11.573947160528908,0.5306242670901732,40.173885804774294
55.0,172.00415880696795,11.126888977989472,0.5306396876643874,40.183853943239754
56.0,182.0927578218363,10.699304801807587,0.5306497876308109,40.190422007775844
57.0,192.56000549454896,10.291497476087816,0.5306545447353574,40.19358977099907
58.0,203.37316801577782,9.904111815755101,0.5306539781644078,40.193355510955726
59.0,214.4953585920296,9.53819881965736,0.5306480539227716,40.18970337683376
60.0,225.88535561825614,9.195302960021982,0.5306367527255039,40.1826034643518
61.0,237.4974244891702,8.877537767366551,0.5306199917242238,40.172004197511875
62.0,249.2820618996558,8.58769829903794,0.5305976559479246,40.15785297327642
63.0,261.1848014516739,8.329399576843022,0.5305696214847502,40.14001003729154
64.0,273.1477096801412,8.10710651233216,0.5305358119252086,40.11845008084329
65.0,285.10803806096806,7.926283832852462,0.5304961151854167,40.0930781166845
66.0,296.999326177603,7.793520150966068,0.5304504563776158,40.063825922579525
67.0,308.7501800697214,7.7164545674820335,0.5303987936236401,40.03068814383661
68.0,320.2828096083517,7.703711439152645,0.530341151848569,39.993740192979594
69.0,331.5112673503089,7.764730899544418,0.5302776257146689,39.95316671815281
70.0,342.33755086603634,7.909456490741168,0.5302084169288688,39.90927466618918
71.0,352.64718400513095,8.148154651284214,0.530133834340585,39.86247674870283
72.0,362.30431712058,8.491448783924193,0.53005435172836,39.813234448002724
73.0,371.14812499902746,8.950472656999423,0.5299705259648432,39.76197029411911
74.0,378.99273272067694,9.537061611116082,0.5298829508128332,39.708995690677334
75.0,385.6331191132386,10.263789439509436,0.5297920583770729,39.65444470734802
76.0,390.8583013437161,11.143802313412479,0.5296979595045413,39.59825018053367
77.0,394.47186383488395,12.190527769573533,0.5296002305688952,39.54013191667828
78.0,396.316419876017,13.41738689231522,0.5294978115543727,39.47959029224315
79.0,396.2976649733068,14.83785232738494,0.529389066534123,39.41591845090799
80.0,394.400827287064,16.466238012548455,0.5292720302970344,39.34819631384584
81.0,390.69467399955624,18.31900209365955,0.5291448898355123,39.275348777949546
82.0,385.32165229896435,20.415870711378457,0.5290065909492516,39.19633564114126
83.0,378.47915860795706,22.777045623998887,0.528857245894328,39.110592261664834
84.0,370.4018903899729,25.412025266913684,0.5286982206847616,39.01879992286159
85.0,361.34482792546527,28.306988802093908,0.5285317070452386,38.92331240668753
86.0,351.551578664072,31.431927725714228,0.5283604558761129,38.82731670257672
87.0,341.2148491788868,34.76572189656422,0.5281875447282084,38.73306515383878
88.0,330.46326617033014,38.30527452744333,0.5280150709187402,38.640964764418435
89.0,319.37615922818287,42.055584661211654,0.5278425788801374,38.54989351319696
90.0,308.0012728135773,46.02085049049604,0.5276664561271293,38.457802688299196
91.0,296.36385402153604,50.20483376251346,0.5274810380889621,38.36212997101446
92.0,284.4681699846984,54.61747002926418,0.5272810657648233,38.260083691158925
93.0,272.3039292896835,59.27442613619966,0.5270644131993883,38.149404710343724
94.0,259.87892578525623,64.168604917062,0.5268332991541486,38.03031879477521
95.0,247.26065749741593,69.23103213859784,0.5265928361713947,37.90727179583458
96.0,234.54640576431376,74.3625751440744,0.526349393901511,37.78655281738851
97.0,221.78789890182088,79.5099878145683,0.5261087312845065,37.671194134215746
98.0,208.9913969727001,84.66592783857732,0.5258719369201595,37.55994449249242
99.0,196.15431554486193,89.83255388583036,0.5256331942330477,37.44923069319535
100.0,183.27487765283362,95.01204362226588,0.5253824929065424,37.33465687437139
101.0,170.3463044344981,100.21225935929787,0.525111786955017,37.211859663285246
102.0,157.37627922141957,105.42739980815377,0.5248203781517968,37.07866136485502
103.0,144.44640258889075,110.57883037786726,0.5245149767969033,36.9389031594156
104.0,131.7063308697074,115.52116925592651,0.5242055515937244,36.80145687519113
105.0,119.25975915668732,120.15667530334447,0.523901323956966,36.671666340683814
106.0,107.1359515698556,124.4632356245454,0.5236041064948244,36.547954834607175
107.0,95.35208978243931,128.4321554443607,0.5233048167141496,36.425300342282135
108.0,83.94319147890869,132.0384522267361,0.5229891004540184,36.29781150801912
109.0,72.97047080353138,135.23294648159933,0.5226480921563212,36.16039700672202
110.0,62.55474435078141,137.90948204411924,0.5222849626806265,36.01274506702974
111.0,52.926869840890184,139.854970184972,0.5219116113303466,35.8631605981006
112.0,44.32628813593962,140.85174052043658,0.5215417362907091,35.721188744545074
113.0,36.8613969905007,140.81619982833953,0.5211826139170703,35.58809671855935
114.0,30.570702635026155,139.73682322675464,0.5208271374736243,35.458872566348695
115.0,25.453949276401623,137.64124512264723,0.5204578084169336,35.32680243932348
116.0,21.442242126764274,134.6244192701446,0.5200608770920505,35.18572379594192
117.0,18.419282589012454,130.82539822603061,0.5196372568568802,35.03392003425587
118.0,16.26696122605983,126.38024000162133,0.5192005595486321,34.87915021073975
119.0,14.815573480720687,121.47112362649011,0.5187677368184227,34.73220823596714
120.0,13.842067373106651,116.32745859124833,0.5183481318820602,34.595205491148846
121.0,13.17490621134097,111.12225841735118,0.5179346268124823,34.46307717276069
122.0,12.699196996806663,105.96783272608022,0.5175071799452803,34.328842023826645
123.0,12.334307059402255,100.93918720232706,0.5170495412959952,34.186114268031126
124.0,12.028431163092762,96.08110110653567,0.5165627662051393,34.03326717599897
125.0,11.754115116589492,91.41304148150799,0.516062454034342,33.87815767685744
126.0,11.496621415633093,86.94143825322111,0.5155676336391579,33.73134311527647
127.0,11.248370008343748,82.66583280565757,0.5150885156388176,33.59473390192556
128.0,11.006244658126205,78.58134533787549,0.5146167872889684,33.46328739393075
129.0,10.769134896475443,74.6814804995489,0.514130680171256,33.3302910711568
130.0,10.536774169194686,70.95909286610387,0.5136126694534004,33.18971671613103
131.0,10.30945146048744,67.40707060286192,0.5130636656901241,33.03999171003634
132.0,10.087960330421126,64.01848109298176,0.5124999643616142,32.888212188805475
133.0,9.873690448334315,60.78640618429843,0.5119418066987198,32.74425224050303
134.0,9.668915534277648,57.70451773785203,0.511401058956821,32.6104536709729
135.0,9.477113254246873,54.76651003636854,0.5108709841838033,32.48255023651742
136.0,9.303441741731223,51.96636427429661,0.510330019591783,32.35457875033355
137.0,9.155301599707409,49.29814176983057,0.5097584796759905,32.221000257607756
138.0,9.043027039406605,46.75628173074563,0.5091533829363628,32.079407884008
139.0,8.980512155456477,44.33539490694265,0.5085285150521818,31.934117365116887
140.0,8.986021985900454,42.03025736202299,0.5079042556198061,31.794120441904322
141.0,9.082828585077758,39.835890002791665,0.5072962094807437,31.663802096195525
142.0,9.299829501548931,37.74747479004578,0.5067050609626886,31.540971725441086
143.0,9.671911291205113,35.7603778334177,0.5061146398671202,31.420901000413895
144.0,10.240084376591719,33.87015857984286,0.5055029008877687,31.29882220974851
145.0,11.051347825495462,32.072533565839564,0.5048575838293816,31.17110217113748
146.0,12.15806755159327,30.363398695886172,0.5041830012706626,31.03760501891619
147.0,13.617114544176003,28.738802907580215,0.5034952162089813,30.903623849468218
148.0,15.488518336440276,27.19495323564281,0.502812912540006,30.775939753533137
149.0,17.83377814592499,25.728206561393623,0.5021484590282692,30.65680923650704
150.0,20.71402284487235,24.335062609051946,0.5015009620065494,30.544091707358135
151.0,24.187770031114745,23.012164027159024,0.5008557546523777,30.434191812908217
152.0,28.308793673519528,21.756286735296577,0.5001930223218235,30.32359420235029
153.0,33.123903532433395,20.564341416801206,0.4995002054371453,30.20949503440796
154.0,38.67105348526304,19.43336101203865,0.4987779317675987,30.090992969082432
155.0,44.977331738514245,18.36050757111459,0.4980375661341069,29.970601688957355
156.0,52.057743661837755,17.343066197843562,0.4972948918185506,29.853294309555235
157.0,59.91417313895425,16.378448264137628,0.4965639621920437,29.742626678417025
158.0,68.53459141812294,15.464218671384545,0.49585188526843177,29.638788097213897
159.0,77.8932385230686,14.598136726938868,0.4951553488644081,29.539851612152955
160.0,87.9505410052935,13.77820429373982,0.4944615767762103,29.443405559058416
161.0,98.65359686589738,13.002669298402227,0.4937548027957761,29.34723832023479
162.0,109.93763523052488,12.270079071467787,0.4930239991725962,29.249524413940097
163.0,121.72653989794007,11.579501775418855,0.4922672707570197,29.149301943312288
164.0,133.9340807729334,10.93076396527254,0.4914909205388152,29.047193143398218
165.0,146.46559502389442,10.324716613877454,0.490705632886062,28.945647453878347
166.0,159.2192412492705,9.763696497096305,0.48992303050761876,28.84763747712673
167.0,172.08812661173002,9.252367431683702,0.48915261944588967,28.754857240902048
168.0,184.96048681887137,8.799014180071818,0.4884001735504779,28.667345378024088
169.0,197.72480997242442,8.415900289511882,0.4876645810471462,28.584062039556983
170.0,210.27500117618555,8.118033872414609,0.4869392106030924,28.503675552706508
171.0,222.51739885506782,7.920535260451109,0.48621373270310697,28.42495338795813
172.0,234.37365626711102,7.838322445641236,0.48547801355437437,28.34682628964169
173.0,245.77601630138167,7.888249265790217,0.4847259913938138,28.26847395337155
174.0,256.6548295302535,8.09093758953823,0.48395651685128244,28.189405948926797
175.0,266.9193379500403,8.470953104581618,0.4831727962051857,28.10970255177521
176.0,276.4336857721476,9.05578177228576,0.4823806894709044,28.030136340021606
177.0,284.9946543236648,9.874537924974446,0.4815871338603054,27.95198544271814
178.0,292.3216507593487,10.957089861311157,0.48079890818226845,27.876532691468814
179.0,298.07077253427383,12.333093338016887,0.4800217599909669,27.804585314806562
180.0,301.879032530683,14.029561363588229,0.47925974301080815,27.73632476969364
181.0,303.43194178175645,16.066475947503974,0.47851474309128483,27.671465305462743
182.0,302.5330542527553,18.452317042196583,0.47778620556712315,27.609499821275545
183.0,299.14875906119124,21.182209816719865,0.4770712815832283,27.54988377070003
184.0,293.41214868840365,24.239825277860753,0.4763655828414627,27.492136541091398
185.0,285.58929946148334,27.600665200456163,0.47566407493367974,27.43584780826119
186.0,276.02399239167346,31.235341345238265,0.47496248386916323,27.380692109672243
187.0,265.08201792271615,35.11122264121219,0.4742578423222324,27.32640111630701
188.0,253.10752355277236,39.19344262026692,0.4735491086950364,27.27278469535918
189.0,240.39847597587757,43.444801169131495,0.4728367587594385,27.21974136401723
190.0,227.19802241729877,47.82579826423944,0.47212265619820915,27.167293746752147
191.0,213.69869873718136,52.2938123910225,0.4714090983956988,27.115548017431866
192.0,200.050948638952,56.803687557754046,0.47069891791754903,27.06474981651435
193.0,186.37437204813477,61.3075669989653,0.4699946922856782,27.0151813622755
194.0,172.76597945218012,65.75645823447925,0.4692991447446791,26.96714445610705
195.0,159.3068340425162,70.10158389111143,0.4686146476581924,26.92089595271278
196.0,146.0656035973393,74.29675389176343,0.46794332368827707,26.87662228806841
197.0,133.09863780317949,78.30237583791539,0.46728688404515517,26.83436953203236
198.0,120.44967976060215,82.0877267810415,0.46664655801057764,26.794139893396853
199.0,108.14969302862602,85.6324811054499,0.46602300299008503,26.75586566675574
200.0,96.2206306957025,88.92406489753937,0.46541709338420123,26.719431887458782
201.0,84.6824524233685,91.9509258628765,0.4648292196381227,26.684727561231043
202.0,73.56466207567411,94.69160064227314,0.4642593610771368,26.65163015448712
203.0,62.920848427599715,97.10102988589159,0.46370708442922254,26.62002954330383
204.0,52.84071829864147,99.09986858786398,0.46317199019269584,26.58983499748963
205.0,43.452068778321234,100.57365856562137,0.46265364830729716,26.56096744466567
206.0,34.90671219912371,101.38783724267975,0.46215147285843644,26.533349114564352
207.0,27.35264096782042,101.41568411982608,0.4616644828832297,26.506903209283898
208.0,20.90025166401381,100.5715159161271,0.46119264740323285,26.481603095972456
209.0,15.594900080358686,98.83572018125734,0.460735758886656,26.45741492013367
210.0,11.404991742455358,96.26425128247834,0.46029374080821994,26.434309716488837
211.0,8.228762963598777,92.97950511636411,0.45986663691320945,26.41226396505875
212.0,5.916013058648099,89.14704200808669,0.4594545859875787,26.391255930937316
213.0,4.296291873146427,84.94703795067845,0.4590578485979809,26.371269844278874
214.0,3.204968874869421,80.5489234287611,0.4586767828513947,26.352292297686663
215.0,2.5015294498168106,76.094661697217,0.4583117978320209,26.334313134762045
216.0,2.0784490756466685,71.69189479155659,0.4579633425486864,26.3173239922165
217.0,1.8623825028843384,67.41489096291937,0.45763186216678503,26.301316416917377
218.0,1.8106468761982295,63.31009132923672,0.4573178974689604,26.286288439500236
219.0,1.9059610823062325,59.40300085982931,0.45702187474806444,26.272234342142056
220.0,2.151289668789121,55.704663921971935,0.45674424034288524,26.25915283574684
221.0,2.5655683593053893,52.21675031640439,0.4564854526161208,26.247044791627232
222.0,3.1803651120128014,48.93521510004902,0.4562458810897309,26.23590630350843
223.0,4.03729785163544,45.8527346440996,0.4560258751496956,26.225736046734486
224.0,5.185761557131025,42.96026612412785,0.4558257641422255,26.216531726423387
225.0,6.6808525461415975,40.2479949134746,0.4556458430063037,26.208292227496493
226.0,8.581224612138566,37.705902097645,0.4554863532215983,26.201015885626838
227.0,10.94678937989202,35.324099649151314,0.4553475207211657,26.194701143804913
228.0,13.836419064242584,33.09300810376822,0.4552295306059714,26.189345762323693
229.0,17.305546044346677,31.00346202255451,0.4551325415534062,26.184948136960813
230.0,21.4039476080071,29.04675182169169,0.4550566665962602,26.181506382801217
231.0,26.17361054640793,27.214642631707424,0.4550019905631836,26.179018676816664
232.0,31.64689572476336,25.499378730370402,0.4549685733789127,26.17748367727448
233.0,37.84513246032037,23.89367647986757,0.45495644448919415,26.176898473773463
234.0,44.777682191807,22.390717301080063,0.4549655909041363,26.17726184849591
235.0,52.4412386994696,20.984155181956893,0.4549959724214131,26.178571763232195
236.0,60.81968738139386,19.668134434130295,0.4550475164058611,26.18082857839651
237.0,69.88441902754464,18.437330284512278,0.4551201014685443,26.184030563402477
238.0,79.59453817056925,17.287033226857407,0.4552136424207732,26.188177844578885
239.0,89.89812575157664,16.213260452432937,0.4553279448755706,26.193265940060385
240.0,100.73243648666626,15.212948607396921,0.45546286053303914,26.199296023215528
241.0,112.02515091464335,14.284168897726847,0.4556180962038727,26.206268453124252
242.0,123.69515586960783,13.426428886283327,0.4557934277080778,26.214181343174715
243.0,135.65367662469146,12.640928786881332,0.4559884772248057,26.223032663472935
244.0,147.805569622832,11.930878135923649,0.45620282198959433,26.232813950189744
245.0,160.05102951069588,11.301700555772978,0.4564360477545744,26.243530769657948
246.0,172.2878251059433,10.761245944890707,0.4566880131112304,26.255180221898698
247.0,184.41472484510837,10.319715992365293,0.45695802212808534,26.267764500398982
248.0,196.33351617499667,9.98966896256186,0.457245721081886,26.28129203680796
249.0,207.9505762357833,9.785733082006043,0.45755053156541925,26.2957706260793
250.0,219.1752625084616,9.724235855850608,0.4578718786320266,26.311195684689547
