Time,J,A,S,tau,r
0.0,1.0,1.0,0.9998619335408413,9.090909090909092,0.0
1.0,8.94321275022687,4.829403691273497,0.999872974724455,9.319824222748995,0.03943067039306565
2.0,30.708320416966338,8.590302798044078,0.999884019273825,9.5482192733277,0.03944422044499294
3.0,64.37479858658955,12.284267839358721,0.9998950675785333,9.776023966398183,0.03945897165896393
4.0,108.26101589987825,15.912827044325164,0.9999061200095195,10.00316916208404,0.0394749094987271
5.0,160.89309693314468,19.477471184220157,0.9999171769167149,10.229586095316428,0.03949202723471061
6.0,220.97811194371658,22.97965437212476,0.9999282386266827,10.455206410654151,0.03951031914025457
7.0,287.3809633160248,26.42079485741751,0.9999393054402204,10.67996219566342,0.03952977953019127
8.0,359.1044042828022,29.802275818098472,0.9999503776299212,10.903786012655454,0.039550402531011615
9.0,435.27181975131197,33.125446074110606,0.9999614554376666,11.126610929103126,0.03957218201178565
10.0,515.1122207085847,36.39162087000345,0.9999725390720844,11.348370545934529,0.03959511156741009
11.0,597.9472870070751,39.60208262627375,0.999983628705927,11.5689990243341,0.03961918451795666
12.0,682.5312383896188,43.444518373726396,0.999991654878176,11.724742516394423,0.03971786408329331
13.0,759.289190590694,58.65791204751591,0.9999915614906699,11.710991781125974,0.039986223884801546
14.0,821.4795568378597,87.10037347811036,0.9999914597975651,11.696244914754867,0.04022196091044997
15.0,856.1207291657026,126.64963520018824,0.9999913495435254,11.680515991483471,0.04043189012391538
16.0,855.5776350975281,175.45232503896904,0.999991230451316,11.663819965835463,0.04062111959501119
17.0,823.5206646731102,231.8895254564469,0.9999911022208687,11.646172621209091,0.04079355231686383
18.0,769.0931986057384,294.5470375737299,0.999990964528267,11.627590516474779,0.040952220748486805
19.0,700.6164746424982,362.18959323361884,0.9999908170246585,11.608090930736292,0.041099515711111645
20.0,623.4795095150301,433.7385396900779,0.999990659335081,11.587691806936038,0.04123734661272301
21.0,540.6691980683336,508.25244972963065,0.9999904910572026,11.566411694482259,0.041367255891974236
22.0,453.81345799213085,584.9103073862917,0.9999903117599621,11.544269691520597,0.041490502246033005
23.0,363.89983570184717,662.9952245273674,0.9999901209821321,11.521285386777354,0.04160812214594144
24.0,270.9154018212071,742.5929221006828,0.9999899182308618,11.497478801341519,0.041720975978239934
25.0,174.66919143587828,823.8793391340722,0.9999897029796039,11.472870333841236,0.04182978305928889
26.0,87.24648214111896,894.8365361497064,0.9999894746670885,11.447480699679032,0.041935148675548484
27.0,23.272697640774545,941.1844688390945,0.9999892326948616,11.421330880096063,0.042037584991144676
28.0,-14.478592630970855,960.6613730258227,0.9999889764254993,11.39444206685484,0.04213752754283594
29.0,-32.94434318709075,960.6554642167084,0.999988705180468,11.36683561084134,0.0422353482993741
30.0,-40.666684707385855,949.994802639438,0.9999884182378703,11.338532972418689,0.042331366107927496
31.0,-43.506870545645135,934.6822835268719,0.9999881148300579,11.309555674054439,0.04242585511608698
32.0,-44.448270320604315,917.7579290869368,0.9999877941410974,11.279925255411527,0.042519051612336545
33.0,-44.73528875829482,900.4834802958029,0.9999874553040863,11.249663231061506,0.04261115962042877
34.0,-44.81702379849848,883.3100793109422,0.9999870973983194,11.2187910509794,0.04270235550523574
35.0,-44.83877536877853,866.379885566488,0.9999867194462909,11.187330063897292,0.04279279178717462
36.0,-44.843739813069945,849.731418481207,0.9999863204105015,11.155301483570023,0.042882600318029325
37.0,-44.844198421242936,833.3719197840828,0.9999858991903585,11.12272635876517,0.04297189495629462
38.0,-44.843403630104625,817.2995827019787,0.999985454619365,11.089625548079042,0.04306077384243722
39.0,-44.84206804653053,801.5101477524577,0.9999849854556475,11.056019676261466,0.04314932099007773
40.0,-44.84031036228526,785.9988253472338,0.999984490405216,11.021929202076116,0.04323760926632952
41.0,-44.83810157819919,770.7607902009927,0.9999839680621158,10.987374218080845,0.04332569897727857
42.0,-44.835357681515575,755.791533454855,0.9999834169195811,10.952374470285838,0.04341364002115445
43.0,-44.8319964243622,741.0864186151302,0.9999828354716632,10.916949708532195,0.043501477605042596
44.0,-44.82789483154717,726.640695461691,0.9999822220631939,10.88111921182094,0.043589246427549105
45.0,-44.822876783186224,712.4501614638543,0.9999815748685675,10.844901712599981,0.04367697135880142
46.0,-44.816764510958656,698.5106434823452,0.9999808920568642,10.808315925798983,0.04376467490581925
47.0,-44.80937935641974,684.8176438238488,0.9999801717523531,10.771380427467472,0.043852375812799084
48.0,-44.8004374183267,671.3670099082098,0.9999794117936371,10.734113002616402,0.043940081424275794
49.0,-44.789616064966395,658.1548989787588,0.9999786099378594,10.696531218943573,0.044027795882469266
50.0,-44.776594772173524,645.1774021041474,0.9999777639366751,10.658652627035572,0.04411552278408601
51.0,-44.76098049698998,632.4304178145917,0.9999768713435576,10.620494300988028,0.04420325940687308
52.0,-44.742248008754146,619.9103108142239,0.9999759294787852,10.582072798827395,0.04429099674890658
53.0,-44.7198674382717,607.6134627018273,0.9999749356497163,10.543404648627755,0.04437872612641369
54.0,-44.693224498223074,595.5361088965648,0.9999738869813006,10.50450601808068,0.04446643478728249
55.0,-44.66150174009852,583.6749091143117,0.9999727803156719,10.465392570756787,0.04455410420545974
56.0,-44.62386290353797,572.0265581788118,0.9999716124672523,10.426079923103241,0.04464171654843625
57.0,-44.57933990620733,560.5876604265993,0.999970380034673,10.38658335087139,0.04472925054648789
58.0,-44.526749550600606,549.3551371286097,0.999969079369579,10.346917772216784,0.044816681387152474
59.0,-44.464841976525406,538.3258767089932,0.9999677067213408,10.307097967441484,0.04490398397030441
60.0,-44.39206319004246,527.4970248986642,0.999966258018847,10.2671383254851,0.04499112910221851
61.0,-44.30675744636027,516.8658041820013,0.9999647290818785,10.227053110066558,0.04507808763819154
62.0,-44.20697145204991,506.4295744021867,0.9999631154265854,10.18685626577115,0.04516482744422821
63.0,-44.09055815562401,496.18585621924166,0.9999614123939563,10.146561565987266,0.045251315768415415
64.0,-43.95501889788782,486.1323725303086,0.9999596150145296,10.106182508376405,0.045337517524317195
65.0,-43.79762599030435,476.2670025404754,0.9999577181262334,10.065732430407191,0.04542339721074579
66.0,-43.615256685421336,466.5878638993521,0.999955716247977,10.025224424823257,0.04550891748906052
67.0,-43.404485337207475,457.093263769343,0.9999536036557028,9.984671412022973,0.04559404041540337
68.0,-43.16146183482442,447.7818075714403,0.9999513743195686,9.944086110218452,0.04567872690697085
69.0,-42.88193598815145,438.6523614536754,0.9999490219032081,9.903481049694053,0.04576293702712327
70.0,-42.56124809269261,429.70409941837715,0.9999465397835746,9.862868595760094,0.045846630361039004
71.0,-42.194267039657596,420.93655201435314,0.9999439209934708,9.822260927678839,0.04592976569279851
72.0,-41.775414908437135,412.3496252323881,0.9999411582393088,9.781670059770455,0.04601230138865617
73.0,-41.298663946593926,403.9436366113043,0.9999382438927048,9.741107845689964,0.0460941954955073
74.0,-40.75750668718015,395.71938758437216,0.999935169963298,9.70058597499622,0.046175405716515634
75.0,-40.145002433828836,387.67819484949723,0.9999319280905881,9.660115977261995,0.04625588954835405
76.0,-39.45382831388681,379.82191662550315,0.9999285095532398,9.619709232782409,0.046335604494527574
77.0,-38.67631468422037,372.1530298434075,0.9999249052412253,9.579376967089997,0.04641450804221509
78.0,-37.804523728949476,364.6746797647971,0.9999211056525219,9.539130255445764,0.0464925577950176
79.0,-36.83036472876749,357.3907346486684,0.9999171008824171,9.498980023182632,0.04656971155618031
80.0,-35.74574316462926,350.3058324178241,0.9999128806187606,9.458937047699372,0.04664592743486233
81.0,-34.54273877738698,343.4254311046566,0.9999084341355655,9.419011959245132,0.046721163935212924
82.0,-33.21382605226993,336.7558532116829,0.999903750287431,9.379215241251876,0.04679538004228831
83.0,-31.75213747876815,330.30432338515806,0.9998988175049189,9.339557230353593,0.04686853530543667
84.0,-30.151774510489915,324.07900365257126,0.9998936237886664,9.300048115399845,0.0469405899140997
85.0,-28.408188784509303,318.08899882458996,0.9998881567080011,9.260697936916216,0.04701150478250389
86.0,-26.51857681811988,312.3443360912992,0.9998824034053662,9.221516588015652,0.047081241638217836
87.0,-24.48238397427888,306.8559521093206,0.9998763505871192,9.18251380983052,0.04714976307823764
88.0,-22.30151154945043,301.63562557586,0.999869984544705,9.14369919819449,0.04721703266676866
89.0,-19.981181285850326,296.6958418020253,0.9998632911432058,9.105082193941115,0.04728301498331404
90.0,-17.530117925765424,292.04968615995585,0.9998562558350317,9.06667208603785,0.047347675696679366
91.0,-14.961080850572925,287.7106108854753,0.9998488636724018,9.02847801015321,0.04741098163167472
92.0,-12.291134784972256,283.6921992117226,0.9998410993162137,8.990508946622219,0.04747290082497869
93.0,-9.541884941932022,280.0078312992428,0.9998329470537669,8.95277371971514,0.04753340258433348
94.0,-6.739511910213025,276.6702974663545,0.9998243908160183,8.91528099600465,0.04759245754151996
95.0,-3.914600685128058,273.6913390049409,0.9998154141996733,8.878039283283629,0.047650037702818525
96.0,-1.1017164667290213,271.0811273879047,0.999806000492261,8.841056929440438,0.04770611649542753
97.0,1.6612955284252924,268.8476833201696,0.9997961327005975,8.804342121292372,0.04776066881048646
98.0,4.334298328291529,266.996262331499,0.9997857935831769,8.767902883608432,0.04781367104219952
99.0,6.8761389511249265,265.52871757928085,0.9997749656863604,8.731747078162183,0.04786510112346223
100.0,9.246162949108282,264.4428777051026,0.9997636313847453,8.695882402945426,0.04791493855749172
101.0,11.405908226295137,263.73197455480596,0.9997517729257291,8.660316391482656,0.04796316444570466
102.0,13.320888093465145,263.38416482571034,0.9997393724784606,8.62505641224516,0.048009761512050296
103.0,14.962332344863764,263.38219881189656,0.9997264121872842,8.590109668320752,0.04805471412267242
104.0,16.308780875054257,263.70327215031085,0.9997128742298642,8.555483196975137,0.048098008303561965
105.0,17.34733694730711,264.3191324933418,0.9996987408794061,8.521183869931223,0.04813963174980336
106.0,18.074628239543642,265.196405214806,0.999683994574276,8.487218392173968,0.04817957384537067
107.0,18.497032341362548,266.29729790280885,0.9996686179877401,8.453593303934973,0.04821782565342762
108.0,18.63052869613034,267.5804979720551,0.9996525941062732,8.420314979891604,0.04825437992650699
109.0,18.499928449510456,269.00236492129926,0.9996359063119903,8.387389629491002,0.04828923110584291
110.0,18.13755904996563,270.51831844757504,0.9996185384679285,8.354823298339017,0.04832237531055954
111.0,17.581587805226217,272.0843365548472,0.9996004750106806,8.322621868322802,0.04835381033406406
112.0,16.874035212833586,273.65848043920477,0.999581701045755,8.290791058774289,0.04838353563029736
113.0,16.058686874768604,275.20233091841163,0.9995622024474621,8.259336427542644,0.048411552298400634
114.0,15.179053708692937,276.6822388285199,0.9995419659629541,8.22826337219378,0.048437863064550925
115.0,14.276520767559386,278.0703072019587,0.9995209793201468,8.197577131333603,0.04846247226101613
116.0,13.388800475798257,279.3450427424017,0.9994992313396386,8.167282786005446,0.04848538580308349
117.0,12.548765060734395,280.4916453638197,0.9994767120488219,8.137385261326473,0.04850661116192723
118.0,11.783682308726483,281.5019462022715,0.9994534127987496,8.107889328225543,0.04852615733523481
119.0,11.11484073837344,282.3740326225365,0.9994293263832962,8.07879960526123,0.048544034815751445
120.0,10.55752382505094,283.1116155825912,0.9994044471588055,8.050120560623414,0.04856025555649721
121.0,10.121242203232397,283.7232268477689,0.999378771171683,8.021856513728459,0.0485748329407346
122.0,9.810226463853464,284.2212728946268,0.9993522962692345,7.994011638192662,0.04858778173292724
123.0,9.623973133214852,284.6210982299892,0.999325022237348,7.966589962992572,0.048599118053918755
124.0,9.55794804584785,284.94002314582,0.9992969509121666,7.939595375295715,0.04860885933126983
125.0,9.604269308065984,285.19646613934316,0.9992680862978298,7.913031622983349,0.04861702425542054
126.0,9.752387345550767,285.4091575372503,0.9992384346794334,7.886902317143059,0.04862363273415255
127.0,9.98971905253476,285.5964525197256,0.9992080047514478,7.861210933757468,0.04862870585895879
128.0,10.302265478137421,285.7757633905505,0.9991768077100062,7.835960817140743,0.04863226584673204
129.0,10.675160454012508,285.96309556386035,0.9991448573631858,7.81115518206891,0.048634335998784486
130.0,11.093183057846408,286.172688364195,0.9991121702318081,7.786797116288889,0.048634940655228893
131.0,11.54121437522616,286.41676355535077,0.9990787656233252,7.762889583809383,0.048634105137648535
132.0,12.004658284726892,286.7053356546451,0.9990446657364259,7.739435426603461,0.04863185571460264
133.0,12.469802368887542,287.0461371852613,0.9990098957066257,7.716437368381832,0.048628219537461034
134.0,12.924141879482901,287.44457903164334,0.9989744836892057,7.6938980164484025,0.04862322460391337
135.0,13.356645201836372,287.90380332528235,0.9989384608974282,7.671819864905576,0.04861689970191506
136.0,13.757954516079192,288.4247849068563,0.9989018616371588,7.650205297483624,0.0486092743596891
137.0,14.12054605424028,289.0064761274952,0.9988647233484399,7.629056589699948,0.04860037880511201
138.0,14.438798315186778,289.6460190341886,0.9988270865966918,7.608375912258076,0.048590243907500594
139.0,14.709006922130323,290.3389796583983,0.9987889950735414,7.5881653335987655,0.048578901132338745
140.0,14.929326230607082,291.0796184502588,0.9987504955620692,7.568426823103538,0.04856638248683838
141.0,15.099716447641876,291.8611580360633,0.9987116380200864,7.5491622498726,0.04855272052669719
142.0,15.221650235716437,292.6761361474202,0.9986724753006485,7.53037339272914,0.04853794820657933
143.0,15.297989231244696,293.51665788967557,0.9986330632515696,7.512061937501598,0.048522098912651405
144.0,15.332713981242392,294.3747029588063,0.9985934606038799,7.494229480131783,0.04850520640572067
145.0,15.330639567781745,295.24239350681216,0.998553728820028,7.476877531121306,0.048487304757730665
146.0,15.297147853830074,296.1122313726186,0.9985139320026553,7.4600075166995605,0.04846842832262939
147.0,15.237912343530676,296.9772995292991,0.9984741367439601,7.443620781684734,0.04844861169079471
148.0,15.158644248301501,297.8314203796322,0.9984344119654333,7.4277185919371425,0.0484278896480089
149.0,15.06486365697712,298.6692711319054,0.9983948287396236,7.412302136770005,0.048406297135423715
150.0,14.961709227595277,299.4864498760708,0.998355460094482,7.397372531310842,0.048383869210620226
151.0,14.853784633353028,300.2795005409284,0.9983163808008184,7.382930818811005,0.048360641009791636
152.0,14.745047158756176,301.04589707695135,0.9982776671435639,7.368977972901003,0.04833664771107215
153.0,14.638740148583368,301.7839913066227,0.9982393966758157,7.355514900000803,0.048311924496945276
154.0,14.537355542372918,302.4929379357607,0.9982016479663272,7.342542440989833,0.04828650652488787
155.0,14.44263875541754,303.17259246155794,0.9981645003229852,7.330061373401044,0.04826042889339592
156.0,14.355633918842084,303.8233908059953,0.9981280335044934,7.318072414427017,0.04823372660151352
157.0,14.276752785517562,304.44622424150583,0.9980923274715614,7.306576225130373,0.04820643448708499
158.0,14.205738735558283,305.04235647103405,0.9980574619350332,7.295573398118527,0.04817858736892784
159.0,14.141915004680625,305.61322220622503,0.9980235162832777,7.285064479941898,0.048150219727497605
160.0,14.084209594074418,306.1603885159683,0.9979905690345878,7.275049961123601,0.04812136592222978
161.0,14.031257503244541,306.6854265521739,0.9979586976996213,7.265530282534466,0.04809206003278839
162.0,13.981469346571362,307.18982719562837,0.9979279783351717,7.256505830929586,0.04806233590569681
163.0,13.93316141478975,307.67492639650715,0.9978984852063769,7.247976944834503,0.048032227108947216
164.0,13.88461885048884,308.14187283308587,0.9978702906657678,7.239943918242567,0.04800176687292694
165.0,13.834162263024226,308.59156240821585,0.9978434645776353,7.232406995157277,0.04797098812814533
166.0,13.780232122362765,309.02462852762034,0.9978180740892161,7.225366376393846,0.04793992345376649
167.0,13.721407190064768,309.4414527180764,0.9977941835562117,7.218822221532614,0.047908605038159795
168.0,13.656459245368927,309.8421327055487,0.9977718538563785,7.212774643906894,0.04787706470837329
169.0,13.584381306959186,310.2265240268499,0.9977511423263069,7.207223717878283,0.04784533387925755
170.0,13.504377010709671,310.5942680047421,0.9977321027357553,7.202169479840994,0.04781344352759213
171.0,13.415887172435216,310.9447892879937,0.9977147844073398,7.197611921659327,0.04778142422059375
172.0,13.318582530026559,311.2773720022922,0.9976992326150308,7.193551003025719,0.04774930605207439
173.0,13.21231240102379,311.59116105322863,0.9976854882235862,7.189986641875195,0.04771711865508636
174.0,13.097173654832117,311.8852359375827,0.9976735872584865,7.186918727125507,0.04768489117830254
175.0,12.973351799393992,312.1585904513005,0.997663559596532,7.184347087550914,0.047652652326509434
176.0,12.84118079812052,312.41023067325176,0.9976554329109185,7.18227154690106,0.04762043021373486
177.0,12.701166392958552,312.6391848533263,0.9976492268468289,7.180691874367396,0.047588252509434256
178.0,12.55383947213211,312.8444999835838,0.9976449580643428,7.179607816212658,0.04755614631864938
179.0,12.399835276126675,313.0253240233351,0.9976426360016505,7.179019076141886,0.04752413823099412
180.0,12.239767002801635,313.18085047845847,0.9976422663311482,7.178925328220875,0.047492254284496056
181.0,12.07432398698088,313.31041187801185,0.9976438481052488,7.179326212518102,0.04746051996062202
182.0,11.90411526415448,313.41341167778637,0.9976473758219454,7.180221331942623,0.0474289601891251
183.0,11.729809787049213,313.48939826114133,0.9976528382546989,7.18161026312381,0.04739759931851672
184.0,11.551952985745201,313.538010539685,0.9976602188357839,7.18349253859193,0.04736646113151583
185.0,11.371146011615478,313.5590135428895,0.9976694962944678,7.18586767086745,0.04733556882341571
186.0,11.187842860779396,313.5522742248398,0.9976806433979301,7.188735122580227,0.04730494499530827
187.0,11.00254895092182,313.5177582141593,0.9976936291913879,7.192094340635558,0.04727461167109818
188.0,10.815624939102706,313.4555319728438,0.9977084164465263,7.195944717946854,0.047244590241300545
189.0,10.627471552929387,313.36573310827947,0.9977249650145986,7.200285633459785,0.04721490154013697
190.0,10.438372815713247,313.2485887932358,0.9977432285710937,7.205116410321148,0.04718556572564986
191.0,10.248639701221258,313.10437433291486,0.997763158535421,7.210436358614755,0.04715660242973603
192.0,10.058504468100889,312.9334408923759,0.9977847003285076,7.216244729135106,0.04712803054873709
193.0,9.868164660960247,312.73615865711486,0.9978077975564311,7.2225407532644885,0.047099868485640815
194.0,9.67787846638391,312.51297170973294,0.9978323893504034,7.229323622744655,0.04707213391969372
195.0,9.487751013111946,312.26432473618127,0.9978584113529427,7.236592470189252,0.04704484388283664
196.0,9.298008053669426,311.9907044950322,0.9978857982454027,7.244346432551639,0.04701801496999762
197.0,9.108839270849156,311.69263278457186,0.9979144799212433,7.252584565056365,0.04699166284444077
198.0,8.920324201072269,311.37061445692405,0.997944384874605,7.261305883289811,0.04696580265988586
199.0,8.732681690769745,311.02519553982887,0.9979754407934258,7.270509406233897,0.046940449140691544
