Time,J,A,S,tau
0.0,100.0,10.0,0.5661479185782861,60.87655305956154
1.0,97.38270276363231,12.390707728130314,0.5644033439201925,60.20443347769906
2.0,94.24729466378037,14.73627810003034,0.5624549094859332,59.51154075734406
3.0,90.69037507540605,17.034604383402943,0.5602969766508776,58.79827684262439
4.0,86.81947045023301,19.2839928611625,0.5579241028318198,58.06490243014638
5.0,82.73069355086153,21.48282699479152,0.5553314366942425,57.31165070722064
6.0,78.50169604854524,23.629562663423066,0.5525147230515087,56.53873206209865
7.0,74.1917191646303,25.722725639277858,0.5494703188736715,55.74633791804098
8.0,69.84462021842764,27.760909119432444,0.5461952048137376,54.934644302577084
9.0,65.49247851504185,29.74277229411686,0.5426869975880576,54.10381498464114
10.0,61.15878728267853,31.667040160839047,0.5389439660956349,53.25400418755578
11.0,56.86101311307409,33.532503431318766,0.5349650455822879,52.38535899880476
12.0,52.612504819021105,35.33801911506242,0.5307498487263161,51.49802151957044
13.0,48.42381605992401,37.08251223482891,0.5262986797248287,50.59213072625978
14.0,44.303608218751386,38.76497672034894,0.5216125419353023,49.6678241038092
15.0,40.25924916262839,40.384478223581965,0.5166931483574684,48.72523908816834
16.0,36.2971952621305,41.94015622939288,0.5115429306300195,47.76451434834105
17.0,32.42324017698694,43.43122682909959,0.5061650379444378,46.785790885914224
18.0,28.64266026527331,44.8569852478042,0.5005633370552635,45.78921299469857
19.0,24.960302053630304,46.216808724816126,0.49474240917206525,44.77492910248868
20.0,21.38063146930888,47.51015939131625,0.48870754379530973,43.74309251630315
21.0,17.907757388349584,48.736587493326546,0.4824647321409905,42.69386211537493
22.0,14.545439381620788,49.89573479835743,0.47602065127793836,41.627402891936434
23.0,11.297089683896056,50.98733679805112,0.46938264419205666,40.543886443512825
24.0,8.16577140184567,52.01122450703021,0.46255869116364917,39.44349130647763
25.0,5.154183714264043,52.9673290245941,0.45555739691080216,38.326403474452945
26.0,2.264662122415872,53.855681437576784,0.44838794943127114,37.19281660179372
27.0,0.0,54.67641644312759,0.44106009086011144,36.04293230078933
28.0,0.0,55.42977398676904,0.4335840790259049,34.87696035974011
29.0,0.0,56.11609956112382,0.42597064443244353,33.69511891277735
30.0,0.0,56.7358452273584,0.41823094877797906,32.497634679000335
31.0,0.0,57.28956596894126,0.4103765294500689,31.284742938755958
32.0,0.0,56.43687041140241,0.40387728681059504,30.83886391915044
33.0,0.0,55.07537229819531,0.3976751973372879,30.51904851476138
34.0,0.0,53.4915800914057,0.3915734320987967,30.21108520679058
35.0,0.0,51.78431390371294,0.3855773924308449,29.914289422431178
36.0,0.0,50.02432794689398,0.37969180575387584,29.628078323516277
37.0,0.0,48.25699367328337,0.37392081228094143,29.351950534549374
38.0,0.0,46.509498388248694,0.36826803599188035,29.085470332897195
39.0,0.0,44.797311197217944,0.3627366431704484,28.828255306611148
40.0,0.0,43.1287878115228,0.3573293904853058,28.579966702839062
41.0,0.0,41.50813944136583,0.35204866767806486,28.34030156872432
42.0,0.0,39.93719275053278,0.346896530456305,28.108986878643254
43.0,0.0,38.416438442501736,0.3418747319239826,27.88577456195854
44.0,0.0,36.9456165854736,0.33698474850139387,27.67043739532462
45.0,0.0,35.524057550881295,0.332227810879498,27.462766506561632
46.0,0.0,34.15084917277755,0.3276049072629958,27.26256827570905
47.0,0.0,32.824951143933276,0.32311682056886903,27.069662031997055
48.0,0.0,31.545262507226507,0.3187641402753521,26.88387914132746
49.0,0.0,30.310629046384516,0.3145472688798559,26.705061039675332
50.0,0.0,29.119885490197536,0.31046644727599365,26.53305836718219
51.0,0.0,27.97185858268672,0.3065217657984696,26.367729880034286
52.0,0.0,26.865376337148966,0.302713176155038,26.208941769983436
53.0,0.0,25.799273604218712,0.2990405045435901,26.056566968725022
54.0,0.0,24.772392314081777,0.29550346253424287,25.91048455611983
55.0,0.0,23.783586259744652,0.2921016578993281,25.770579343151706
56.0,0.0,22.831723235663404,0.2888346054065866,25.63674144475252
57.0,0.0,21.915685540189298,0.2857017365932303,25.508865905788646
58.0,0.0,21.034377249299123,0.28270240842444505,25.38685243468359
59.0,0.0,20.186718919636093,0.2798359127525937,25.27060512409696
60.0,0.0,19.371649435816764,0.2771014843538762,25.160032214353535
61.0,0.0,18.588129967127237,0.27449830883118337,25.055045890796258
62.0,0.0,17.835146657085865,0.27202553003656366,24.955562102533996
63.0,0.0,17.11171275687137,0.26968225710337884,24.86150038701312
64.0,0.22863864744321638,16.41687212944165,0.2674675709415015,24.772783725138698
65.0,0.830673469718003,15.749702833358532,0.2653805303795453,24.68933840113572
66.0,1.474819151383607,15.10932182870522,0.26342017784244043,24.611093876580185
67.0,2.162650875447808,14.494889953222366,0.2615855446267035,24.537982674124887
68.0,2.8952233495121336,13.905617717870456,0.259875655724031,24.469940263187834
69.0,3.6730209534311635,13.34077066728189,0.25828953440101415,24.406904964913092
70.0,4.495901399557587,12.799673296189722,0.25682620679706974,24.348817845584406
71.0,5.363269209007711,12.281730822458378,0.2554847023918914,24.29562266104144
72.0,6.273769617694662,11.786411468792915,0.2542640620153627,24.247265721392306
73.0,7.2254687967534075,11.313265952809447,0.253163337977847,24.2036958423619
74.0,8.215857923578609,10.861929465681607,0.25218159651870575,24.164864237809688
75.0,9.241816098687572,10.432122451445885,0.2513179212018099,24.13072449127124
76.0,10.299697167658818,10.023653494108366,0.2505714136401848,24.101232452388324
77.0,11.385357391701294,9.636417213410585,0.24994119526413625,24.07634617683308
78.0,12.494211835691289,9.270390704611946,0.24942640842524183,24.056025860656536
79.0,13.6213019077933,8.92562765643305,0.24902621717619222,24.0402337769366
80.0,14.761373404987578,8.602250197253301,0.24873980773714813,24.028934214539696
81.0,15.908963711653218,8.300438660435947,0.24856638865954325,24.022093418834828
82.0,17.05849601634318,8.020419527185885,0.24850519069850005,24.019679534219947
83.0,18.204377508045024,7.762451928785522,0.2485554664051648,24.021662548338792
84.0,19.341097720113595,7.526813223320487,0.2487164894472245,24.028014237878146
85.0,20.463322138344914,7.313784026936493,0.24898755368166628,24.038708115893762
86.0,21.565976759099772,7.12363320742582,0.24936797197751848,24.053719380507935
87.0,22.644311279567326,6.956602830309014,0.249857075007898,24.073024864267587
88.0,23.693976070556243,6.812895947792335,0.25045420896956216,24.096602987444346
89.0,24.711020615574583,6.692661942392874,0.25115873461416766,24.12443370700578
90.0,25.69193164409441,6.595986410031574,0.25197002459583817,24.15649848164304
91.0,26.6335963937742,6.52288059671566,0.25288746172735466,24.192780216493215
92.0,27.533278120751252,6.473276365815404,0.25391043620761194,24.233263193067454
93.0,28.388630855201846,6.4470185303073535,0.25503834203712744,24.27793308406302
94.0,29.197522146959642,6.4438531241729535,0.2562705774080242,24.326776913619874
95.0,29.958054695621115,6.463441266105991,0.2576065393817794,24.379782877041265
96.0,30.668598556444177,6.505339109505852,0.259045619103663,24.43694055437262
97.0,31.327497985650297,6.569009377727703,0.2605872056424593,24.498240613913755
98.0,31.93340058962573,6.653823859357492,0.2622306729471975,24.56367493831286
99.0,32.48488307410356,6.759054036592783,0.26397538667244946,24.63323655678337
100.0,32.980687038453596,6.883888614368497,0.26582069539052305,24.706919563321158
101.0,33.41973954097732,7.027432839416214,0.2677659267386281,24.78471914697604
102.0,33.801115689324085,7.188713686470091,0.2698103862975813,24.866631553830494
103.0,34.124133146369616,7.366693711316995,0.27195335413897037,24.95265400433447
104.0,34.38844729925938,7.560277245582289,0.2741940795326116,25.04278471927034
105.0,34.59404493554585,7.768318818721584,0.27653177849565674,25.13702292094058
106.0,34.7413020550611,7.989638991731299,0.27896563172971073,25.235368746947007
107.0,34.831054985302714,8.223035616903728,0.2814947797562217,25.33782326216139
108.0,34.86459217443264,8.467295478520018,0.2841183184444581,25.44438849907289
109.0,34.84363861138492,8.72120873682407,0.2868352983105927,25.555067382506195
110.0,34.770365719868984,8.983580806064529,0.2896447208086441,25.66986373256519
111.0,34.64736242016951,9.25324556870493,0.292545531899244,25.788782337432043
112.0,34.477565012382435,9.529073757742122,0.29553662195623104,25.911828906414776
113.0,34.264219011090475,9.809980478532683,0.29861682357190533,26.03901007042047
114.0,34.010827630972095,10.094934645278546,0.30178490424548865,26.170333485396856
115.0,33.72107979679573,10.382959606652182,0.30503956528952314,26.30580783404414
116.0,33.3987976131606,10.673132607494416,0.30837944147688046,26.445442831062163
117.0,33.04788115410993,10.964586244288432,0.31180309401861334,26.589249363801606
118.0,32.67226697070567,11.256503155724797,0.31530900694538827,26.737239567978186
119.0,32.27589049842288,11.548108293296707,0.31889558855090655,26.889426849200795
120.0,31.862645299064628,11.838663585941688,0.3225611654561941,27.045826071262134
121.0,31.436371772195344,12.127460566884512,0.3263039755610907,27.20645374710995
122.0,31.000845369669147,12.41381139894059,0.33012217054686355,27.37132809456853
123.0,30.55975372987848,12.697042147258799,0.33401381135390723,27.540469283851827
124.0,30.116699813878064,12.976487660136911,0.3379768574819045,27.713899810133633
125.0,29.67521083336769,13.251488130864848,0.34200916897767863,27.891644615906344
126.0,29.23872699231123,13.521386141371863,0.3461085031369443,28.073731411342187
127.0,28.81060317387346,13.7855271750573,0.35027250054131576,28.260191319800164
128.0,28.394130476012013,14.043264138094116,0.35449868387985967,28.45105913518001
129.0,27.992528482677898,14.293959390584984,0.35878445556936367,28.64637374286387
130.0,27.60894061286591,14.536991300261654,0.36312708061625293,28.84617912442398
131.0,27.246460424389173,14.771764110826101,0.36752367905821154,29.05052491587463
132.0,26.908126095993737,14.997712207283135,0.37197122382313746,29.259466958136887
133.0,26.59691095825357,15.21430938043716,0.3764665199945138,29.473068740361235
134.0,26.31575059870163,15.421079543113782,0.3810061870175702,29.691402559219714
135.0,26.067541709250598,15.61759917873349,0.3855866554355919,29.914550244534546
136.0,25.855132082398647,15.803503830137219,0.390204142056625,30.14260509664398
137.0,25.681344917405948,15.97849667563866,0.3948546169208076,30.37567411334835
138.0,25.548984769010723,16.14234576287662,0.39953379669075756,30.61387898731386
139.0,25.460828952402267,16.29488491881467,0.40423711561037723,30.857358545427036
140.0,25.41964466659949,16.436017575754214,0.40895967143233475,31.106272654512452
141.0,25.428202029308068,16.565709339507222,0.41369621191857475,31.360803696395557
142.0,25.489265123424953,16.68398311581002,0.41844110213731883,31.621159492457437
143.0,25.605597640056327,16.790917146452657,0.42318824583160297,31.887579379281902
144.0,25.779978724134185,16.886635707986464,0.4279310586449432,32.16033667581166
145.0,26.015189561026723,16.971300153517745,0.432662434768519,32.43974195556562
146.0,26.31400564166713,17.04510234754098,0.4373746472811153,32.72615124936252
147.0,26.67920634481731,17.10825535870177,0.44205929973322666,33.019970420156554
148.0,27.11355555375172,17.160983570603538,0.44670730175404205,33.32165817126083
149.0,27.61977898290233,17.2035136057466,0.45130876383356877,33.631735487118924
150.0,28.200558384517343,17.23606572135628,0.4558529266104213,33.950792540497616
151.0,28.858507199342192,17.258845771381658,0.46032816623947737,34.27949002704746
152.0,29.5961336783021,17.272036741838814,0.4647219180742866,34.61856748967025
153.0,30.415812379792605,17.27579083656152,0.4690206134433705,34.96885131283469
154.0,31.319755971722028,17.270225796638528,0.47320974492877205,35.33125237299605
155.0,32.30996580105322,17.255419736658062,0.4772738876990832,35.70676785919286
156.0,33.38817429569589,17.23140558513319,0.4811966996444637,36.0964875631891
157.0,34.55584095560823,17.198177211725774,0.4849611709577595,36.501575524947825
158.0,35.814026188850924,17.155682642181844,0.48854969015896005,36.92327439353387
159.0,37.16340415530644,17.103837537580855,0.49194441925154175,37.36287833808293
160.0,38.604146460259685,17.04252561555339,0.4951275254516102,37.82172180404527
161.0,40.135911268011846,16.971618126384744,0.49808171452312955,38.30114125817635
162.0,41.757733798561695,16.89097961241287,0.5007905712543441,38.80245422893102
163.0,43.46799673848371,16.800495009347415,0.5032392737959278,39.32690424139127
164.0,45.26433988130697,16.700080544641896,0.505415013448468,39.875631647113494
165.0,47.14364949980601,16.5897115004773,0.5073076433729343,40.44961704869412
166.0,49.102029576003154,16.46943269517201,0.5089099644915377,41.04965691529783
167.0,51.13466362753996,16.339394104912866,0.5102187499928793,41.67628121496451
168.0,53.235983032640554,16.19984328982616,0.5112342451901188,42.32977558753564
169.0,55.3995547003138,16.051150629809563,0.5119609254219868,43.01011858001622
170.0,57.618192353672335,15.89380407119241,0.5124071378764514,43.716992420883955
171.0,59.88403115839863,15.728403082585428,0.5125848545750433,44.44979215067759
172.0,62.18861696717677,15.555649393755306,0.5125093335683312,45.207640332085894
173.0,64.52302809143887,15.376330557261646,0.5121985942012254,45.9894153970415
174.0,66.87804161134646,15.191293972581972,0.5116726358230961,46.79380506485858
175.0,69.24427495931066,15.001425086104161,0.5109528131178955,47.61934973096931
176.0,71.61234472850725,14.807623659998574,0.5100611810310621,48.46448789377354
177.0,73.97303375016888,14.610778810877326,0.5090198034911334,49.32760859790951
178.0,76.3174257856304,14.411750205796883,0.5078502353750372,50.20709445057656
179.0,78.63702837128909,14.21135252702363,0.5065731049108239,51.10135602357289
180.0,80.92391212330547,14.010339767305808,0.5052076992118252,52.00886632014301
181.0,83.17078082745095,13.809398960751885,0.5037717812737774,52.92818130456427
182.0,85.37102342188268,13.609146928178985,0.5022814912088553,53.85795280114712
183.0,87.51877715293246,13.410126671931238,0.5007512410160219,54.79694088266558
184.0,89.60899195520705,13.21280514999319,0.49919365135645827,55.74402322444739
185.0,91.63730196644867,13.01758787505208,0.4976198897218048,56.69817580608409
186.0,93.60020964489748,12.824806569934,0.49603935992884185,57.65849793153174
187.0,95.49485729195251,12.634741401206036,0.4944602437305519,58.62417649192042
188.0,97.31917227111249,12.44761215524314,0.4928892579959466,59.59450606935382
189.0,99.07163345934255,12.263598248121042,0.49133216594665574,60.568852829827264
190.0,100.75150573035606,12.082824785927679,0.4897933875192773,61.546686717016435
191.0,102.35829454806847,11.905399985682617,0.48827695997629794,62.527507101866654
192.0,103.89238223409994,11.73137664615201,0.48678554484494263,63.51092505131477
193.0,105.35438733341006,11.560793543432212,0.4853214310068007,64.49658272894543
194.0,106.74517445830375,11.39367369216652,0.48388655900376376,65.48415125876792
195.0,108.06622906478206,11.230004208393407,0.482481944703551,66.47338286627064
196.0,109.31913642355451,11.069767034490996,0.4811084492688196,67.46404397532906
197.0,110.5056888673753,10.912931337894186,0.4797666451633102,68.45592763660575
198.0,111.62799965605977,10.75944840756138,0.4784566000406804,69.44887625305364
199.0,112.68821683035794,10.609267718667116,0.4771783233326478,70.4427381716338
200.0,113.68862241891895,10.46232958770102,0.47593160664838285,71.43738483815767
201.0,114.6316092230245,10.318567254420524,0.47471599643713297,72.43271568189346
202.0,115.5195807360262,10.177913120312253,0.4735310157049814,73.4286329171533
203.0,116.35497873390761,10.040294371586436,0.47237604715687315,74.42505712480437
204.0,117.14023693324613,9.905636757364437,0.4712503728331051,75.42192360856548
205.0,117.87778949268053,9.773865357588203,0.4701532623072739,76.41916957669801
206.0,118.57001695187947,9.644903537422424,0.46908391306509467,77.41674585391401
207.0,119.21924489156156,9.518675572616777,0.4680414919981349,78.41461043630595
208.0,119.8277870985933,9.395105182104642,0.46702515911826403,79.41272310344662
209.0,120.39783486467073,9.274117051372656,0.46603405380149987,80.4110531231675
210.0,120.93152173393109,9.15563730157274,0.465067312767996,81.40957296954798
211.0,121.43094975757816,9.039591815517388,0.4641240725014978,82.40825692355729
212.0,121.8980626839608,8.925909160757776,0.4632034818288668,83.40708547287294
213.0,122.33476044156659,8.814519091589448,0.46230469472007896,84.40604046765348
214.0,122.74287119913551,8.705352200508742,0.46142687650827247,85.40510579365451
215.0,122.86156399826616,8.23267970560409,0.46056921068332707,86.40426806016968
216.0,122.63522844154367,7.35835954081075,0.45973089673236583,87.40351549627293
217.0,122.41412528844727,6.577502119892758,0.4589111523449214,88.40283786926429
218.0,122.19801725712254,5.880037621021709,0.4581092142838737,89.40222627000945
219.0,121.98667671161925,5.256991237719269,0.45732433899761366,90.40167293302918
220.0,121.77988513571549,4.7003618034355386,0.4565558029380156,91.40117108007438
221.0,121.57743264158597,4.203016096376779,0.45580290267073104,92.40071478640225
222.0,121.37911750796141,3.7585937864438157,0.4550649548139129,93.40029886603651
223.0,121.18474574470008,3.361423261911948,0.4543412958372234,94.39991877314876
224.0,120.99413068251351,3.0064463270619255,0.4536312817511881,95.3995705172582
225.0,120.80709257814729,2.6891501496454566,0.4529342876873723,96.39925058977246
226.0,120.62345824240124,2.405508475512446,0.4522497074122614,97.39895590089412
227.0,120.44306068754058,2.151928695448149,0.45157695278666643,98.39868372522268
228.0,120.26573879255272,1.9252049778332447,0.4509154531837564,99.3984316547819
229.0,120.09133698519351,1.7224761655536864,0.4502646548774535,100.39819755841279
230.0,119.91970493415101,1.5411878592553734,0.44962402039262706,101.39797954640764
231.0,119.75069725718522,1.3790593315967736,0.44899302784540607,102.39777593997002
232.0,119.58417324206856,1.2340543698666568,0.4483711702732194,103.39758524471105
233.0,119.41999658484465,1.104355443399213,0.4477579549774184,104.39740612778503
234.0,119.25803513106226,0.9883384312677371,0.4471529028386186,105.39723739768873
235.0,119.09816062592041,0.8845526017868206,0.44655554762826294,106.39707798665638
236.0,118.94024848688295,0.7917026842211197,0.4459654353674961,107.39692693564263
237.0,118.78417757484317,0.7086309839819994,0.4453821236581505,108.39678338086705
238.0,118.62982997109071,0.6343029694816321,0.444805181012278,109.39664654198621
239.0,118.47709077326225,0.5677946671569022,0.44423418622871136,110.39651571196589
240.0,118.3258478923894,0.5082800557501257,0.4436687277588083,111.39639024799733
241.0,118.17599185192215,0.4550207030784952,0.44310840306570504,112.39626956339042
242.0,118.02741560243378,0.4073568714052531,0.44255281802658636,113.39615312058082
243.0,117.88001433925339,0.3646986607459164,0.44200158633592357,114.39604042483845
244.0,117.73368531972226,0.32651853041773976,0.4414543288990683,115.39593101855458
245.0,117.58832769291053,0.2923450003352241,0.44091067326239725,116.39582447624585
246.0,117.44384233324651,0.26175644801366965,0.4403702530514978,117.39572040002092
247.0,117.30013167267764,0.2343756941508467,0.43983270739907393,118.3956184153805
248.0,117.15709954226664,0.20986552699754119,0.4392976804019123,119.39551816745846
249.0,117.01465101782887,0.18792437174139537,0.4387648205888456,120.39541931754725
250.0,116.8726922640086,0.16828235777896933,0.43823378038025,121.39532153980133
251.0,116.73113038507668,0.15069813455299969,0.43770421556916955,122.39522451818232
252.0,116.58987327910317,0.1349558450595129,0.4371757848129208,123.39512794354155
253.0,116.44882949120263,0.12086227342319512,0.4366481491200553,124.3950315107739
254.0,116.3079080711532,0.10824457407058324,0.43612097135222444,125.39493491605879
