Time,J,A,S,tau
0.0,100.0,10.0,0.8435628530744184,2.375296912114014
1.0,92.35372061471027,12.184457720433588,0.8213017305669416,2.375296912114014
2.0,84.72762805303813,14.112258422105933,0.799608022500038,2.375296912114014
3.0,76.5118822105571,16.47086765014882,0.7916365207818394,2.375296912114014
4.0,68.49573510875045,18.484257770894146,0.7916705821188551,2.375296912114014
5.0,61.36229052923188,19.768231295388507,0.7917218282796629,2.375296912114014
6.0,55.29710179986761,20.330106287456022,0.7917902334945746,2.375296912114014
7.0,50.15876167572555,20.418392682689685,0.791875763606112,2.375296912114014
8.0,45.73959803136957,20.26873244244033,0.79197837609583,2.375296912114014
9.0,41.86488313692155,20.041102257060423,0.7920980201189399,2.375296912114014
10.0,38.41249929499101,19.820248798921266,0.7922346365482382,2.375296912114014
11.0,35.300286870868334,19.642411386651514,0.7923881580178767,2.375296912114014
12.0,32.473541939488115,19.51578677728679,0.7925585089847863,2.375296912114014
13.0,29.895552228031974,19.434463912160897,0.7927456057760183,2.375296912114014
14.0,27.54091936083137,19.386938845982936,0.7929493566856615,2.375296912114014
15.0,25.390912458090057,19.361106911910454,0.79316966200337,2.375296912114014
16.0,23.430205588056644,19.34680516246611,0.793406414141785,2.375296912114014
17.0,21.644939369627966,19.336722305177773,0.7936594977096622,2.375296912114014
18.0,20.021801336054008,19.32632686249567,0.7939287895761331,2.375296912114014
19.0,18.547719802475093,19.313282936014023,0.7942141590039008,2.375296912114014
20.0,17.20991960131646,19.2967526084139,0.7945154677584901,2.375296912114014
21.0,15.996119954124044,19.276772321845613,0.7948325701956552,2.375296912114014
22.0,14.894756047281907,19.25378159913392,0.7951653133732676,2.375296912114014
23.0,13.895108590765687,19.228325108208594,0.7955135372010124,2.375296912114014
24.0,12.98736631415908,19.200894581561403,0.795877074566711,2.375296912114014
25.0,12.162634326072032,19.171865152722127,0.7962557514411174,2.375296912114014
26.0,11.412898034120305,19.141489890719992,0.7966493870285116,2.375296912114014
27.0,10.730946598386918,19.109922269010347,0.7970577939275442,2.375296912114014
28.0,10.1102924834522,19.07724633252038,0.7974807782728024,2.375296912114014
29.0,9.545101549785079,19.0435047123101,0.7979181398612527,2.375296912114014
30.0,9.030119048088977,19.008720328851556,0.7983696723327863,2.375296912114014
31.0,8.560601988309418,18.972910512132078,0.7988351633399359,2.375296912114014
32.0,8.132261403887933,18.936094981114078,0.7993143947023953,2.375296912114014
33.0,7.741224703300525,18.898299029287106,0.799807142558813,2.375296912114014
34.0,7.38398637318865,18.85955429688372,0.8003131775624468,2.375296912114014
35.0,7.057373508096041,18.81989793946207,0.8008322650549667,2.375296912114014
36.0,6.758512800788051,18.779371373713534,0.8013641652497407,2.375296912114014
37.0,6.4848062036469845,18.738018844109916,0.8019086333993221,2.375296912114014
38.0,6.233901462640263,18.695886483704776,0.8024654199950801,2.375296912114014
39.0,6.003670460261823,18.65302151771064,0.8030342709499517,2.375296912114014
40.0,5.792187665991441,18.609471833135274,0.803614927789317,2.375296912114014
41.0,5.597712935399727,18.565285610064482,0.8042071278466635,2.375296912114014
42.0,5.418671361991557,18.520511331264757,0.8048106044590777,2.375296912114014
43.0,5.253638363886223,18.475197687866487,0.8054250871651327,2.375296912114014
44.0,5.101325115992246,18.429393593507527,0.8060503018977526,2.375296912114014
45.0,4.960567088309648,18.383148057604938,0.8066859711923823,2.375296912114014
46.0,4.830310254277722,18.336510285794628,0.8073318143831197,2.375296912114014
47.0,4.709600086759769,18.289529656872933,0.8079875478101949,2.375296912114014
48.0,4.597575710150278,18.242255487326354,0.8086528850096355,2.375296912114014
49.0,4.493456909074392,18.19473720673385,0.8093275369249576,2.375296912114014
50.0,4.396537168423147,18.147024217492078,0.8100112121178994,2.375296912114014
51.0,4.306178370794379,18.099165792839994,0.8107036169485586,2.375296912114014
52.0,4.221802261379002,18.051211037917355,0.8114044558143692,2.3752969121140137
53.0,4.142884676309816,18.00320883382414,0.8121134313359818,2.3752969121140137
54.0,4.0689554479844805,17.95520769176322,0.81283024452771,2.3752969121140137
55.0,3.999585553286787,17.90725587512639,0.8135545950331929,2.3752969121140137
56.0,3.934385439131516,17.85940119273439,0.814286181331918,2.3752969121140137
57.0,3.8730060482393758,17.81169096064161,0.815024700927035,2.3752969121140137
58.0,3.815130978007606,17.764172034460206,0.8157698505091223,2.3752969121140137
59.0,3.7604694277659614,17.716890584850773,0.8165213262047409,2.3752969121140137
60.0,3.708763658894757,17.669892299899825,0.817278823742243,2.3752969121140137
61.0,3.6597791503321067,17.623222183384396,0.8180420386376306,2.3752969121140137
62.0,3.6132955295015985,17.57692414003315,0.8188106663928054,2.3752969121140137
63.0,3.5691284051488075,17.531042126092146,0.8195844026783417,2.3752969121140137
64.0,3.5270936098750294,17.4856182159199,0.8203629435392866,2.3752969121140137
65.0,3.4870404161022064,17.4406948795295,0.8211459854869565,2.3752969121140137
66.0,3.4488164444917624,17.39631229718172,0.8219332258691615,2.3752969121140137
67.0,3.412300136371458,17.352511395711954,0.8227243627246246,2.3752969121140137
68.0,3.377360105779666,17.309329927446445,0.8235190953882862,2.3752969121140137
69.0,3.343915263450857,17.26680851234754,0.8243171242894293,2.3752969121140137
70.0,3.3118519557853827,17.224982845971216,0.8251181511739238,2.3752969121140137
71.0,3.281069266984164,17.18388772879151,0.8259218793141251,2.3752969121140137
72.0,3.251500318211342,17.143559125770818,0.8267280139807061,2.3752969121140137
73.0,3.223074524303078,17.104031259401918,0.8275362619381674,2.3752969121140137
74.0,3.195714703118269,17.06533589922243,0.8283463320417098,2.3752969121140137
75.0,3.169348265846109,17.027503129191782,0.8291579353347509,2.3752969121140137
76.0,3.1439503433109586,16.99056671716544,0.8299707853742357,2.3752969121140137
77.0,3.119460638404423,16.954555111993884,0.8307845976679865,2.3752969121140137
78.0,3.0958269899268536,16.91949592805756,0.8315990905316619,2.3752969121140137
79.0,3.0730076221713154,16.88541575831415,0.8324139848926755,2.3752969121140137
80.0,3.0509635297812565,16.852340044734778,0.8332290044673148,2.3752969121140137
81.0,3.0296593324020877,16.82029313374175,0.834043875866594,2.3752969121140137
82.0,3.0090621597508203,16.789298136121708,0.834858328705989,2.3752969121140137
83.0,2.9891421634334105,16.759376991926075,0.8356720957183121,2.3752969121140137
84.0,2.969870782475011,16.730550248998313,0.8364849128454451,2.3752969121140137
85.0,2.951223375891734,16.70283742105185,0.8372965193405358,2.3752969121140137
86.0,2.933157994719028,16.676254391230767,0.8381066574640014,2.3752969121140137
87.0,2.915662768554049,16.650818918864438,0.8389150741066497,2.3752969121140137
88.0,2.8987448883341242,16.626550454806157,0.83972151841059,2.3752969121140137
89.0,2.882346584839667,16.60345862890117,0.8405257438240943,2.3752969121140137
90.0,2.8664903587592314,16.581561429686804,0.8413275077225587,2.3752969121140137
91.0,2.8511227516100837,16.560865973483025,0.8421265701355625,2.3752969121140137
92.0,2.836252882375105,16.541385344041906,0.8429226967467853,2.3752969121140137
93.0,2.821879139407181,16.523130372727238,0.8437156553719339,2.3752969121140137
94.0,2.8079638285059785,16.50610603154318,0.8445052185881885,2.3752969121140137
95.0,2.794493214855299,16.490318398518657,0.8452911628295755,2.3752969121140137
96.0,2.781456405454978,16.47577249920773,0.8460732685449834,2.3752969121140137
97.0,2.7688425081404926,16.462472478281548,0.8468513202483665,2.3752969121140137
98.0,2.756639206725644,16.450421070930492,0.8476251065257873,2.3752969121140137
99.0,2.744835345568884,16.439619881420107,0.8483944200797494,2.3752969121140137
100.0,2.7334203964724253,16.43006925803052,0.8491590577479734,2.3752969121140137
101.0,2.7223841838526357,16.421768274649498,0.8499188205188951,2.3752969121140137
102.0,2.7117166116424447,16.414714689276597,0.850673513542112,2.3752969121140137
103.0,2.7014080405047936,16.40890500639933,0.8514229461401005,2.3752969121140137
104.0,2.6914490607735075,16.404334464030896,0.8521669318109156,2.3752969121140137
105.0,2.6818305374996902,16.40099706213676,0.8529052882288662,2.3752969121140137
106.0,2.672543513067468,16.398885564861814,0.8536378372401872,2.3752969121140137
107.0,2.6635792237374987,16.397991518801906,0.8543644048555552,2.3752969121140137
108.0,2.6549290818105566,16.3983052635827,0.8550848212384918,2.3752969121140137
109.0,2.646584615561442,16.39981593663851,0.8557989206900486,2.3752969121140137
110.0,2.638537518520535,16.402511491250106,0.8565065416301517,2.3752969121140137
111.0,2.6307795467639385,16.406378693667474,0.8572075265753024,2.3752969121140137
112.0,2.6233026176921506,16.411403148053694,0.8579017221131032,2.3752969121140137
113.0,2.6160986682201903,16.417569288066183,0.8585889788735589,2.3752969121140137
114.0,2.609159798218169,16.42486040886201,0.8592691514972438,2.3752969121140137
115.0,2.602478088789121,16.43325865371843,0.8599420986006258,2.3752969121140137
116.0,2.596045795275011,16.44274505411004,0.8606076827385509,2.3752969121140137
117.0,2.5898551135364305,16.453299510069673,0.8612657703637604,2.3752969121140137
118.0,2.5838984386297734,16.464900840663162,0.8619162317846788,2.3752969121140137
119.0,2.578168056195476,16.4775267551951,0.8625589411188854,2.3752969121140137
120.0,2.572656510952929,16.491153920246287,0.8631937762479102,2.3752969121140137
121.0,2.567356209587604,16.50575792005456,0.8638206187644712,2.3752969121140137
122.0,2.5622599416071457,16.521313201113646,0.8644393471658399,2.375297038941806
123.0,2.5572685638775714,16.53786864654034,0.8650538313250015,2.375222328660978
124.0,2.5545338869188554,16.55341115851479,0.8655590022011982,2.3770563551428547
125.0,2.5550781716761555,16.567351705816787,0.8659264269166739,2.3813613432504868
126.0,2.5580161251130606,16.580952383986737,0.8662232760106061,2.386886114370226
127.0,2.561696389883529,16.595790914214778,0.8665156394661934,2.392377811135399
128.0,2.5655123999940606,16.612241594690804,0.8668034673778376,2.3978341724748025
129.0,2.569085889830785,16.63039966596309,0.8670867064473801,2.403253023590817
130.0,2.5723153283941276,16.650097354299604,0.8673653057478324,2.4086321672737787
131.0,2.5752347882027813,16.671101705399295,0.8676392167589665,2.4139693840865104
132.0,2.5779028308303142,16.693178987332317,0.8679083933135824,2.4192624339351907
133.0,2.5804228681017642,16.71613340123604,0.8681727916517844,2.4245090558290543
134.0,2.5828536923701737,16.739804187007657,0.8684323700371098,2.4297069726480176
135.0,2.5852562050241104,16.76408348591688,0.8686870895065703,2.434853885306043
136.0,2.587658541317357,16.78888408871814,0.868936912714589,2.4399474833287673
137.0,2.5900804950200236,16.814151300922603,0.8691818053233026,2.4449854354095644
138.0,2.5925292069164776,16.839838269854916,0.869421734473139,2.4499654013112213
139.0,2.594996941125677,16.865907700193194,0.8696566698239191,2.45488502647593
140.0,2.5974760299041755,16.89232487287703,0.8698865830914826,2.459741946183594
141.0,2.5999568511285323,16.919055694743314,0.870111448054051,2.4645337870345956
142.0,2.6024288961474866,16.946064955442406,0.8703312405224762,2.469258168803434
143.0,2.6048817767666157,16.973315859485076,0.8705459382890246,2.4739127064601814
144.0,2.6073056266117147,17.00076998289497,0.8707555210669846,2.4784950123131875
145.0,2.609691287868836,17.028387518188786,0.8709599704344688,2.4830026982142326
146.0,2.61203028275705,17.056127587028463,0.8711592697775017,2.487433377873651
147.0,2.6143147153993995,17.083948555456292,0.8713534042282728,2.4917846692787315
148.0,2.616537154019146,17.111808303094985,0.8715423606028637,2.4960541972250163
149.0,2.618690498335897,17.139664431238735,0.8717261273400622,2.5002395960059816
150.0,2.620767909261185,17.16747441675762,0.8719046944254879,2.5043385121185917
151.0,2.6227627947097463,17.195195732558354,0.8720780533219529,2.5083486070871106
152.0,2.624668802692768,17.22278593159397,0.8722461968926233,2.51226756029335
153.0,2.6264797918266827,17.250202710386876,0.872409119332718,2.516093072041187
154.0,2.6281898274476596,17.277403963384515,0.8725668160886967,2.5198228665299105
155.0,2.629793229392493,17.30434783812668,0.8727192837840891,2.5234546950476346
156.0,2.631284518298936,17.33099277893826,0.8728665201379769,2.526986339093965
157.0,2.632658523192445,17.357297589403487,0.8730085238862585,2.530415613627647
158.0,2.6339102899485156,17.38322147474097,0.8731452947002395,2.5337403703235126
159.0,2.6350352002072053,17.40872411061849,0.8732768331056528,2.5369585008521978
160.0,2.6360288947528,17.433765690978525,0.8734031404012231,2.540067940211639
161.0,2.63688736777909,17.458306997840825,0.8735242185772003,2.543066670019209
162.0,2.637606900827514,17.482309452818544,0.8736400702344181,2.545952721867937
163.0,2.6381841331823526,17.505735185813236,0.8737506985037244,2.5487241806072856
164.0,2.6386160222878585,17.52854709049825,0.8738561069663884,2.5513791876615715
165.0,2.6388998882175323,17.55070889009353,0.8739562995755509,2.5539159442617723
166.0,2.639033394075815,17.572185194914653,0.8740512805791029,2.556332714676438
167.0,2.6390145694765317,17.59294156482194,0.8741410544442435,2.558627829351678
168.0,2.6388418071225432,17.612944567578968,0.8742256257839813,2.56079968800536
169.0,2.6385138684606666,17.63216183770338,0.8743049992858579,2.562846762630648
170.0,2.6380298935801263,17.65056213465317,0.8743791796432048,2.5647676004048003
171.0,2.6373893915938806,17.66811539784839,0.8744481714890617,2.5665608265116684
172.0,2.636592261004844,17.6847928037293,0.8745119793332733,2.568225146817612
173.0,2.635638767813669,17.700566816794343,0.874570607502588,2.5697593504697185
174.0,2.6345295725864513,17.71541124444293,0.8746240600846031,2.5711623122936436
175.0,2.6332657007632543,17.72930128405517,0.8746723408749696,2.5724329951265568
176.0,2.631848570744674,17.742213574271286,0.874715453329093,2.573570451895392
177.0,2.630279963453696,17.75412623846263,0.8747534005172954,2.5745738276462826
178.0,2.6285620426993868,17.765018930711925,0.8747861850850513,2.575442361267242
179.0,2.6266973348259426,17.77487287651677,0.8748138092168762,2.5761753871782815
180.0,2.6246887283102756,17.78367091122783,0.8748362746057102,2.576772336670578
181.0,2.622539479351771,17.79139751943427,0.874853582426229,2.577232739222577
182.0,2.620253172275164,17.798038863035302,0.8748657333137879,2.5775562234391867
183.0,2.617833772748005,17.803582821422417,0.8748727273477768,2.577742517957608
184.0,2.6152855247551017,17.808019005817904,0.8748745640403021,2.5777914519860405
185.0,2.612613078740727,17.811338802901478,0.8748712423301466,2.5777029557571374
186.0,2.609821294623491,17.813535371590593,0.8748627605810881,2.577477060688193
187.0,2.6069153881215197,17.814603682641447,0.874849116586363,2.577113899380156
188.0,2.6039007380541714,17.814540511253117,0.8748303075766913,2.5766137054649914
189.0,2.600783180624812,17.813344486140082,0.8748063302365499,2.575976812994875
190.0,2.597568697175068,17.81101606151541,0.8747771807215531,2.5752036559472735
191.0,2.5942636196853734,17.807557547036414,0.8747428546846879,2.5742947671372933
192.0,2.590874477671646,17.802973094089626,0.8747033473040192,2.5732507773561903
193.0,2.5874080295609416,17.797268695630482,0.874658653317988,2.57207241384418
194.0,2.583871334774303,17.790452193655696,0.8746087670635811,2.5707604989913495
195.0,2.580271491088759,17.782533235493254,0.8745536825190727,2.569315948514483
196.0,2.576615684683925,17.77352327403307,0.8744933933509116,2.56773976987852
197.0,2.572911193606332,17.763435557023925,0.8744278929654635,2.56603306044233
198.0,2.5691657724711066,17.7522851493094,0.8743571745675924,2.564197004800276
199.0,2.565387229270632,17.740088860964025,0.8742812312181821,2.562232872702938
200.0,2.5615835084404943,17.72686522617233,0.8742000558973932,2.560142016169234
201.0,2.5577628021642296,17.712634489678642,0.8741136415700985,2.5579258670495792
202.0,2.5539324361232216,17.697418450670018,0.8740219812521229,2.555585934846961
203.0,2.5501001124480904,17.681240593777762,0.8739250680899445,2.553123804146033
204.0,2.546274511015687,17.66412606505479,0.8738228954302526,2.5505411294934026
205.0,2.5424639994815537,17.646101532648096,0.8737154568982581,2.5478396345510945
206.0,2.5386766988050935,17.627195140343737,0.8736027464752919,2.545021108194232
207.0,2.5349210096766734,17.607436505346502,0.8734847585777706,2.542087401042184
208.0,2.5312050130755512,17.586856615229134,0.8733614881483812,2.5390404232560644
209.0,2.527536861803004,17.5654877916769,0.8732329307215377,2.5358821395672284
210.0,2.523948516573591,17.54336605593985,0.8730990821806232,2.532614548186507
211.0,2.520448104526005,17.520526818604928,0.8729599399814926,2.5292397376544535
212.0,2.5170126370309087,17.497002797384535,0.8728155023387877,2.525759838840313
213.0,2.513621986239317,17.472827020413852,0.8726657674625079,2.5221769828272347
214.0,2.5103283662432854,17.448041546122894,0.8725107345093356,2.5184933404838477
215.0,2.507146188095439,17.422687375139173,0.8723504054413023,2.5147111685010097
216.0,2.5040579832741914,17.39680251341875,0.8721847826909345,2.5108327347146044
217.0,2.5010529609753975,17.370425641488335,0.8720138686924528,2.5068603081981395
218.0,2.4981771254553857,17.34360213017327,0.8718376676646228,2.5027961975928172
219.0,2.4954343531523806,17.31637487715853,0.8716561871265734,2.4986427580543977
220.0,2.492814162123973,17.28878550303285,0.8714694349158078,2.494402347360646
221.0,2.490314822992097,17.260876404847835,0.8712774189290964,2.4900773260642155
222.0,2.4879684316449397,17.23269382664017,0.8710801499573108,2.4856700836857515
223.0,2.485776724122723,17.204282458087953,0.8708776421725302,2.481183024674723
224.0,2.4837368867053966,17.175686646857724,0.870669909910048,2.476618553366369
225.0,2.481851712846419,17.146950777858816,0.8704569673950322,2.471979078698756
226.0,2.4801365081385254,17.11812033886977,0.8702388329520968,2.4672670195773176
227.0,2.478597490554176,17.089241718748884,0.8700155291810047,2.4624847871613746
228.0,2.477240331691195,17.060361323912222,0.8697870787825261,2.4576347921554307
229.0,2.476070688872216,17.03152555053582,0.8695535044724239,2.452719445250898
230.0,2.47509298151752,17.00277952491735,0.8693148319233128,2.4477411524570876
231.0,2.4743120643335184,16.974168157822362,0.8690710905411528,2.4427023087787894
232.0,2.473732937090194,16.94573658107369,0.8688223112201358,2.4376052997815214
233.0,2.473360378554848,16.91752979487345,0.8685685271322465,2.432452499374935
234.0,2.4731987441800407,16.889592602975753,0.8683097737408468,2.4272462683402347
235.0,2.4732521505720695,16.861969495273847,0.8680460888707351,2.421988952582346
236.0,2.473524528432887,16.83470457740406,0.8677775127171504,2.4166828818353148
237.0,2.4740195561376033,16.807841482270796,0.8675040878819623,2.411330368291185
238.0,2.4747407371413046,16.7814233196468,0.8672258593913419,2.4059337054340495
239.0,2.4756913392543947,16.755492607590043,0.8669428747202373,2.400495166903043
240.0,2.476874459245318,16.73009123207154,0.8666551838055907,2.395017005515617
241.0,2.478292969793729,16.70526038959724,0.8663628390631332,2.3895014523308182
242.0,2.479949529417245,16.681040586238,0.8660658973461035,2.3839506783825937
243.0,2.4822451547806215,16.657088845972055,0.8657437580842441,2.378762639907152
244.0,2.487322004737585,16.631585685784593,0.8652959975533173,2.3758516534838727
245.0,2.495676988819579,16.60454414427309,0.8647209666651178,2.375222636632086
246.0,2.505886599159495,16.57771116554296,0.8641043938406041,2.3752271741881628
247.0,2.516860000167292,16.552134188680874,0.8634798318276116,2.375227174188197
248.0,2.528068947668102,16.52819249948551,0.8628471538693495,2.375227174188197
249.0,2.5392694103161997,16.505943112123607,0.8622064752071495,2.375227174188197
