Time,J,A,S,tau,r
0.0,1.0,1.0,0.6440217903409952,16.949152542372882,0.0
1.0,8.816433417470659,4.17820085469011,0.6439673190589085,16.904488916074328,0.03308756714686483
2.0,28.426352299415964,7.23046112413576,0.6439118761699593,16.858329956772817,0.033109931932016064
3.0,57.7897590102035,10.161696884633237,0.6438554608051116,16.81068179598281,0.03313221209069552
4.0,95.1751819755435,12.976629984609655,0.6437980739196059,16.76155312038419,0.03315438725563657
5.0,139.11150626423054,15.679808161437004,0.6437397157346162,16.710950715020143,0.033176465425641115
6.0,188.34743642664773,18.275595770991966,0.6436803884480514,16.658885083052787,0.03319842954335028
7.0,241.81799037674148,20.768198346600453,0.6436200932523003,16.60536417060801,0.03322028392766331
8.0,298.61637839825164,23.161659225222053,0.6435588284109082,16.55039641912356,0.033242028743233
9.0,357.97117904994406,25.45986644924595,0.6434965994845667,16.49399058730008,0.033263662929215704
10.0,419.2254585674099,27.66654568836126,0.6434334108661842,16.436160969982524,0.03328516828038084
11.0,481.82008546962277,29.785286782171614,0.6433692667677194,16.37691957353203,0.033306539839675714
12.0,545.2799030884613,31.819548460556828,0.6433041690910137,16.3162754720944,0.033327782060581165
13.0,609.20223812224,33.772654051791726,0.6432381268688819,16.254239107891717,0.03334889470906698
14.0,673.2447013913493,35.64778940006351,0.6431711404080421,16.19082557545447,0.033369867068075786
15.0,737.1176805472303,37.44803333430375,0.6431032062162959,16.126043871313087,0.03339070424742804
16.0,800.5807498947199,39.17634326074311,0.6430343472050944,16.059901274494088,0.03341141336968189
17.0,860.4817305017897,44.40848266628516,0.6430234757083648,16.04674140396534,0.03318620658881457
18.0,913.8660542365648,57.46214508548273,0.6430051991451812,16.01787539327375,0.03297839887599374
19.0,957.8380796834804,76.86563982464169,0.6429869977855913,15.989156363535821,0.032792797000258195
20.0,985.6065950961932,101.36066624327572,0.6429688897860545,15.960859019579567,0.03262634594328609
21.0,992.2773828643549,129.8882150259452,0.6429509204083782,15.933228603163046,0.03247650686236041
22.0,977.3164095759344,161.55471708077786,0.6429331793078612,15.90645833374068,0.032341157484064485
23.0,943.6786028521253,195.60308140820163,0.6429157863677334,15.88068579154751,0.03221843299801262
24.0,895.8153701415863,231.39077275535624,0.6428988607810348,15.855991549831527,0.032106658016546184
25.0,838.1086645062364,268.37420416500413,0.6428824909097619,15.832406065706559,0.03200438032858675
26.0,774.1267124929528,306.0944105624953,0.6428667449466837,15.809924440992747,0.0319102969183913
27.0,706.4758635900657,344.16792332182825,0.6428516472760664,15.78851606088715,0.03182328658992119
28.0,636.9393647768442,382.2763407666417,0.6428372057393916,15.768134594028352,0.031742371361423695
29.0,566.6936670504266,420.1584294591223,0.642823411247134,15.748718081820357,0.03166674365654175
30.0,496.5026348051537,457.6016236582914,0.6428102443712346,15.730200122794866,0.03159571142167666
31.0,426.86164021041395,494.43610717677296,0.6427976658600714,15.712522702986329,0.03152877319905611
32.0,358.0928987807325,530.5295453965351,0.6427856514995164,15.695619786527699,0.03146544843657497
33.0,289.5590670285059,566.625580319631,0.6427741625633531,15.679429102655932,0.03140539593344608
34.0,221.1133356786828,602.918005558587,0.6427631649248288,15.66389463937593,0.031348304686231405
35.0,156.94244933324234,635.2711993418344,0.642752626742914,15.648968952084985,0.031293927720486114
36.0,102.28401001131448,658.5549300337001,0.6427425122399844,15.634603652823351,0.031242076684951048
37.0,60.020866906357114,670.0405214041988,0.6427327909657977,15.620757452001726,0.031192580220464845
38.0,30.000359607712745,670.0426452095198,0.6427234333402831,15.607392776884886,0.03114528757212275
39.0,10.135170586744753,660.7844319447705,0.6427144105674583,15.594474838483158,0.031100066904257255
40.0,-2.2514620987641143,645.0371788484879,0.6427056964222136,15.581973615521663,0.031056799315792537
41.0,-9.57377038058655,625.2692400028503,0.6426972658521335,15.569861719414257,0.031015375209114297
42.0,-13.663410065010945,603.3349181795892,0.642689096500382,15.558114813019392,0.03097569446616242
43.0,-15.769751164215046,580.485355522514,0.6426811727945525,15.54671350497167,0.03093766136502529
44.0,-16.685170736267562,557.5028958407133,0.6426734812203252,15.535639529426383,0.030901188989119522
45.0,-16.88489238057415,534.8479224597818,0.6426660052620653,15.52487873157463,0.030866193613028146
46.0,-16.63965360607083,512.776092179988,0.6426587308240298,15.514417260193765,0.030832600586575318
47.0,-16.093289270526245,491.41936793389345,0.6426516506882346,15.504243704614288,0.03080032429292183
48.0,-15.311983262702089,470.83743734508874,0.6426447538762078,15.494348669998358,0.030769295666996984
49.0,-14.312831305336077,451.04800364552847,0.6426380336133595,15.484723098548796,0.030739447286429068
50.0,-13.082920826821777,432.0472930425485,0.6426314853181614,15.475357702307377,0.030710717342388002
51.0,-11.589970770652062,413.82163035915545,0.6426251010917132,15.466252152191391,0.030683053483970314
52.0,-9.7844934744132,396.3503256352862,0.6426188773438493,15.45740278227558,0.030656398264816566
53.0,-7.60193125290093,379.60846508353626,0.6426128114780356,15.4488077867036,0.03063069513169004
54.0,-4.9650950165711025,363.5696516033309,0.6426069030481075,15.440464619142203,0.030605891457005933
55.0,-1.7859373255806106,348.2077374739562,0.6426011524620793,15.43237272484161,0.030581936083823834
56.0,2.0331619264771463,333.4977741614729,0.6425955613196892,15.424533513076724,0.030558781723190185
57.0,6.598133892653679,319.416565434689,0.6425901322709726,15.416947887624444,0.03053638182454525
58.0,12.0215606800213,305.9430765211455,0.6425848678452305,15.40961823787094,0.030514694043458582
59.0,18.420568228595926,293.0588256894205,0.6425797725013677,15.402547835757574,0.030493677407384567
60.0,25.914288741807194,280.7482536794957,0.6425748500539821,15.395740311952975,0.030473292996183555
61.0,34.620467837235296,268.999152669587,0.6425701055389031,15.38919992199519,0.030453504233347577
62.0,44.65148908129874,257.803111669401,0.6425655442060676,15.382931341232227,0.030434275185472887
63.0,56.109877023931666,247.15601279581423,0.6425611712771364,15.376940016741125,0.03041557433428519
64.0,69.08269654616699,237.0585105975142,0.6425569918072429,15.37123073223511,0.030397370257329078
65.0,83.63519553887926,227.51655204159005,0.6425530131385483,15.365809705471547,0.030379632841062477
66.0,99.8047971234834,218.54180661416257,0.6425492413298789,15.360683338719577,0.030362335203786513
67.0,117.59356142121109,210.1519861222063,0.6425456813929429,15.355856591325596,0.030345450370110664
68.0,136.96098204784195,202.37124882060485,0.6425423421533019,15.351337074082982,0.030328953762486226
69.0,157.81741378040576,195.2300389517863,0.642539226835213,15.34712980205461,0.030312824460804765
70.0,180.01787346088423,188.76549539779535,0.6425363407976339,15.343238825614081,0.03029703832984597
71.0,203.35641435412097,183.02091224117044,0.6425336924404081,15.339672370953837,0.030281576509508953
72.0,227.56409410066547,178.04518478102656,0.6425312845673532,15.336434819684767,0.030266422858570546
73.0,252.30721742311775,173.8924445317889,0.6425291235438028,15.333531009545531,0.030251557096896524
74.0,277.19091902480756,170.62085943671536,0.6425272132318937,15.33096601068867,0.03023696387796572
75.0,301.7624344216084,168.29110412693774,0.6425255586679371,15.328743461508546,0.030222629625390334
76.0,325.5218554662899,166.96496005351568,0.6425241605693155,15.326863394306669,0.030208538707721843
77.0,347.93427123901785,166.70255590433516,0.6425230226200774,15.325332716887932,0.03019468234345221
78.0,368.44492157401754,167.56073727880923,0.642522147521125,15.324153868558797,0.030181049060124712
79.0,386.4998574123845,169.58971785161427,0.6425215371190546,15.323329307163156,0.030167629738444196
80.0,401.5688113355748,172.83027368250671,0.6425211926523675,15.322858811410198,0.03015441226181264
81.0,413.17234785875144,177.30939968223043,0.6425211149803162,15.322743640698013,0.030141389290382674
82.0,420.90954310750703,183.0368954094114,0.6425213032409952,15.322982481793712,0.030128553064061647
83.0,424.48568382083084,190.00106069239928,0.6425217585734341,15.323576687669354,0.030115898250206986
84.0,423.7350199380249,198.1652264002774,0.6425224773117553,15.324523041990313,0.0301034164670286
85.0,418.63715702260737,207.46355250187733,0.6425234592289252,15.325820962624315,0.03009110433830932
86.0,409.32237621505345,217.79860077250427,0.6425247012007961,15.327467588259864,0.030078955622800982
87.0,396.06555509649405,229.0389750741376,0.6425262011620201,15.329459874812345,0.030066966755597873
88.0,379.26973930809504,241.0186680197271,0.6425279545669376,15.33179366403687,0.03005513422889352
89.0,359.4397949618607,253.5377818795299,0.6425299580965514,15.334464886743472,0.030043454647732077
90.0,337.15302141938173,266.3648999626949,0.6425322066443918,15.337469076056843,0.030031925563785443
91.0,313.02779469953083,279.2414510765052,0.6425346964000578,15.3408017184822,0.03002054427046574
92.0,287.69567593578654,291.88756697745885,0.6425374233847758,15.344458142247111,0.03000931012310774
93.0,261.77739252867053,304.0109702050163,0.642540378861847,15.348430056802991,0.02999821879667024
94.0,235.86448337743218,315.31555089093524,0.6425435591022942,15.352714011070894,0.029987270467473997
95.0,210.50294812923715,325.51426633638886,0.6425469560630003,15.357301297987066,0.02997646344952249
96.0,186.18181549994162,334.3419514622357,0.6425505639750138,15.36218789279737,0.0299657962570312
97.0,163.3206928261589,341.5699576059764,0.6425543779565244,15.367365120817388,0.029955267952210044
98.0,142.26275680409697,347.0195522819602,0.6425583920450039,15.372830324676546,0.029944877928919932
99.0,123.26585013055559,350.57497404321384,0.6425625976999397,15.378576008576395,0.02993462527949172
100.0,106.49936688892019,352.19127222338415,0.6425669895417024,15.3845956870029,0.02992450846661713
101.0,92.04636243975601,351.8970231800685,0.642571562433253,15.390884899160536,0.02991452671614776
102.0,79.9106358391207,349.79068075493166,0.6425763104645514,15.397438220920083,0.029904677832746057
103.0,70.03014236185113,346.03009408054436,0.6425812289602314,15.404251172383715,0.02989496028141366
104.0,62.29463965993139,340.8175141555868,0.6425863116414295,15.411317684599661,0.02988537057146136
105.0,56.56558553307705,334.3815403057174,0.6425915549151725,15.418635481393002,0.029875907199922423
106.0,52.69492353113028,326.9598900028035,0.6425969545307711,15.426201237916915,0.029866567274450768
107.0,50.541184917558994,318.7842303679165,0.6426025073863293,15.434011804073847,0.029857346060827645
108.0,49.98171121738027,310.0685779243059,0.642608211691702,15.442066192135448,0.029848240641400747
109.0,50.91946806626796,301.0026110620836,0.6426140661291393,15.45036350821252,0.029839246387088163
110.0,53.28564438767506,291.7485010648537,0.6426200702374366,15.458904391528616,0.029830358859115707
111.0,57.038387767581575,282.4412358103636,0.6426262252395747,15.467689925380958,0.029821571970330023
112.0,62.159260780960864,273.190943799598,0.6426325326639047,15.476721650426251,0.029812879615472222
113.0,68.6477930769728,264.08600960171214,0.642638995241422,15.486004862659817,0.02980427591482122
114.0,76.51486432946591,255.19798282671007,0.6426456187685896,15.495542110940237,0.029795751948905658
115.0,85.77654850466313,246.58426702406058,0.6426524084612293,15.50534355246362,0.029787302529757764
116.0,96.44643071657379,238.2931126434478,0.6426593720603664,15.515412950250969,0.029778916166687833
117.0,108.5300235741025,230.36575998874258,0.6426665167710313,15.52576151933739,0.029770586329223983
118.0,122.01674440417999,222.8399892094601,0.642673853938096,15.53639834197956,0.02976230046772626
119.0,136.87458894914423,215.75185042979078,0.6426813961424782,15.547336922939575,0.029754048442788682
120.0,153.04343543180428,209.13759019522104,0.6426891586263948,15.558591954876949,0.029745817662432453
121.0,170.43047543061837,203.0347688017698,0.6426971559642894,15.57017968378801,0.02973759540592269
122.0,188.90530160647813,197.48325129523153,0.6427054043826513,15.582117836555433,0.029729368100281987
123.0,208.29573739980822,192.52569440211454,0.6427139264140922,15.594429086329189,0.02972112255754387
124.0,228.38725253417653,188.20694667196426,0.642722741038722,15.607137901410411,0.029712845040153826
125.0,248.92094162372322,184.57421557661388,0.6427318742993043,15.620273435700485,0.02970452178930388
126.0,269.59704710551955,181.67600336577138,0.6427413508824975,15.633867072547211,0.02969614035778152
127.0,290.0766986063689,179.56125691563875,0.6427512009709835,15.64795376136299,0.029687683684683278
128.0,309.9904368048163,178.27776027338734,0.642761453457481,15.662572634450624,0.029679141290879764
129.0,328.9448571127511,177.87062531914614,0.6427721421160689,15.677768996676733,0.029670503132860473
130.0,346.53564824972915,178.38048806337977,0.6427832981252856,15.693588269064945,0.029661761880338273
131.0,362.3581089669935,179.84145638129692,0.6427949558711485,15.710083224600714,0.0296529135772952
132.0,376.0234921387422,182.27847777839804,0.642807149557017,15.727309101688476,0.02964396033583291
133.0,387.17562834870824,185.70507979864337,0.6428199091515097,15.745321667895778,0.0296349110032193
134.0,395.5063508440901,190.1203033852271,0.6428332694445057,15.764185743061883,0.029625779536611725
135.0,400.7759303638246,195.50616628789396,0.6428472509835088,15.783958537711216,0.029616590345310494
136.0,402.8236055795252,201.82521104122046,0.6428618741025253,15.80469921962535,0.02960737081911829
137.0,401.58224389297936,209.0180113114531,0.6428771394590271,15.826454769539481,0.029598158485644437
138.0,397.082386520851,217.00290087653894,0.6428930301294035,15.849258497711544,0.0295889897307845
139.0,389.4507962011672,225.67707929258452,0.6429095086878612,15.873124172328474,0.029579895990816004
140.0,378.9020765189157,234.91905030622155,0.6429265085245663,15.898030668751458,0.029570902863919654
141.0,365.7253289958327,244.59267485839578,0.6429439352960634,15.923915980140071,0.029562024768773953
142.0,350.2656719586915,254.55171638491612,0.6429616806908137,15.950670453263905,0.02955326119911204
143.0,332.90420222046276,264.64451167436914,0.6429796428630212,15.978129232248037,0.0295445920030212
144.0,314.043015232983,274.7134075893292,0.6429977472715694,16.006080929337557,0.029535992189054068
145.0,294.09148252196394,284.5972634374857,0.643015936495689,16.03427999272877,0.029527423717829595
146.0,273.4552753687171,294.1303188026986,0.6430341552581047,16.06246873401013,0.02951884837016773
147.0,252.5311797766452,303.1411404924307,0.6430523173753705,16.090405974487624,0.029510238052076605
148.0,231.70103969149008,311.4553886260421,0.6430703005922942,16.117885023265885,0.029501575256992756
149.0,211.32581731567325,318.8989149967162,0.6430879693126259,16.144747269746716,0.02949285924357613
150.0,191.7399172613115,325.3048537935881,0.6431051958768409,16.170886460269315,0.0294841096158565
151.0,173.24022363634143,330.5256855861131,0.6431218824013746,16.19624165465773,0.0294753579929453
152.0,156.07729284264292,334.44451856028854,0.6431379656470073,16.220794652191348,0.029466645397246572
153.0,140.44836699775172,336.9846550552816,0.643153409220418,16.244559903273068,0.029458016408599453
154.0,126.49291996387052,338.1161644932796,0.6431682060839872,16.267572541077403,0.029449510050100068
155.0,114.29688609811178,337.8549889636329,0.6431823603072137,16.28988396562522,0.029441158181739698
156.0,103.89616768090359,336.26019469507247,0.6431958977548887,16.311556005220663,0.029432980718141773
157.0,95.28551197347741,333.4276342532617,0.6432088505271514,16.33265573710121,0.029424985494962877
158.0,88.42781191189916,329.48180474965744,0.6432212601419189,16.35325376522597,0.029417171204741077
159.0,83.26422530304971,324.5667725780257,0.6432331722346125,16.373419545261772,0.02940952669471857
160.0,79.7242855949242,318.83643245853744,0.6432446394095079,16.393222486198876,0.02940203465326035
161.0,77.73536912354264,312.4462920652641,0.6432557153584026,16.41272998429884,0.029394672042293006
162.0,77.22923953917977,305.5462656699838,0.643266458435146,16.432009160432226,0.0293874118790804
163.0,78.14733015890576,298.27551806155924,0.6432769258410855,16.451125369545995,0.029380227976094877
164.0,80.44276617366835,290.7596378966286,0.6432871791558386,16.470145319207905,0.02937309102899905
165.0,84.0807398764182,283.1097123150692,0.6432972811026187,16.48913289831081,0.029365971215739035
166.0,89.03763239086321,275.4217816631692,0.6433072933186348,16.508154526313522,0.029358838889629563
167.0,95.2976127314517,267.7787945592312,0.6433172841286875,16.52727608190359,0.029351664936881645
168.0,102.85070942154705,260.25112889002645,0.643327316109841,16.546568183655545,0.02934442089169314
169.0,111.68702693651998,252.89973907929823,0.6433374597363737,16.56610043899472,0.029337078628374907
170.0,121.79403991954786,245.77738874804714,0.643347783348073,16.585948845524857,0.02932961098208611
171.0,133.15204183280517,238.93064072945978,0.6433583538769037,16.606191608324306,0.029321993031107232
172.0,145.72978899437453,232.40155625926872,0.6433692396986567,16.62691454254063,0.029314205239586333
173.0,159.48023863033447,226.22965565220798,0.6433805132577315,16.648207031407424,0.029306231208388905
174.0,174.33747605659283,220.45232575437439,0.6433922398748471,16.670164488507684,0.02929806342817371
175.0,190.21308206338796,215.10637579428487,0.6434044888770902,16.69288994738153,0.029289703133749387
176.0,206.99492051628323,210.22746651337366,0.6434173125452162,16.716488198373003,0.02928116573553339
177.0,224.5447987255429,205.85072352038938,0.6434307652419141,16.741068372699367,0.029272480377766003
178.0,242.69888033954334,202.0091486959008,0.6434448821511402,16.766733410437105,0.029263691122760532
179.0,261.2703188888746,198.7315798981773,0.6434596714353935,16.793577307458463,0.02925485521555046
180.0,280.0506785869399,196.04035988039382,0.6434751037593042,16.821669037605986,0.029246032433526685
181.0,298.8153046930874,193.9491915951471,0.6434910865212464,16.85103972759505,0.029237280522714237
182.0,317.3242469958487,192.46361764123367,0.6435074487602023,16.88165958567278,0.029228643129614925
183.0,335.3199865462344,191.5871299896907,0.643523941325698,16.913420117651437,0.029220139443290914
184.0,352.5227715205834,191.33186287361812,0.6435402888925453,16.946118130489094,0.029211760336710933
185.0,368.6244117293663,191.73071372786583,0.6435563114554219,16.979442097601936,0.029203471440013746
186.0,383.2954881002684,192.838457677308,0.6435720004371078,17.012990276029374,0.029195221221594018
187.0,396.20238494559044,194.72184922618973,0.6435874776690292,17.046316664576217,0.029186953357595597
188.0,407.0346182604545,197.44299854350652,0.6436028230001475,17.079004204597226,0.02917861639415639
189.0,415.52574621261084,201.04402912512015,0.6436179616915403,17.110723167201424,0.029170173256217066
190.0,421.47149329315636,205.53880908147812,0.6436326869106291,17.1412519995527,0.02916160971116833
191.0,424.73423229103224,210.91322749338144,0.6436467782418347,17.1704737651328,0.029152934316332917
192.0,425.2434957139274,217.12964295505225,0.6436600682271905,17.198352800495147,0.029144175074657986
193.0,422.9961707931593,224.13005663449908,0.643672463448078,17.22491957616594,0.029135372217338154
194.0,418.05179003790556,231.8401100857235,0.643683930227285,17.25023784078357,0.029126569569949776
195.0,410.53116243696553,240.1704611241151,0.6436944788116065,17.274401213086158,0.029117806082036835
196.0,400.6074373916509,249.01993203222267,0.6437041499665557,17.297511089048502,0.029109112318066885
197.0,388.50181984754437,258.27548347410504,0.6437129936906307,17.319673539895305,0.029100507928585595
198.0,374.4746097503008,267.81256678315026,0.6437210752000181,17.34099139782359,0.029092001992359333
