Time,J,A,S,tau
0.0,100.0,10.0,0.6615161984700588,196.02904328414544
1.0,99.98929864099652,8.97391292638741,0.6614486869474442,197.02889100241373
2.0,99.97962655882704,8.053561545668826,0.6613853415460577,198.02886140841036
3.0,99.97003887906288,7.227751296926218,0.6613225356221668,199.02883268469162
4.0,99.96052539378003,6.486738304044249,0.6612602042596829,200.02880471028521
5.0,99.95107610565476,5.821791754342772,0.6611982837637111,201.0287773721466
6.0,99.9416811989984,5.225083052052395,0.6611367114965725,202.02875056388075
7.0,99.9323310110057,4.689590018332457,0.661075425713373,203.02872418454965
8.0,99.92301600458029,4.20901940314532,0.6610143654054129,204.02869813759904
9.0,99.91372674146605,3.7777262850202957,0.6609534701443209,205.02867232984494
10.0,99.90445385563503,3.3906464969757963,0.6608926799268553,206.02864667050702
11.0,99.89518802744071,3.043240741170678,0.6608319350236184,207.02862107029472
12.0,99.8859199577139,2.7314360740252175,0.6607711758270765,208.02859544050744
13.0,99.87664034207877,2.4515781517969066,0.6607103427007264,209.02856969214824
14.0,99.86733984523556,2.2003908119411157,0.6606493758281465,210.02854373503197
15.0,99.85800907498493,1.9749336666735025,0.6605882150608201,211.02851747687052
16.0,99.84863855631652,1.772568287729756,0.6605267997668355,212.02849082233612
17.0,99.83921870465613,1.590928892683146,0.660465068675411,213.02846367205944
18.0,99.82973979877853,1.427891672935906,0.6604029597204581,214.0284359215684
19.0,99.82019195346811,1.2815507985004546,0.6603404098839166,215.02840746015963
20.0,99.81056509049758,1.1501971002827438,0.6602773550308734,216.0283781696332
21.0,99.8008489092832,1.032295934157739,0.6602137297447174,217.02834792292512
22.0,99.79103285676396,0.9264701163625791,0.6601494671600161,218.02831658260615
23.0,99.78110609469483,0.8314843796383862,0.6600844987832493,219.02828399914767
24.0,99.77105746667212,0.7462294370768727,0.6600187543152042,220.0282500090269
25.0,99.760875463582,0.669709818457642,0.6599521614680065,221.02821443259413
26.0,99.75054818545996,0.6010325077348337,0.6598846457663162,222.02817707156984
27.0,99.74006330311592,0.5393955021327996,0.6598161303523208,223.02813770629075
28.0,99.72940801700973,0.48407912167493045,0.6597465357811442,224.02809609255246
29.0,99.71856901137747,0.43443768374204733,0.6596757797971656,225.02805195787437
30.0,99.70753240803394,0.3898913157224709,0.6596037771166003,226.0280049973703
31.0,99.69628371573192,0.3499197320884265,0.6595304391950789,227.02795486894394
32.0,99.68480777336903,0.31405612189564086,0.6594556739736189,228.0279011875894
33.0,99.67308869248697,0.2818813122325116,0.6593793856333918,229.02784351905837
34.0,99.66110979288136,0.2530193038635419,0.6593014743288589,230.02778137240435
35.0,99.648853530274,0.2271327770632778,0.6592218358979862,231.02771419113813
36.0,99.63630142230417,0.20391895200713792,0.659140361583454,232.027641343344
37.0,99.62343396407407,0.18310638006617685,0.6590569377245645,233.02756210992735
38.0,99.61023053332622,0.1644516450659461,0.6589714454266249,234.02747567069903
39.0,99.59666929190765,0.1477364429518723,0.6588837602428308,235.02738108871586
40.0,99.5827270715369,0.13276527590851378,0.6587937518185141,236.02727729151127
41.0,99.56837924561431,0.11936304872024386,0.6587012835153957,237.0271630489243
42.0,99.5535995935239,0.10737302064756583,0.6586062120491777,238.02703694796259
43.0,99.53836014122953,0.09665516180963026,0.6585083870808447,239.02689736246754
44.0,99.52263098234981,0.08708442458286288,0.6584076507934633,240.02674241738274
45.0,99.50638008490264,0.07854932910481126,0.6583038374825257,241.0265699479164
46.0,99.48957306181511,0.07095081775589948,0.6581967730918866,242.026377449981
47.0,99.47217291295344,0.064201046521255,0.6580862747447541,243.02616202198317
48.0,99.45413974077718,0.058222446915943034,0.6579721502881665,244.0259202977462
49.0,99.43543041057328,0.05294696052625246,0.6578541977794022,245.02564836488642
50.0,99.41599816344849,0.048315283501542884,0.6577322049718816,246.02534166846
51.0,99.39579219136515,0.044276313715924304,0.6576059488400118,247.02499490089963
52.0,99.37475710326478,0.04078666128947822,0.6574751949946834,248.02460186310964
53.0,99.35283236611234,0.037810339737748104,0.6573396972281451,249.02415531155089
54.0,99.32995158555143,0.03531849431930363,0.6571991969137732,250.02364676206244
55.0,99.30604173176732,0.03328936572333208,0.6570534225401288,251.02306627011032
56.0,99.28102221289697,0.03170822166728398,0.6569020892111284,252.02240216488565
57.0,99.25480380096145,0.03056737944477552,0.6567448981823781,253.021640735418
58.0,99.22728715896281,0.029867615465758845,0.6565815361667876,254.0207658029382
59.0,99.19836169219771,0.029616754038384322,0.656411675427314,255.01975835643285
60.0,99.16790349787838,0.029831753303167615,0.6562349730748808,256.0185959441217
61.0,99.1357733528773,0.030539060620884167,0.6560510709563223,257.0172520478769
62.0,99.10181428171612,0.03177602555415136,0.6558595955636268,258.0156953247406
63.0,99.06584856455683,0.03359212921843342,0.6556601580154052,259.0138886685953
64.0,99.02767433003258,0.036050888640563085,0.6554523543181853,260.01178812733394
65.0,98.987061376867,0.03923212978870513,0.655235765782913,261.00934156935483
66.0,98.94374635187691,0.04323446735063634,0.6550099598004251,262.0064871289792
67.0,98.89742690777825,0.04817870918260571,0.6547744909207404,263.0031513148155
68.0,98.84775481298536,0.054211735078605994,0.6545289023917878,263.99924676373297
69.0,98.79432774306458,0.0615112182123684,0.6542727282234881,264.9946695513043
70.0,98.73667950534566,0.0702913124815271,0.6540054958963458,265.98929597338207
71.0,98.67426844773716,0.08080942094041689,0.6537267298492723,266.9829787121493
72.0,98.60646365273065,0.09337426034990165,0.6534359559010439,267.9755422512338
73.0,98.53252850552394,0.10835558680968661,0.6531327067971375,268.96677739821314
74.0,98.45160118402093,0.12619573872431045,0.6528165291031393,269.9564347574072
75.0,98.36267158212964,0.14742326798793648,0.652486991683068,270.9442169826222
76.0,98.26455395725307,0.17266909635413433,0.6521436960600552,271.92976956570476
77.0,98.15585455255923,0.20268556796486412,0.6517862890050291,272.91266989985706
78.0,98.03493338796169,0.2383690283865746,0.6514144777347425,273.8924143351828
79.0,97.89985948696965,0.28078606278723456,0.6510280480872884,274.8684029653853
80.0,97.74835838393786,0.3312040974296216,0.6506268861684191,275.83992174192986
81.0,97.57775082612059,0.3911267906809448,0.6502110039734882,276.8061215299283
82.0,97.38488155614998,0.46233508927859324,0.6497805695050884,277.76599370674734
83.0,97.16603752468752,0.5469336546202079,0.6493359417352159,278.71834205652135
84.0,96.91685426760002,0.6474032353076749,0.6488777109492841,279.66175050462084
85.0,96.63220972251634,0.7666588026662303,0.6484067448179142,280.59454641283475
86.0,96.30610507491741,0.9081138213013515,0.6479242403917929,281.5147592606706
87.0,95.93153382470877,1.0757484377740825,0.647431781546067,282.4200750812051
88.0,95.50033976848341,1.2741803123477546,0.6469314015098349,283.3077868548025
89.0,95.21431170499682,1.587784452448282,0.6464256494943902,284.1747415594013
90.0,95.1314839309558,2.0262788828686715,0.6459176586175921,285.01728604978575
91.0,95.1293462070305,2.5410231018687184,0.6454112135679564,285.83121278254737
92.0,95.236182262649,3.1445288826183146,0.6449108121422621,286.6117099791661
93.0,95.48600326064049,3.8509032415389144,0.6444217167293099,287.353319073831
94.0,95.91841349840227,4.675889510008084,0.643949987373212,288.04990596454724
95.0,96.57764818976668,5.636852397580567,0.6435024899069589,288.6946509514766
96.0,97.51035918804827,6.752685327357249,0.6430868688848534,289.28006540822986
97.0,98.76165042771541,8.043625585430812,0.642711477826718,289.798040888848
98.0,100.36892222447743,9.530958837135005,0.6423852574276402,290.2399381411652
99.0,102.35326302910161,11.236607130207982,0.6421175581855101,290.59671871213453
100.0,104.708598990691,13.182599110232495,0.6419179055104045,290.8591208989751
101.0,107.38955249277902,15.390436053776707,0.6417957123232165,291.0178762037846
102.0,110.30001279839689,17.880379510731427,0.6417599501878782,291.0639578789898
103.0,113.28558860257215,20.670707941707338,0.6418187994100578,290.9888459182186
104.0,116.13343672390673,23.77698603399735,0.6419792974997467,290.7847929131622
105.0,118.5830449139706,27.211415688953423,0.6422470196528441,290.4450654396978
106.0,120.34932004937617,30.982317340044798,0.6426258102804011,289.9641451640287
107.0,121.15604995463896,35.09379197830217,0.6431175931520339,289.33786886035637
108.0,120.77368504677297,39.54558940317605,0.6437222720311409,288.56349783214495
109.0,119.05225531091173,44.33319310374507,0.6444377288058636,287.63971163899356
110.0,115.94090926079129,49.448079483443564,0.6452598997664448,286.56654003905976
111.0,111.48633350615157,54.8781838273867,0.6461829498214124,285.34522117569213
112.0,105.81299713581123,60.608437039844006,0.6471994849309308,283.97802945450053
113.0,99.09073963910664,66.62138262116818,0.6483007998415835,282.4680767724671
114.0,91.50007556546781,72.89780972962197,0.6494771445812014,280.8191016309475
115.0,83.20490158685865,79.41735339744902,0.6507179777924541,279.0352691992618
116.0,74.33724866683826,86.15903796198563,0.6520122011109949,277.12098792792546
117.0,64.99400958852937,93.10174315032266,0.6533483639109262,275.0807509314716
118.0,55.241833378983564,100.22458303731337,0.6547148332556149,272.91900627657014
119.0,45.12532597651011,107.50720055203305,0.6560999283729867,270.6400557193905
120.0,34.67516650818294,114.92997427161379,0.6574920220577716,268.24798161503986
121.0,23.914130351519347,122.47416598708682,0.6588796137091463,265.7465955373924
122.0,12.860980498479556,130.12199337326493,0.6602513760992403,263.1394106879614
123.0,1.5325560360550852,137.85666229614375,0.6615961837348935,260.4296282118248
124.0,0.0,145.66236129124155,0.6629031260905348,257.62013700357255
125.0,0.0,153.52422737480927,0.664161510175225,254.71352297763866
126.0,0.0,161.42829595041937,0.6653608567571357,251.7120841517415
127.0,0.0,169.36143037688214,0.666490890939994,248.617852255304
128.0,0.0,177.31125385133734,0.6675415333766035,245.4326140317536
129.0,0.0,185.2660727061957,0.6685028901817249,242.1579357719383
130.0,0.0,193.2148007238929,0.6693652448274308,238.79518752251462
131.0,0.0,201.14688797932476,0.6701190527982577,235.34556644559922
132.0,0.0,209.0522499968339,0.670754939304737,231.81011950068003
133.0,0.0,216.92121197422716,0.6712637021715476,228.18976342771975
134.0,0.0,224.74444205036795,0.6716363159161115,224.4853058461964
135.0,0.0,232.5129058650084,0.6718639434288047,220.69746226894225
136.0,0.0,240.2178152411454,0.6719379452070111,216.8268739516277
137.0,0.0,247.85059499784055,0.6718498986860107,212.8741214187867
138.0,0.0,255.40284725374684,0.6715916221542552,208.83973803334928
139.0,0.0,262.86632161539774,0.6711551999944845,204.72422281603593
140.0,0.0,270.23288756487443,0.6705329978226069,200.5280517613709
141.0,0.0,277.4945281092688,0.6697177009669033,196.25168645612004
142.0,0.0,284.64331859216617,0.6687023565763173,191.8955836291426
143.0,0.0,291.6714148014813,0.6674803904238293,187.46020296369414
144.0,0.0,298.57105164869387,0.6660456369138599,182.946013192674
145.0,0.0,305.3345552502877,0.6643924090008786,178.3534999435688
146.0,0.0,311.95432274910064,0.6625155087576258,173.6831702328691
147.0,0.0,318.422841261647,0.6604102424593851,168.93555599713665
148.0,0.0,324.7327065859691,0.6580725194920608,164.1112220747929
149.0,0.0,330.87661656493395,0.6554988403713463,159.2107671538128
150.0,0.0,336.8473925454053,0.6526863082206654,154.2348258992169
151.0,0.0,339.9280533709139,0.6671001694074191,57.51733423908558
152.0,0.0,352.05769354859956,0.6661786555102258,49.08740739547753
153.0,0.0,357.3355996672885,0.6610324077138622,45.73925935339351
154.0,0.0,352.4449045831746,0.6547151675508941,43.565212658294705
155.0,0.0,342.1474092805226,0.6478453633293654,41.92589510376854
156.0,0.0,330.1048796881521,0.6406726061468861,40.59258655337981
157.0,0.0,317.8615128333335,0.6333276364513992,39.45760220312111
158.0,0.0,305.8693415979322,0.6258899217972322,38.46205036178622
159.0,0.0,294.2245545900938,0.6184128013095124,37.57044720693003
160.0,0.0,282.9389908501336,0.6109346233704567,36.759953969110704
161.0,0.0,272.0091636296698,0.6034844879795405,36.01507424891782
162.0,0.0,261.4291977848245,0.5960853663208916,35.324863218953595
163.0,0.0,251.19278463785724,0.5887559639529698,34.68132900398109
164.0,0.0,241.2934305467535,0.5815118924270303,34.07846328155648
165.0,0.0,231.724492698115,0.5743664329805817,33.51163097665165
166.0,0.0,222.47918473179485,0.5673310608742405,32.97716804439529
167.0,0.0,213.55062166566117,0.5604158293883952,32.472116154651395
168.0,0.0,204.9318583842575,0.5536295739845295,31.994063135130357
169.0,0.0,196.6157740175881,0.54698012202246,31.54098141099906
170.0,0.0,188.59527076083333,0.5404745235216024,31.111142760057927
171.0,0.0,180.8632002490586,0.5341189878549376,30.70308590410254
172.0,0.0,173.41224330918595,0.527919143874768,30.315508342638637
173.0,0.0,166.23533174965797,0.5218799948343721,29.947293364128694
174.0,0.0,159.3250540976741,0.5160060187362401,29.59742500884552
175.0,0.0,152.6743515601541,0.5103012216594458,29.265010845973777
176.0,0.0,146.2758261675545,0.5047691215926792,28.94923542142168
177.0,0.0,140.12246366383732,0.4994128819915553,28.649364513918563
178.0,0.0,134.2069596237819,0.4942352084102355,28.364727062879155
179.0,0.0,128.522360983066,0.4892385308856134,28.094706531876483
180.0,0.0,123.0615278564882,0.48442485892660087,27.838739999179367
181.0,0.0,117.81758469702719,0.4797959771664425,27.59630222629789
182.0,0.0,112.78361685837305,0.47535329557442896,27.366913977508226
183.0,0.0,107.952843334487,0.4710980285335127,27.150123365524507
184.0,0.0,103.31861706998167,0.4670310684374138,26.94551765458072
185.0,0.0,98.87429073442517,0.46315312799101116,26.752705621202296
186.0,0.0,94.61349263166083,0.459464651074105,26.571328559672953
187.0,0.0,90.52976283919453,0.4559659126072138,26.401046385519983
188.0,0.0,86.61699777637965,0.45265696723995197,26.241545326803642
189.0,0.0,82.86897406469774,0.44953771048240865,26.092528923991434
190.0,0.0,79.27984877774104,0.44660785979817585,25.953721567373613
191.0,0.0,75.84367466807396,0.44386698361238897,25.824864333447245
192.0,0.0,72.55486245996364,0.44131450793705473,25.705714597708173
193.0,0.0,69.4077710985034,0.43894972009161287,25.596045944680757
194.0,0.0,66.39705886882552,0.4367717946134139,25.495644684947887
195.0,0.0,63.517411768537784,0.4347797771347478,25.404312693591386
196.0,0.0,60.76373072624293,0.43297262525188407,25.32186198342022
197.0,0.0,58.13104018661174,0.43134917580682913,25.248119138917115
198.0,0.0,55.61450696204647,0.42990819442763684,25.182919431862086
199.0,0.0,53.20945657006966,0.42864834412727687,25.126110525197138
200.0,0.0,50.91130905583414,0.427568219666262,25.077549242828667
201.0,0.0,48.715697044176984,0.42666633069403603,25.03710183497848
202.0,0.0,46.618358299739405,0.42594111446009786,25.004644174137685
203.0,0.0,44.61515815288979,0.42539094724515975,24.9800597624172
204.0,0.0,42.702155534499376,0.4250141253277982,24.963240808835415
205.0,0.0,40.87548632821313,0.4248088915860588,24.954087082302628
206.0,0.0,39.1314570753445,0.4247734224748527,24.952505180452693
207.0,0.0,37.466509546066284,0.4249058273557982,24.95840936273795
208.0,0.0,35.877180382701646,0.4252041656033312,24.971719897024716
209.0,0.0,34.36018387246022,0.4256664238007684,24.99236349472783
210.0,0.0,32.91232240200215,0.426290533744224,25.02027314187132
211.0,0.0,31.530524065323657,0.4270743688073931,25.055386975006456
212.0,0.0,30.211866753453748,0.4280157284366878,25.097649125347175
213.0,0.0,28.95350733835307,0.42911236030236183,25.147008589636222
214.0,0.0,27.75272608152871,0.43036194478203005,25.203419367783688
215.0,0.0,26.606923260201732,0.43176209289616346,25.26684025352353
216.0,0.0,25.513598753554817,0.43331034956918624,25.337234602095176
217.0,0.0,24.470355331176457,0.4350041918580682,25.41456996658883
218.0,0.0,23.474895860843972,0.43684102544564835,25.49881810047485
219.0,0.0,22.52502245442481,0.43881818312675264,25.58995468551752
220.0,0.0,21.618632488905334,0.44093292310776816,25.687959191461353
221.0,0.0,20.753713971105242,0.44318242805338154,25.79281471079877
222.0,0.0,19.928344767794083,0.44556380304712834,25.904507804764418
223.0,0.0,19.14068819775909,0.4480740754177103,26.023028333399196
224.0,0.0,18.388992893451917,0.4507101921775731,26.14836937789471
225.0,0.0,17.671591525060705,0.4534690194529102,26.280527086475107
226.0,0.0,16.986899518801376,0.45634734168646857,26.419500572150753
227.0,0.0,16.33341487426561,0.459341861026819,26.565291814262707
228.0,0.0,15.709718707956526,0.46244919694147085,26.717905572238276
229.0,0.0,15.1144765785025,0.465665886058825,26.87734931256469
230.0,0.0,14.546440614914026,0.4689883822382851,27.043633150209054
231.0,0.0,14.004452432227879,0.47241305686171775,27.216769805960812
232.0,0.0,13.487446776327332,0.47593619933286463,27.396774581452544
233.0,0.0,12.99445578139846,0.4795540177642426,27.583665353930748
234.0,0.0,12.52461369383622,0.4832626398235112,27.777462593205886
235.0,0.0,12.077161631293576,0.4870581137617724,27.978189401452124
236.0,0.0,11.651453480543195,0.4909364091012349,28.18587159737943
237.0,0.0,11.246959993793578,0.49489341847291024,28.400537790979083
238.0,0.18041445104917897,10.863271781367544,0.49892495808313503,28.62221954211065
239.0,4.616521047143448,10.500103447672544,0.5030267685220924,28.85095154264316
240.0,9.231868909518216,10.157296197706676,0.5071945158085993,29.0867718348169
241.0,14.017171997748985,9.834818493417039,0.5114237916724472,29.329722102274733
242.0,18.961169412862105,9.532764046984907,0.5157101137328307,29.57984800109857
243.0,24.05084923832763,9.25134994636771,0.5200489247260636,29.837199597109848
244.0,29.2717404151956,8.990910126723001,0.5244355917898669,30.10183182256262
245.0,34.608244715679184,8.751889423811892,0.5288654039389172,30.37380510706376
246.0,40.044023889606784,8.534833346249295,0.5333335694979272,30.653186040315173
247.0,45.562408185179905,8.34037660077447,0.5378352119713056,30.940048189392552
248.0,51.14680948548012,8.169228577226072,0.5423653646096207,31.234473022653862
249.0,56.78113621838054,8.022158320487412,0.5469189633539319,31.536551038205083
250.0,62.45016370160765,7.899975195721202,0.5514908380203385,31.846382996185422
251.0,68.13987111242956,7.803510767851247,0.5560757019202691,32.16408140381665
252.0,73.83768823073792,7.73359489411322,0.5606681387549662,32.4897721077387
253.0,79.53269272273903,7.691035780887926,0.5652625877972532,32.82359625109669
254.0,85.21571478071432,7.676593583352806,0.569853324618358,33.16571251882162
255.0,90.87935729495473,7.690952966273395,0.5744344388210549,33.516299713263145
256.0,96.51788042304129,7.734701151748791,0.5789998203441736,33.875558355852576
257.0,102.12718483843506,7.808303260646567,0.5835431222267805,34.24371525760121
258.0,107.70463246151814,7.9120519119121715,0.5880577200895358,34.621027504827055
259.0,113.24869273063736,8.046086117297298,0.592536744934762,35.00777914135215
260.0,118.75912269643962,8.21027707507881,0.5969728998565439,35.40430247693669
261.0,124.23626850963554,8.404334142417724,0.6013586444587615,35.81095715335251
262.0,129.68134971683892,8.627619124617368,0.605685954473512,36.22815668035051
263.0,135.09606872881093,8.879220151426575,0.6099464141315135,36.6563593986018
264.0,140.4825581303512,9.157898299553784,0.6141311385044835,37.096078500691284
265.0,145.84331464879511,9.462042653310201,0.6182307599868203,37.54788364048852
266.0,151.1811084556722,9.789662966205421,0.6222354214506638,38.01240407072487
267.0,156.4989369186766,10.138367177647996,0.6261347834409171,38.49032985328635
268.0,161.79997238184862,10.505347936997067,0.6299180507128284,38.9824118175927
269.0,167.0875107176069,10.887372187683797,0.6335740270021212,39.48945897594323
