Time,J,A,S,tau,r
0.0,1.0,1.0,0.7531738539114642,9.433962264150944,0.0
1.0,2.14043860954384,1.4871088140785456,0.7535954729945803,8.881010755256117,0.005032086890855829
2.0,3.92922453473329,1.9550223264840025,0.754007066824915,8.301416527343266,0.005076122398996551
3.0,6.331478809218008,2.4037804656111135,0.7544030302908914,7.6951820081868645,0.00512011661605065
4.0,9.309571836207652,2.83346061831031,0.7547777726969807,7.062318904181655,0.0051640500061761645
5.0,12.823504404234003,3.244176313115308,0.755125701359091,6.402850478071317,0.005207900952728618
6.0,16.787912813119444,3.6818169468024142,0.7553316975935928,5.760659585192073,0.00531720003261876
7.0,21.059908349207543,5.005479598815421,0.7551098879762588,5.66829387053582,0.006205686524153578
8.0,26.845335053076962,6.9033792921816115,0.7549020975630828,5.591737485866902,0.006922576054967403
9.0,34.73621050486145,9.307849478492875,0.7547086478782418,5.523261684986889,0.007510841034795143
10.0,45.10070511821846,12.160502820479273,0.7545108428189509,5.458189854654261,0.008006763380354255
11.0,58.07683390100605,15.413025732916976,0.7542809149702367,5.393178391690055,0.008436692969910477
12.0,73.32767371041957,19.367574086254965,0.7539972900893649,5.325111245151653,0.008817251788845565
13.0,90.33475944386988,24.92932461803826,0.753652963452928,5.250477259110212,0.009156575748891598
14.0,108.93388313345172,32.554972296759445,0.7532540480994087,5.165562280767986,0.00945719154537926
15.0,128.3946738145195,42.4563802132618,0.7528154650329532,5.068954037817836,0.009723011456994217
16.0,147.08870543625906,54.70706612011565,0.752347034701075,4.96733987384471,0.009964990963037835
17.0,162.57640103369957,69.43832742892938,0.7518435836171906,4.874043531260375,0.010195997320355627
18.0,171.86696227397474,87.13146740667865,0.751315687798688,4.79561790729388,0.0104217723109821
19.0,172.62058034221835,107.84573306659489,0.7507810959776158,4.73048503779887,0.01063982373855865
20.0,164.2135870782154,130.66860646138906,0.7502533857285048,4.675014729027756,0.010845791137869612
21.0,148.14848198506556,153.79162030469635,0.749742839512556,4.626136463480244,0.011037758751981475
22.0,127.46772618645882,175.0605430450453,0.7492545466115549,4.581688722107851,0.011216171315855795
23.0,105.67650431299505,192.5190482622527,0.7487856763259182,4.540224515420041,0.01138250792256846
24.0,85.89769570033913,204.70942291766318,0.7483251425242745,4.500790130857458,0.011538433340268292
25.0,70.1767941156536,211.0621991181658,0.7478560774085232,4.462744600560728,0.011685424762998593
26.0,59.20547560930017,212.05972407828756,0.747360457931362,4.425626543382151,0.011824685455729643
27.0,52.639182547054546,208.91277981474082,0.746823520171531,4.389060104618613,0.011957144010623302
28.0,49.657739150609466,203.04139254584894,0.746236244118356,4.35270073674256,0.012083472210828576
29.0,49.365844882480985,195.72318055729602,0.7455956013535513,4.316214017716476,0.012204102989219963
30.0,50.97773011190451,187.94735056788974,0.7449032429987453,4.279285389859838,0.012319250321371709
31.0,53.84120583552425,180.42052083940513,0.7441635286110603,4.24165250572501,0.012428943911362232
32.0,57.40185976248229,173.6273783271681,0.7433819424787321,4.203154073588688,0.012533095761766748
33.0,61.17634518594052,167.88276309311212,0.7425641898246387,4.163793022236501,0.012631602592840132
34.0,64.75697713918605,163.35629667748447,0.7417154184123,4.123803446353786,0.012724458926285936
35.0,67.83963231908012,160.0774687582738,0.7408403515534643,4.083676508475519,0.012811824144040663
36.0,70.24813154047168,157.94515430181318,0.739943258944658,4.04411859249621,0.012894009664423459
37.0,71.93353875341606,156.75862827714926,0.7390277372142972,4.005931319475852,0.01297139597421047
38.0,72.94875309233407,156.26428967298526,0.7380972229441873,3.9698300928859513,0.013044342289223082
39.0,73.41399250871895,156.20354442473177,0.737155005836536,3.936310272077123,0.013113104141368952
40.0,73.48138661894326,156.34824833680844,0.7362042754816052,3.9056083022113217,0.01317784064380997
41.0,73.30619305148268,156.52226508346052,0.7352483094864443,3.8777319884029944,0.01323863169885557
42.0,73.0293527188419,156.60588520974613,0.7342903114083669,3.8525387687039894,0.013295521402036577
43.0,72.76641175305892,156.5314979191545,0.7333334401160448,3.8298074943374454,0.013348558676004658
44.0,72.60015842434468,156.27612779117302,0.7323806853308253,3.8092903486614818,0.01339781976328865
45.0,72.57796187355528,155.85194906311867,0.7314350861388064,3.7907401045149673,0.013443415092521529
46.0,72.71469952252868,155.2947810802018,0.7304995523666789,3.773929860872192,0.013485484218089022
47.0,72.99950150681109,154.6523580865724,0.729576846985153,3.758658474489663,0.013524192174026058
48.0,73.40380981526319,153.97480868857076,0.7286696448770726,3.7447504109632272,0.01355971573354151
49.0,73.89011228604008,153.30689667174082,0.7277804741273427,3.732054763124758,0.013592238194990959
50.0,74.419491658418,152.68336163936718,0.726911704683715,3.720443278972895,0.013621943602932604
51.0,74.95699764002764,152.12704817772251,0.7260655099182294,3.709806963952962,0.013649012247979217
52.0,75.4753917594031,151.64892311666821,0.7252438631175856,3.700055149005438,0.013673619396062483
53.0,75.95597946638904,151.25031152872637,0.7244487772903739,3.6911070202772724,0.01369593214677567
54.0,76.38883142330221,150.92508938557728,0.7236820681388484,3.682894822467157,0.013716110795874559
55.0,76.77149666177667,150.66268573331206,0.722945382123944,3.675361428652752,0.013734307542236455
56.0,77.10661587215398,150.45078786305757,0.7222404149273836,3.668456004898449,0.013750667647655002
57.0,77.40025797277218,150.27725753876126,0.7215685612094388,3.662136266068079,0.013765328986732746
58.0,77.65960026586363,150.1317379055429,0.7209312555819615,3.6563639026447308,0.013778422656079104
59.0,77.89169337718774,150.00615450437164,0.7203298317038781,3.6511066228847824,0.013790074080251676
60.0,78.10232793702684,149.89505401167543,0.7197656418917868,3.6463350940249932,0.013800402837042341
61.0,78.29572833060728,149.79529508045835,0.7192398330506838,3.642023952368222,0.013809522569778299
62.0,78.47436614496972,149.70557877097235,0.7187535477576782,3.6381502076229797,0.013817541651910318
63.0,78.63923054051499,149.62572207041484,0.7183078326356926,3.634694020271607,0.01382456434881706
64.0,78.79024013796861,149.55627508062318,0.717903651327604,3.63163836697786,0.013830689791614403
65.0,78.9266365205749,149.49800658990225,0.717541830178316,3.6289685999823176,0.013836012507848959
66.0,79.04714953517787,149.45162773729027,0.7172232714907604,3.6266707356795163,0.013840622922825327
67.0,79.15059566905988,149.41753372419805,0.716948683179121,3.6247332366597913,0.013844607500747896
68.0,79.23595534047998,149.3958033114161,0.7167186612457385,3.623146779037493,0.013848048371324808
69.0,79.30253843557625,149.38620899416802,0.7165337023035506,3.621903449257829,0.013851023746828929
70.0,79.34982510554728,149.38829203189397,0.7163943077246823,3.6209955584900926,0.013853608423770248
71.0,79.37769660580123,149.4014605388037,0.7163008064609506,3.6204186353447274,0.013855872920926837
72.0,79.38645826119082,149.42494036294605,0.7162532297504558,3.620171361059271,0.013857884234488891
73.0,79.37631433572763,149.45813216519159,0.7162517670942433,3.620250499802239,0.013859705840566885
74.0,79.34765837600686,149.50051390685147,0.7162964444037725,3.62065587803472,0.013861397267479664
75.0,79.30107198427439,149.55159177152535,0.7163870667823885,3.6213893463970503,0.013863014747419153
76.0,79.23723610139598,149.61100495576179,0.7165232719094242,3.6224552846000706,0.013864610755156402
77.0,79.15651952554485,149.67867457244054,0.7167048533862422,3.623856088877628,0.013866234324117203
78.0,79.05962041354941,149.75453698594612,0.7169312383555209,3.6255997339865016,0.013867930515817225
79.0,78.94707373188741,149.83872989511147,0.717201889051915,3.627693183940425,0.01386974093425847
80.0,78.81944515124623,149.93145764495105,0.7175161282399032,3.630146005368672,0.013871703779287963
81.0,78.67730880608667,150.0330461433389,0.7178732117806976,3.632969157460388,0.013873853524854388
82.0,78.52134192096304,150.1438867195794,0.7182722405390062,3.6361758452713766,0.013876221006872892
83.0,78.35203030832604,150.2646163032803,0.7187124578536541,3.6397795749650137,0.013878833042060399
84.0,78.17020240453078,150.395741252061,0.7191927687781211,3.6437980906837453,0.013881713422479383
85.0,77.97660291455634,150.5380543418293,0.7197121177126661,3.6482498767607243,0.013884881249190089
86.0,77.77204213548809,150.6923998623459,0.7202694220158011,3.653156553098853,0.013888352316372372
87.0,77.55745714902004,150.8597159878097,0.7208634423499035,3.658541900543141,0.013892138210949378
88.0,77.33376889791226,151.04104921141285,0.7214930157512041,3.664433100301505,0.013896246871700123
89.0,77.1018943667951,151.23766705008,0.722156943339038,3.67086024396465,0.013900681639355615
90.0,76.86311526854116,151.45074831381285,0.7228538009576377,3.677858900071782,0.013905442228643322
91.0,76.6187871972762,151.68166013366533,0.7235821124666698,3.6854698492510654,0.013910523574174896
92.0,76.3704330406673,151.93171981547133,0.7243403439952119,3.693739597413003,0.013915916832805256
93.0,76.1196238690842,152.202362761122,0.7251270271020858,3.7027203427102675,0.01392160881092664
94.0,75.86846776771237,152.4948563683685,0.7259404235322741,3.7124750377330633,0.013927582122604183
95.0,75.61947685182535,152.81028038643302,0.7267785918392908,3.7230776957108374,0.013933815529974419
96.0,75.37554954353737,153.1495690257421,0.7276396341524541,3.7346129100756515,0.013940284395711412
97.0,75.14032157593681,153.51319948331437,0.7285214066665087,3.7471809456691045,0.013946961250542624
98.0,74.91829181045254,153.90105128566213,0.7294216222168319,3.7608990047021327,0.013953817066106046
99.0,74.71503284245028,154.31218722091302,0.7303378383409291,3.775903601048623,0.013960822557554297
100.0,74.53758283140584,154.74448862199844,0.7312674734043686,3.7923530131686225,0.013967950288298137
101.0,74.39488072869324,155.19426735641804,0.7322077388140357,3.810428727467201,0.013975176407723208
102.0,74.29812895644136,155.65577226270872,0.7331558377182333,3.830331429115792,0.013982484231194884
103.0,74.26142495673825,156.12072688122825,0.7341086838357744,3.852280569157275,0.013989864531160225
104.0,74.30136194676626,156.57850521580724,0.7350632914232837,3.8764942229816315,0.01399731668028882
105.0,74.43615515614795,157.0170521881144,0.736016372356477,3.903169416613076,0.014004844254871385
106.0,74.68221961178135,157.4260765580444,0.7369648494145346,3.9324330652098713,0.014012448818032206
107.0,75.04940125043254,157.8019720017998,0.737905513363856,3.9642910063943995,0.014020118476902996
108.0,75.53484710742342,158.15348576359105,0.7388350786123479,3.998565364048699,0.01402781761322929
109.0,76.11950829223164,158.5054985055695,0.7397502973200322,4.034856162678114,0.014035482482234534
110.0,76.77068184871017,158.897573612882,0.7406476133791936,4.072566226101721,0.014043023516251025
111.0,77.44962956531077,159.37447774468248,0.7415231660427912,4.110997610385553,0.01405035194429629
112.0,78.12367027871785,159.97532313572518,0.7423728018170983,4.149489862150857,0.014057400442790713
113.0,78.77650388326772,160.72308933086737,0.7431916637473922,4.187545927426605,0.014064142403580358
114.0,79.40994090830974,161.62224240317065,0.7439742402698792,4.224884886799138,0.014070590142372042
115.0,80.03871242285854,162.66429897180794,0.744714327577952,4.2614381051198285,0.014076775216593111
116.0,80.68192619206012,163.83610314751942,0.7454052608937128,4.29730284742114,0.014082720353956324
117.0,81.35705068816121,165.12584711057795,0.7460408572691816,4.332685316852773,0.014088416633298368
118.0,82.07678870205186,166.52633758251892,0.7466168283214377,4.367851179068667,0.014093813446231842
119.0,82.84751597248327,168.03694370129477,0.7471328667874638,4.403085840595873,0.014098819120137395
120.0,83.66830531017028,169.6642511200318,0.7475948997539265,4.438673334965686,0.014103307855919487
121.0,84.5319039423955,171.4217546268846,0.7480161958879729,4.474889120059664,0.014107125483550914
122.0,85.42872129430836,173.3259272453362,0.7484163161135577,4.512029862079086,0.014110096348749504
123.0,86.35429105241003,175.38890324844874,0.7488173412677815,4.550471111547526,0.014112027716332683
124.0,87.3192764069841,177.60865384510547,0.7492384284024179,4.5907609073632285,0.014112720069844912
125.0,88.34654086578153,179.9728115443319,0.7496908849179557,4.633735751797484,0.014111986818455971
126.0,89.46882293208648,182.46190829099825,0.7501760724865081,4.680661234832194,0.014109706598308904
127.0,90.76506340647744,185.01301373729967,0.7506867108282201,4.733388013792283,0.014105923378714238
128.0,92.4183865970452,187.45876840569656,0.7512104594780433,4.794447275452321,0.014100972687936723
129.0,94.75934838015985,189.4764461257962,0.7517332526092658,4.866721016433124,0.014095461172171364
130.0,98.05697461432521,190.79238315015465,0.7522398548206166,4.9515865331745825,0.014089816242577845
131.0,101.99355797130775,191.71324210101528,0.752717920301165,5.044803467487265,0.014083661789090447
132.0,105.75368372855438,193.05253077162175,0.7531636777412394,5.1362106470995705,0.014075985818322916
133.0,108.78810143665814,195.37074744537952,0.7535680871932297,5.21853479291762,0.014066115598601929
134.0,111.2481175297276,198.5292374065858,0.753916562626663,5.291270921863517,0.014054242130018773
135.0,113.42823035671447,202.236563080367,0.7541982749156301,5.357027357463755,0.014040894941111886
136.0,115.48495170625833,206.32947029100254,0.7544122408665027,5.4187394384984815,0.01402633922401635
137.0,117.48415573878958,210.73320890231003,0.7545738312792211,5.478945652501164,0.014010494503666237
138.0,119.44845763924562,215.41981733609674,0.7547136890198505,5.539960616263588,0.013993095760503178
139.0,121.41665270307985,220.3569775160701,0.7548644114636118,5.604430716966522,0.013973874426739821
140.0,123.54076695753949,225.4108316684212,0.7550437926561735,5.676178536819806,0.013952807110368148
141.0,126.28795706739771,230.12779494018386,0.7552484054174148,5.7613311159415,0.013930521788221885
142.0,130.65300941250777,233.4884307770436,0.7554549351899416,5.868902098412031,0.013908377871056421
143.0,136.94814580666682,235.12196825885636,0.7556134483688239,6.0035516733469825,0.013886825199785435
144.0,143.3402608509679,236.82125615290164,0.7557309255467748,6.141722097011814,0.013863881958928292
145.0,147.83895438042018,240.60178557912957,0.7558271490450544,6.257008294685721,0.013837485141761523
146.0,150.79094711239392,246.16714258886103,0.7558603032291755,6.3522603784075775,0.01380793557731475
147.0,153.30979709526684,252.4281796857577,0.7558190928279405,6.436998825430553,0.013776387103332873
148.0,155.6894951478304,259.0797056388053,0.75572346109459,6.518895724877924,0.013743251004567006
149.0,158.07749810290227,265.970709271339,0.7556111893463048,6.604932911445973,0.013708509569697958
150.0,160.90266634381584,272.68246434736056,0.7555075757535675,6.704615275315993,0.01367263977458817
151.0,165.82837761114547,277.50159689509394,0.755395336834143,6.834833686485643,0.013637454347346829
152.0,173.9434887399125,279.22046354168657,0.7551365830696268,7.015863649224007,0.013603944375924515
153.0,181.75812504442482,281.2572028488603,0.7548234325862151,7.1962070440344,0.013568754785095909
154.0,186.07726324461277,286.871672606566,0.7545262960809807,7.331115148335957,0.01352898229243013
155.0,188.5447058594275,294.5228976739257,0.7541402376870706,7.442199386736899,0.01348596556051455
156.0,190.794759429088,302.6276766162675,0.7536783847994317,7.548273169886203,0.013441224936898113
157.0,193.46829842351644,310.54085769848075,0.7531848464432702,7.666149413400079,0.013395623489648324
158.0,198.82379311613425,315.91392592238395,0.7526500502839709,7.824488773182393,0.013351505347385557
159.0,208.20521248130242,317.2357830152279,0.7517246385703261,8.069716872344145,0.013310035672030433
160.0,215.91803080046824,320.14288906334826,0.7508936061558895,8.277925155825942,0.013265645085385424
161.0,219.02299241841988,327.7138938482487,0.7500788150620005,8.424853700829166,0.01321604651967026
162.0,221.17090996116593,336.4589544871367,0.7491654831823465,8.557852033466784,0.013164166138528858
163.0,224.49035696922107,344.2561089003936,0.7482022876899669,8.712380363473414,0.013112514325544136
164.0,233.63529649032066,346.24784696670804,0.7468905464472231,8.96556866787626,0.0130647858836373
165.0,243.45404122423398,347.42480284744425,0.7452308279897691,9.260273059261158,0.013016902485399579
166.0,246.9762664922971,354.8862450577256,0.7439438958878097,9.440159809010733,0.012962889558493805
167.0,249.1685896050743,363.8852156343504,0.7425714226796465,9.602635285649948,0.012906567659591077
168.0,255.42137822328954,368.9544640036641,0.7410927179062095,9.822177049575915,0.012852952807199482
169.0,266.9717893180308,368.6002300571283,0.7385231189286642,10.210690106288824,0.012803070870543897
170.0,272.27987955686086,374.3880685069027,0.7368190966701632,10.433235953286003,0.01274722177307468
171.0,274.3242285706059,376.26268972373845,0.7350796514434293,10.623148970549314,0.012687158876749472
172.0,282.74033675596485,360.1430789529649,0.7329172678468432,10.925663596500833,0.012629539119063548
173.0,292.77824966372543,336.2326171361463,0.7299275297382858,11.329580699765444,0.012571595987820847
174.0,294.39030826759904,317.45597756413173,0.7279264823844731,11.5461648837705,0.012505944084158947
175.0,299.76988442722933,293.1192322052098,0.7258013182748027,11.812470751685941,0.012441948489800276
176.0,310.48631443606905,262.8698263355985,0.7220287859280463,12.30525870290351,0.012381361094273262
177.0,311.24833016298453,242.32566779198646,0.7198179327597115,12.547335213031058,0.012313348470900067
178.0,315.3608831247327,218.24920487744075,0.7173339553525317,12.86132403818921,0.012247658167732052
179.0,321.6817512047033,192.40095724839318,0.7132723134863861,13.370986268227108,0.01218393821236809
180.0,317.94012897457225,176.66840897096804,0.7109248889865107,13.626448711397838,0.01211398675116089
181.0,321.3573964098937,153.93180229266585,0.7064935693221096,14.181229491490626,0.012049419656264267
182.0,318.0840547230141,138.39930877763317,0.703855341148402,14.503599611037421,0.011980917391693444
183.0,313.83479958928694,123.81735276455419,0.7011039675505729,14.848541113289052,0.01191260937278429
184.0,311.63476459409543,107.84603744786182,0.6964489790846295,15.421933973413745,0.011846169238522147
185.0,302.3842753927052,99.09856370648492,0.6938932499427274,15.727423410142926,0.011775855588558603
186.0,299.5547357975458,84.57574127561281,0.6887579046476943,16.375010174745242,0.011709797203634227
187.0,288.043482345233,79.16808356099375,0.6861651462260965,16.687206638589757,0.011638994352702799
188.0,283.75659288962373,67.17849232271956,0.6808220159546472,17.36702591114352,0.011572606296266599
189.0,272.3276765837362,62.940800132014736,0.6781744601188857,17.696076229407282,0.011501891188581859
190.0,266.5314995978282,53.756240685088336,0.6726762100933048,18.39884744246007,0.011435043028075444
191.0,256.2371855011094,49.77147590421249,0.6699069928277918,18.759846313295235,0.01136488303293597
192.0,248.61410950391675,43.786704531090734,0.664364026495783,19.46504041171818,0.011297232550630212
193.0,239.300694596327,40.100086912973985,0.6596704650758876,20.06623599371295,0.011228496042295089
194.0,230.15143122797377,36.8097542321127,0.655923426668183,20.563555702523164,0.011159391000497695
195.0,223.25541608749745,31.97443225944794,0.6501180989200657,21.327523576264277,0.011092152948611904
196.0,214.72034479041858,29.485336455294835,0.6473034903600139,21.718971653466113,0.0110223993778263
197.0,207.2797486294617,26.469206647890257,0.6414636183047501,22.49110153040989,0.010954814151965917
198.0,199.95524040659845,23.92642184612502,0.6356225453741952,23.26972666836932,0.010887178545898194
