Time,J,A,S,tau,r
0.0,1.0,1.0,0.90003948973195,9.345794392523365,0.0
1.0,0.8175186950775509,1.1950230595376559,0.9011210764179245,10.183874038658823,0.001970355252449063
2.0,0.6441254076682122,1.382178066724847,0.902160447413804,11.027817013118797,0.0019352701858166258
3.0,0.47905898049397183,1.561900849784948,0.9031598337369551,11.877296589772813,0.001901450804042358
4.0,0.321633360787905,1.734608851147373,0.9041214006345843,12.731999211438838,0.0018688630590179142
5.0,0.17122804695972402,1.9007024572960127,0.9050472502417467,13.591623491564794,0.001837474876233171
6.0,0.027280308757078875,2.0605651178215165,0.9059394171852968,14.45588017321973,0.0018072541864703328
7.0,-0.11072223424196916,2.2145649442062867,0.9067998755634548,15.3244909163729,0.0017781707960722482
8.0,-0.24324784924951723,2.3630556319868568,0.9076305405048612,16.197187594149884,0.00175019606015598
9.0,-0.37072377991940736,2.506374509574132,0.9084332525945957,17.073713954144377,0.0017232995276631857
10.0,-0.49354165440102965,2.6448444506933213,0.9092097874882858,17.953824134669734,0.0016974515360980657
11.0,-0.612061907136806,2.7787751023568052,0.9099618611133158,18.83728171677873,0.0016726237937897117
12.0,-0.7266158367939514,2.908461761724367,0.9106911192507036,19.72386067856567,0.0016487876948764026
13.0,-0.8375096374438535,3.0341875124575735,0.9113991505116941,20.613343748884528,0.0016259159425617603
14.0,-0.9450257852325097,3.156222184641944,0.9120874764934519,21.505523271310977,0.0016039812190229011
15.0,-1.0494282664063581,3.274827058274653,0.9127575816558586,22.400197454259963,0.0015829592682315534
16.0,-1.1509600181492519,3.390248266761774,0.9134108684822232,23.29717575558033,0.0015628236538772486
17.0,-1.2498502546447496,3.5027266606287055,0.9140487192411504,24.19627089180902,0.0015435522504247746
18.0,-1.3463079575460035,3.6124871014711393,0.9146724270472698,25.097307693643984,0.001525119843944134
19.0,-1.4405350980170382,3.71975273611669,0.9152832874303785,26.00011140654521,0.0015075066293211052
20.0,-1.5327159544759494,3.8247333032942605,0.9158825197508851,26.90451732778235,0.001490690784377081
21.0,-1.6230275546299393,3.927635108862197,0.9164713315170722,27.810362601806617,0.001474653823016916
22.0,-1.711633751172311,4.028655561162394,0.9170508842816333,28.717490930178933,0.0014593771553996953
23.0,-1.7986901908070019,4.127985099799102,0.9176223033594141,29.625750776279016,0.0014448430411063001
24.0,-1.8843423324604058,4.225805563829306,0.9181866673284818,30.534996878507968,0.0014310336180486894
25.0,-1.9687302705337912,4.32230084484303,0.9187450771453615,31.445081608004283,0.0014179352820807873
26.0,-2.0519856763357494,4.417645933999686,0.9192985847548896,32.35586386626363,0.0014055335347705916
27.0,-2.134233324472805,4.512012786713672,0.9198482292680533,33.26720428485606,0.0013938153803600788
28.0,-2.215593206815752,4.6055730420216365,0.9203950575714609,34.17896320669056,0.0013827699820165198
29.0,-2.2961777686215203,4.698489862690233,0.920940065834786,35.09100699041867,0.0013723855019222902
30.0,-2.376095629163646,4.7909311483384185,0.9214842917251047,36.003197773379114,0.0013626536289522045
31.0,-2.455449552745985,4.883059944160577,0.9220287466715719,36.91540086827073,0.0013535659522482715
32.0,-2.5343372187207205,4.975037443232953,0.9225744382740565,37.827482533012514,0.0013451148753545125
33.0,-2.6128512396201957,5.067024631769065,0.9231223792004105,38.739308582628404,0.0013372940199647193
34.0,-2.6910797943900504,5.15918491745737,0.9236736055328374,39.650742337375426,0.0013300988228218261
35.0,-2.7691071252045134,5.251683092772624,0.9242291694936504,40.56164537742291,0.0013235260002630853
36.0,-2.847011583495613,5.344683650889187,0.9247901283788074,41.471878957365796,0.0013175728774802245
37.0,-2.9248661964928533,5.438352983672698,0.9253575597158329,42.381302288621384,0.0013122379047050157
38.0,-3.0027408792336967,5.532864817038733,0.9259325969789611,43.28976808196003,0.0013075220066190274
39.0,-3.0806987415028906,5.6283857811038835,0.9265163303627733,44.1971337741725,0.001303424578131254
40.0,-3.1587954410609167,5.725098989996353,0.9271099722954157,45.103243692403076,0.001299949436540993
41.0,-3.2370826661903855,5.823179788926795,0.9277146848661764,46.007946949051146,0.0012970986330446501
42.0,-3.315603188457852,5.922824027928099,0.9283317786755402,46.911076312666715,0.001294879185360742
43.0,-3.394390943734088,6.024212201665151,0.9289624675811302,47.812475719557526,0.0012932942640052605
44.0,-3.473471204993319,6.127555262098686,0.9296081757284153,48.71196440635429,0.0012923541189273997
45.0,-3.5528582502223016,6.233045318084222,0.9302702109199296,49.60937574477917,0.0012920642216333
46.0,-3.632552797166515,6.340907201244541,0.9309501036311119,50.504516428473465,0.0012924371950370486
47.0,-3.7125430166361064,6.451347977164597,0.9316492794686944,51.39720670287196,0.001293481079919714
48.0,-3.792802002965577,6.564606421927377,0.932369376945889,52.28724031064463,0.00129521052635858
49.0,-3.873280847868309,6.68092047645787,0.9331120402863547,53.174411370630395,0.0012976391280603704
50.0,-3.953908111025791,6.800534733926485,0.9338789664636846,54.05850786507239,0.0013007812008765207
51.0,-4.0345915267962225,6.923710976075374,0.9346719730165937,54.93930289654889,0.0013046539312982985
52.0,-4.115207769567977,7.050723881847936,0.9354929726854312,55.81655862346303,0.0013092761740044517
53.0,-4.195595734952973,7.1818475167437015,0.9363438787530269,56.69003683484775,0.0013146657379849668
54.0,-4.275560034452019,7.3173752379049315,0.9372267489469709,57.559483501122,0.0013208432175705802
55.0,-4.354861141297615,7.457619245189037,0.9381437642272014,58.42462782875153,0.001327831955838449
56.0,-4.433203916553193,7.6028919437621125,0.9390971184944858,59.28519848707189,0.0013356541326509529
57.0,-4.5102324101815086,7.753525609301911,0.940089144234102,60.140907456623815,0.0013443345501716543
58.0,-4.585522516904182,7.909880631519145,0.9411223620008631,60.991442786802864,0.00135390205361185
59.0,-4.6585772180457035,8.072283477594528,0.9421990781071522,61.83651923753568,0.0013643781260362327
60.0,-4.7288018940310454,8.241124540203177,0.94332202067525,62.67579889727237,0.0013757946753405745
61.0,-4.795481807490352,8.416787184595494,0.9444938680231318,63.5089490995042,0.001388180944849723
62.0,-4.85780539965929,8.59967402915841,0.9457174358120003,64.33562007071684,0.0014015684294417894
63.0,-4.914819468473444,8.79018661717005,0.9469955281115994,65.15546217128096,0.0014159872034977888
64.0,-4.9654001375201755,8.988752594129204,0.9483311120419495,65.96810377388852,0.0014314705855367183
65.0,-5.008248833043645,9.195808818403826,0.949727209169253,66.77316454241266,0.0014480522817765253
66.0,-5.041861661411838,9.411804079997774,0.951186909132386,67.57025327259781,0.0014657668453901002
67.0,-5.064499210286155,9.63719332066681,0.9527133267428456,68.35897277833011,0.001484648727361459
68.0,-5.074153295092454,9.872439792482423,0.9543096113941172,69.13891794722561,0.0015047327155486624
69.0,-5.0685046978477155,10.1180211568287,0.9559789771411488,69.90967019328036,0.0015260550225727307
70.0,-5.044898359712191,10.374413262967785,0.9577246009885328,70.67081134507985,0.0015486506624160677
71.0,-5.000282745973877,10.642101825062614,0.9595496841203066,71.42191336354618,0.0015725554907343863
72.0,-4.931167644158741,10.921571024961334,0.9614573718949301,72.16254740043782,0.0015978045548566044
73.0,-4.704002262692369,11.083116860596006,0.9626692224609499,72.41177028389859,0.0016063068677517527
74.0,-4.248171810459846,11.050830589415671,0.962757982144859,71.51470021292427,0.0015873703692837102
75.0,-3.7654749446178335,11.027898907113588,0.9628532759985324,70.50570338067907,0.0015690448253690803
76.0,-3.252694723523944,11.014658102277538,0.962956440356613,69.36338811611063,0.0015512543614422975
77.0,-2.7004215385385617,11.005606869734294,0.9631331408375086,67.614399930998,0.0015336534801257554
78.0,-2.111297537854163,11.007692115833535,0.9633145058809738,65.72091646416321,0.0015166277839800328
79.0,-1.4783859319364638,11.01872441586206,0.9635164762093393,63.57276411297097,0.001500014705930776
80.0,-0.7977255186268077,11.039993380384862,0.9637400428492053,61.145989673075384,0.0014838381069361337
81.0,-0.06150142572795686,11.069474638751776,0.9640136801215514,58.189666499862376,0.0014680056910424584
82.0,0.7366528834889813,11.107267311987961,0.9643427630520472,54.631390625893886,0.001452517743985081
83.0,1.593545531977838,11.163828862762047,0.96462039268515,51.31284885984282,0.0014376259937408525
84.0,2.524413421404122,11.232183230415009,0.9649365283231912,47.49342581904231,0.0014231051549969261
85.0,3.53042394626755,11.320712953929656,0.965222293365249,43.701511361530784,0.0014091148818074037
86.0,4.609745610237273,11.442396384238165,0.9654085928998184,40.43623560217571,0.0013958471672667779
87.0,5.777288464016835,11.595562670500764,0.9655411062093838,37.30897767974824,0.0013831826567060597
88.0,7.039788417279057,11.789244091310481,0.9656061252803629,34.38900130546089,0.0013712011205745287
89.0,8.41725282311564,12.022455344379672,0.9656074856291846,31.626353745872922,0.001359811968540269
90.0,9.892969122825832,12.334867359468593,0.965473670704789,29.479702235531374,0.001349492148157504
91.0,11.509162908229516,12.712196454038382,0.9652676956688302,27.480572003388307,0.0013399110515374827
92.0,13.295877956694653,13.15836590554682,0.9649850096045125,25.61730582953724,0.0013310322393078756
93.0,15.216968334638159,13.750927705232632,0.9645773122769993,24.25850020373522,0.0013236184178692738
94.0,17.42639139491643,14.386201778521924,0.9641317076705781,22.66800099969652,0.0013164099230150643
95.0,19.835940755069316,15.213686860090974,0.9635685886562216,21.522907313154846,0.0013108822883371968
96.0,22.60710367777132,16.140007944840203,0.9629296950599898,20.46505213922197,0.0013064423931119752
97.0,25.833037430489487,17.14287886388527,0.9622048485978958,19.474889993511745,0.001302947833602722
98.0,29.59520943918623,18.222540749752486,0.961384639298217,18.547826906968172,0.0013003553585566577
99.0,33.95115333397436,19.415938779098337,0.960475240804975,17.69529957266712,0.0012989675128795232
100.0,38.84742257761813,20.884112000839686,0.9595040707390654,17.100166818233713,0.0013001938247995475
101.0,44.59064879770634,22.442392314581273,0.9584427247275189,16.42956930576999,0.0013022336387823218
102.0,51.42975927667268,23.986617543695125,0.9572096375196025,15.72561060972473,0.001304090556184745
103.0,58.90813374064196,26.13209598387569,0.956027346848785,15.314331343138283,0.001310973630454805
104.0,68.08497607640038,28.007515310629472,0.9545456275547688,14.689395884850338,0.0013151867249273507
105.0,78.01086178818116,30.774151211624968,0.9532062214198348,14.340666867499246,0.0013260595805723336
106.0,90.13157856628472,33.236471636579815,0.9514927942585025,13.810698189688067,0.001333654007338701
107.0,103.43804257172528,36.67599378835067,0.9498839449975712,13.480679644443244,0.0013472519246582096
108.0,118.78038408388426,40.58292987270969,0.9481301630795262,13.157313346848788,0.0013623121161141477
109.0,136.99837607747867,44.45649262719589,0.9460116497726875,12.72855540148495,0.0013752764513884188
110.0,156.68717390771846,50.08178091224241,0.9441280529785233,12.472734105235828,0.0013964726833991658
111.0,179.22830247589633,56.491523587628805,0.9420603302448951,12.218771159729311,0.0014190887702826875
112.0,205.77002143140098,62.82816412745572,0.9395109604900664,11.87285348888832,0.0014386654403551501
113.0,234.63009686166833,70.97540265267561,0.9370041484293622,11.623458385032999,0.0014638481493620317
114.0,265.22664609142674,81.690582472128,0.9347057753246625,11.427866640040218,0.0014966973865152377
115.0,298.9320693545793,93.50867013520978,0.9320690968314241,11.224349675407653,0.0015296464035536265
116.0,335.7752206464292,105.80643997305471,0.9289217488581043,10.971849828276069,0.0015603813133006218
117.0,373.045619707038,120.32140521245822,0.9256293556970666,10.746856671771715,0.0015945499439346481
118.0,407.65417189311484,138.9624937714898,0.9225303501461163,10.57710439293548,0.0016368254509143726
119.0,438.3594299570605,161.42399291026788,0.9195158762599818,10.425348990614165,0.0016852410401199515
120.0,463.97808289380856,186.8071975812179,0.9161405132992562,10.270944026429731,0.0017346984257596957
121.0,482.89302667447555,214.37779230045598,0.9122174620827352,10.097886812250746,0.0017829900527391706
122.0,492.0775366553945,245.07604327708003,0.9079259010877209,9.913116766019957,0.0018325231396815825
123.0,487.92309418000195,281.03416548734486,0.9035451669242096,9.75451106758269,0.0018872695818269775
124.0,468.9260730209277,322.9530186118603,0.8992965741966442,9.622004768471538,0.0019496174942598816
125.0,437.1338128561157,368.71566456202504,0.8951693248390534,9.502718581325793,0.0020185450979735673
126.0,395.05809214170176,416.5503443806877,0.8908821587406055,9.3875496274436,0.002091262672208251
127.0,345.1651734366431,465.29637126564575,0.8861256009837484,9.269626097827459,0.0021653237152139525
128.0,290.1218975390971,513.7664021590143,0.8808015313075596,9.14396983208433,0.002239671236129669
129.0,233.06005784704303,560.2187629088323,0.8750139650155393,9.011266825317545,0.002315262683939484
130.0,177.26641268074007,602.5549423563963,0.8689430544012475,8.882534521652254,0.0023942580911327682
131.0,127.34836089164537,637.1101376998126,0.8627802260706346,8.76712287090968,0.002478733705321002
132.0,87.78046891441979,660.1163628860626,0.8566864433955874,8.664376815315046,0.0025695350824958
133.0,58.434289070314385,672.1791564377322,0.8507095435047374,8.57033529020238,0.0026658355607577467
134.0,37.2413794842474,675.6627878061446,0.8447242140876856,8.481191414010421,0.002766110723778102
135.0,22.469338266854923,672.4805953810644,0.8384830432584449,8.39374818826714,0.002869052555572978
136.0,12.57469905327392,664.2889816165774,0.8317528611948434,8.30538854391919,0.0029736413039113466
137.0,6.166571679971703,652.5521520188041,0.8244239737432729,8.214195749424253,0.0030790986026617852
138.0,2.078024517205623,638.4880794402778,0.8165218789158158,8.119516368910539,0.0031851654841980157
139.0,-0.48946185214815674,622.9337658069189,0.8081524081390377,8.022904739949471,0.0032923094953303746
140.0,-1.9072433716193347,606.2920669439482,0.7994499273153398,7.9281288684541735,0.003401448092567009
141.0,-2.5224471123184258,588.9368575775596,0.7905554970098974,7.838820363761159,0.00351342549456839
142.0,-2.746343222948724,571.3037785602726,0.7816101337447384,7.7563901427294315,0.0036285172374739077
143.0,-2.7975402766391784,553.6335818618584,0.7727257409713865,7.680378871459841,0.0037462196955060237
144.0,-2.7479566628826904,536.0197346828324,0.7639476837822861,7.609534874681171,0.0038655650582242757
145.0,-2.6260716813843503,518.5120571793607,0.7552261255160918,7.542458996247687,0.003985636217035634
146.0,-2.4461282384417986,501.1463098252096,0.7464230878030205,7.477890786652602,0.004105800621502094
147.0,-2.215031379931586,483.95144503247474,0.7373565904985172,7.414799143209721,0.0042256501633242665
148.0,-1.9347748657697708,466.9523531973383,0.7278619962787017,7.3523754930178695,0.0043448586568576595
149.0,-1.6036756617022656,450.1715874469041,0.7178386171401321,7.290029907626901,0.004463087061981723
150.0,-1.2173724232998888,433.63084228183214,0.7072619917563588,7.227439330889311,0.004579974120900378
151.0,-0.7699501965538179,417.35278182320525,0.6961687638428347,7.164637628319727,0.004695197481473546
152.0,-0.25327317802112936,401.3611251557211,0.684630030012226,7.102081824898952,0.004808545411425014
153.0,0.3489246976456953,385.67569456502974,0.6727297177061599,7.04061491736204,0.004919926126445415
154.0,1.0674534915619966,370.3070409619171,0.6605509543067921,6.981279340441937,0.005029302869264773
155.0,1.943230851967162,355.2618564937566,0.6481699712496644,6.925039442587098,0.005136602589742362
156.0,3.0185330038138436,340.55293272679023,0.6356536978069417,6.872564741142066,0.005241650271584203
157.0,4.33699709162896,326.19995860075863,0.6230571935976976,6.824173264384647,0.0053441622579758355
158.0,5.948399131624353,312.22539263060816,0.6104212512664148,6.779897357843409,0.005443790417258462
159.0,7.910673882301043,298.65239224707386,0.5977705924775415,6.73959481204906,0.005540189364399876
160.0,10.288778752496208,285.50507080603177,0.5851131134546248,6.703045956127898,0.005633068334765455
161.0,13.151762239660304,272.809497851174,0.5724425856777376,6.670022126391948,0.005722210158357951
162.0,16.56864310400396,260.59440322697424,0.5597418804033678,6.640330180493052,0.0058074650385679895
163.0,20.603052498476462,248.89159594102242,0.5469875961083803,6.613835650433722,0.005888732994475883
164.0,25.30693649692594,237.73582177680117,0.5341532235322023,6.590471616201177,0.005965947206859592
165.0,30.713206882199845,227.16424686044422,0.5212135104977489,6.570234542423376,0.00603906250430331
166.0,36.82837406168649,217.21538277077318,0.5081465442227516,6.553169631446884,0.006108048595324451
167.0,43.625762030300095,207.92753187660935,0.49493613739663467,6.539362970117705,0.006172887786343512
168.0,51.040559983189844,199.33671204786887,0.4815722087000557,6.528921157724979,0.006233574789388609
169.0,58.96824583744078,191.47404434463124,0.46805009857217994,6.521969017779998,0.006290116474366524
170.0,67.26698415141719,184.3626972792435,0.4543689710140804,6.518631669881497,0.006342533459016142
171.0,75.76502676333757,178.0148125570415,0.44053205028086323,6.519042800852954,0.006390858796846267
172.0,84.27230573001665,172.4284201762041,0.4265455791269123,6.523335555949482,0.006435138751295887
173.0,92.59522579486801,167.58514361998286,0.4124195057970018,6.531640278837517,0.006475431964399286
174.0,100.55250322172778,163.44922184916712,0.39817155158949546,6.544070334264621,0.006511808611590879
175.0,107.98955854810544,159.96822789229293,0.38383285350673496,6.560701662920748,0.0065443491189069395
176.0,114.78924376676686,157.07543783285072,0.36945462308530125,6.581530316234302,0.006573144319513765
177.0,120.8782239113833,154.6936627206054,0.3551142782115709,6.606438755827527,0.006598293729742679
178.0,126.22861421579316,152.73932839958132,0.340915045304865,6.635180175773652,0.006619904441484737
179.0,130.85638305372228,151.12548678085088,0.32697284386201303,6.667417285673397,0.00663808957000876
180.0,134.81640788626524,149.76380218754133,0.31339697803413497,6.7028061359451865,0.006652967298986856
181.0,138.19472186321352,148.5666089704148,0.300273347679141,6.741079628846059,0.006664661511585607
182.0,141.09863059007316,147.4493796022958,0.28765496698072807,6.7820879112860295,0.006673304380629773
183.0,143.64473898030897,146.3342175325744,0.2755636862721384,6.825747366090763,0.006679040500518335
184.0,145.94794944736717,145.15321117976274,0.263995396809033,6.871968203556422,0.006682028209240523
185.0,148.111268424358,143.8520723317188,0.25292728082413724,6.920546972398663,0.00668243751519501
186.0,150.2180423876475,142.39285206659255,0.24232250410272477,6.971116709045843,0.006680444174099242
187.0,152.3290321877614,140.75477008400236,0.23213342385990685,7.02315594690458,0.006676224275273137
188.0,154.4847124485686,138.9308727653982,0.22230372230412282,7.076093231225669,0.006669952714541631
189.0,156.711160532674,136.92265426069915,0.21276701887141763,7.129506999542209,0.006661801396020232
190.0,159.02478076744026,134.73451756192375,0.2034411661727195,7.183391921762755,0.006651931671620978
191.0,161.43682076799763,132.368217349813,0.1942116259165271,7.2385344937318346,0.006640480201212656
192.0,163.95780100807744,129.81739444376277,0.1848953813295979,7.297013418733029,0.0066275472965128075
193.0,166.60429992410732,127.06177768702567,0.17517860641089797,7.3628691188790585,0.006613196987602354
194.0,169.38573379061918,124.08171500390074,0.1646672011138489,7.441507552606322,0.006597481582375637
195.0,172.21197292333883,120.95371743703667,0.15365196269678272,7.532047853068268,0.006580508106291512
196.0,174.84884783807067,117.89989769198468,0.1437342513352909,7.619485945750681,0.006562460813390514
