Time,J,A,S,tau,r
0.0,1.0,1.0,0.626780542723347,31.25,0.0
1.0,61.552895617086406,9.08307847157062,0.6250410842924704,31.546559653355907,0.08329737169883608
2.0,208.58047167627515,16.94668258319653,0.6232927552873628,31.845597375329092,0.08303453684602165
3.0,416.7491189763653,24.59698213379727,0.6215361556677277,32.14702641896376,0.08277527970157006
4.0,667.0293527016681,32.03996084515879,0.6197718747680238,32.4507606475145,0.08251958305193044
5.0,945.139369691961,39.28144361717404,0.6180005027075365,32.756712594513274,0.08226747489445976
6.0,1240.3816789451514,46.32706816368327,0.6162226127122534,33.06479653853773,0.0820189302905968
7.0,1544.7709976607903,53.18234127036466,0.6144387875761685,33.37492379927363,0.08177398736296092
8.0,1852.3793704072987,59.85251069203515,0.6126495444937224,33.687015147869666,0.08153252652015991
9.0,2158.8333718526083,66.34283112310595,0.6108554877119649,34.00097657887948,0.08129467137608773
10.0,2460.948258590573,72.65826615897862,0.6090571263791996,34.316727378914706,0.0810603408168609
11.0,2756.432343385452,78.80371794980034,0.6072550096216122,34.63417905329413,0.08082956362707938
12.0,3043.6792924181086,84.78392958091597,0.6054496745470319,34.9532452653728,0.08060233717333916
13.0,3321.596374962182,90.60352008536123,0.6036416536706695,35.273838458202114,0.08037866901888881
14.0,3589.4806230289114,96.26683768359842,0.6018313924555426,35.59588537806357,0.08015844611062126
15.0,3846.922146844731,101.77823859748707,0.6000194050461021,35.91929960147782,0.07994168496294894
16.0,4093.727776426262,107.1420424597418,0.5982062389886061,36.24398537958719,0.07972846257084291
17.0,4329.870097178031,112.36233764068697,0.5963923830105856,36.56985877845067,0.07951875746634555
18.0,4555.44525240517,117.44305047453594,0.5945782964772991,36.89684130715861,0.07931251734002667
19.0,4770.630524933977,122.38809526530072,0.5927644733074935,37.22484332763096,0.07910976590491407
20.0,4975.659926818763,127.20122633830886,0.5909513809873753,37.553781297274405,0.07891048647126507
21.0,5170.814469407724,131.8861197379123,0.5891394925281926,37.883568664568514,0.07871468018582221
22.0,5356.389472304398,136.44631112728064,0.5873292480476352,38.21412313880454,0.07852232480972882
23.0,5532.703988837429,140.88529013319635,0.5855211169253187,38.545356685723476,0.0783334286864401
24.0,5700.094554180597,145.2064157511848,0.5837155386520447,38.87718528875182,0.07814797883661814
25.0,5858.876990249692,149.4129954891283,0.5819129721297519,39.20952023257985,0.07796598385197187
26.0,6009.37839963379,153.50825385289082,0.5801138833859096,39.54227253286754,0.07778745077531336
27.0,6151.924063504784,157.49513165879407,0.5783186005829295,39.875375683830896,0.07761229290533296
28.0,6286.810279743275,161.37674133250843,0.5765275986970549,40.20873306615111,0.0774405526766875
29.0,6414.333500702877,165.15609985080232,0.5747413560915166,40.54225061584958,0.07727225585946046
30.0,6534.785892539499,168.83589523930704,0.5729601762342066,40.875863387112766,0.0771073178257497
31.0,6648.421387420642,172.41900626251297,0.5711845206684142,41.20947392041421,0.07694577766225465
32.0,6755.514690025824,175.90807062426808,0.5694147536461754,41.543006356759506,0.07678759550376989
33.0,6856.296472414589,179.30584796119967,0.5676513499354412,41.876360025488644,0.07663281635098143
34.0,6951.00547317979,182.61481196424648,0.565894642146929,42.209461237813066,0.07648139339531441
35.0,7039.865394072292,185.83746149971435,0.5641450187232526,42.5422251197635,0.07633331858185928
36.0,7123.077327555235,188.97624060357435,0.5624028676551243,42.87456510166075,0.07618858879235414
37.0,7200.8385629291415,192.03355883359785,0.5606685944064095,43.20639107877289,0.07604721051425764
38.0,7273.344800425571,195.01164670863932,0.5589425205403181,43.5376281706572,0.07590914597399596
39.0,7340.776682636271,197.91278349686516,0.5572250401931831,43.86818827064124,0.07577439658876417
40.0,7403.276787232758,200.73922505744721,0.5555165539092407,44.197976507895255,0.0756429803482762
41.0,7461.014186972966,203.4930113708321,0.5538173571576236,44.526920466475715,0.07551485511548199
42.0,7514.139376984744,206.17628323404938,0.5521278521146358,44.854927871773626,0.07539003177920779
43.0,7562.797404829433,208.7910170715795,0.5504483529798552,45.181920545645205,0.07526848495015459
44.0,7607.109374615317,211.33930224468978,0.5487792873926104,45.507798013373595,0.07515024397417715
45.0,7647.2120063871835,213.82292494163653,0.5471208995396821,45.832494966095055,0.0750352533030762
46.0,7683.224304140273,216.24383799538626,0.5454735836355074,46.15591663083695,0.0749235282914837
47.0,7691.959782604943,236.1931364289237,0.5447537246009572,46.29983091297089,0.07497865771480132
48.0,7615.159070774593,301.5920012304626,0.544611780019779,46.328806611790384,0.07505733342362166
49.0,7457.432275046241,401.31251228145123,0.5444990024206917,46.35187645223182,0.07513624825791976
50.0,7246.467002880266,525.4870403265468,0.5444124744054295,46.369612541448035,0.07521551926904403
51.0,7005.918780566509,666.3982315883082,0.5443504322590331,46.382352099476094,0.07529514924025645
52.0,6750.043964375692,818.0455075391043,0.5443118583758709,46.39028831427406,0.07537520911963323
53.0,6486.703433077345,975.7931046135324,0.5442962948990191,46.39350617710344,0.07545581420690131
54.0,6220.470583519262,1136.0955217563562,0.5443036884152141,46.39201548467268,0.07553720341326917
55.0,5954.310735896671,1296.2706945847497,0.5443343564955592,46.385755572463374,0.07561963241186834
56.0,5690.299814136557,1454.3187858959723,0.5443890502113963,46.374583152216694,0.07570343100891365
57.0,5429.9161993964435,1608.7920952678733,0.544469069971716,46.35825020088386,0.07578895548021299
58.0,5174.1851089648135,1758.691786732554,0.5445764271704967,46.33636538476691,0.07587649436002575
59.0,4923.737759094823,1903.4160014142856,0.5447142502732455,46.30831554500138,0.07596622203598405
60.0,4678.842440552803,2042.7294601896617,0.5448873140825583,46.273139850908414,0.07605785786219947
61.0,4439.375994189975,2176.7912916723044,0.5451023106433927,46.229455309082326,0.07615022173902244
62.0,4204.845639934738,2306.130915422627,0.5453681481808309,46.17535081536411,0.0762408985017364
63.0,3974.65506625421,2431.3818132100037,0.5456940730786756,46.10874912709556,0.07632683109726149
64.0,3748.6745323545833,2552.7104476004906,0.5460828893500193,46.02892251531842,0.07640699577893229
65.0,3527.610078907352,2669.445615880642,0.546519832303052,45.93912107429311,0.0764858332400436
66.0,3313.3735980938836,2779.7112233773787,0.5469712968741018,45.846845345882315,0.07657270548244863
67.0,3108.9965313715543,2880.5131141162365,0.5474060231654696,45.758719241692425,0.07667438714994994
68.0,2915.4262479479366,2970.9421483831998,0.5478130323849437,45.676581681066075,0.07678805065859375
69.0,2731.034973393917,3052.6631280701577,0.5481988266557257,45.59866683697519,0.07690584065376127
70.0,2554.098606995736,3127.4348943020914,0.5485792178291603,45.521660310133136,0.07702383944787543
71.0,2383.49708434735,3196.4097179799487,0.5489763588761888,45.4412994148661,0.07714424414002301
72.0,2218.1058389967766,3260.741869209006,0.549421450458985,45.35166783113574,0.0772716063447443
73.0,2055.204068461507,3323.1779031680676,0.5499608578038566,45.24356242569857,0.07740377316293505
74.0,1888.0851988100408,3390.443339058328,0.5506519847213004,45.10447233144123,0.07752204965876625
75.0,1716.1107136063174,3463.188393727297,0.5514800205831715,44.936512053628434,0.07762112560645597
76.0,1555.641902646251,3525.0713357242053,0.5522713893907718,44.77748491751762,0.07774063322365002
77.0,1413.2344322966223,3569.5722281063086,0.5529346710810922,44.64562707325449,0.07788910229638502
78.0,1280.2805130918762,3605.33224198412,0.5535206508306549,44.52903065617406,0.07804068179007068
79.0,1152.5876657954527,3636.56836889177,0.5541091445768984,44.411970432181,0.0781938584290274
80.0,1027.249467178734,3666.205502916085,0.5547966007680943,44.276074298801994,0.0783568762036177
81.0,893.3906324529256,3705.1271155822283,0.5557068332249655,44.09558760473436,0.07850548302227225
82.0,749.0328964718346,3755.3040035473214,0.5567973229882673,43.877661440064976,0.07862999481974772
83.0,627.0370099889707,3783.8942205975145,0.5577317028806846,43.69380095870151,0.0787946383221846
84.0,520.5026429620342,3797.840172657148,0.5584864891465328,43.546074686557475,0.07897583741542515
85.0,419.09573521744034,3807.5004844250566,0.559212141762782,43.404027496610155,0.07915655385819727
86.0,318.1254340104731,3817.5791048017836,0.5600814629780666,43.23486888692825,0.07934798927841406
87.0,199.64822410525312,3846.0141486140465,0.5612708006039543,43.001389518190315,0.07950978023873946
88.0,85.03102649886279,3871.4235057893543,0.5624920097732359,42.76245492777588,0.07967722963635647
89.0,-3.7854037200830284,3871.908684491159,0.5634250735179672,42.5826243484007,0.0798845637566456
90.0,-74.40004765987463,3855.1398910498524,0.564256118005226,42.422413587232846,0.08008901995710402
91.0,-112.911407907704,3807.453534829801,0.5652335494064044,42.235042266528446,0.08030571153316506
92.0,-131.39067803257964,3741.1909437476725,0.566591514990075,41.97219908961507,0.08049137879170316
93.0,-133.51296752378002,3660.1644443127784,0.5679072786541335,41.719415549625026,0.08069433671261975
94.0,-132.14733561575102,3577.2793660863495,0.5688922886727785,41.53250248455834,0.08092533984367777
95.0,-130.42109230300218,3495.6500894950154,0.5698367125028445,41.353525306099286,0.08115543098898617
96.0,-128.620462846342,3415.5375608008703,0.57108210656028,41.117876083716695,0.08139059723179175
97.0,-126.81997529454563,3336.9833815063384,0.5726368343799256,40.82111939155282,0.08159556003113469
98.0,-125.033557882836,3259.977309454803,0.5738255747604054,40.598488069417314,0.08184784793520529
99.0,-123.2683102040154,3184.5025582824405,0.5748229110618379,40.412024618424326,0.0820942634970825
100.0,-121.52420879139798,3110.5331628102463,0.5760303822890374,40.18731546460764,0.08235584918814183
101.0,-119.8010477875469,3038.0414812758954,0.5776775066955081,39.87735293818118,0.08258492165536722
102.0,-118.09854919082488,2966.9980775380914,0.5790206468422264,39.628787981149465,0.08285410180464535
103.0,-116.4165975960306,2897.384409560612,0.5800802932460577,39.43346197086539,0.08311774383917976
104.0,-114.75497812570936,2829.175980628516,0.5813131826421893,39.207266877310765,0.08339757675195227
105.0,-113.1134541967146,2762.347242653987,0.5830255142411593,38.88978102716374,0.08365157244696696
106.0,-111.4917393433078,2696.8695798486474,0.5844418861252564,38.63114880209295,0.08393938965342314
107.0,-109.88973678290603,2632.726626059628,0.5855442284951773,38.43061111910703,0.0842168981618938
108.0,-108.3072417264479,2569.895434832109,0.5868324827155722,38.19732750409344,0.0845129138569194
109.0,-106.74402858055643,2508.352058254613,0.5886051361472067,37.87314203695676,0.08478816112444938
110.0,-105.19983540598604,2448.0703352781707,0.5900267509445228,37.61707988344265,0.08509359732411027
111.0,-103.67455851269011,2389.0341570102933,0.5911494400348177,37.41508941139327,0.08538063326361904
112.0,-102.1680081347789,2331.2222508627756,0.5924979661348271,37.17360369190954,0.08569056160236137
113.0,-100.6799638644803,2274.6117371609116,0.5943034194450558,36.847471034817794,0.08598439405110772
114.0,-99.21018994746511,2219.17916209855,0.5956916754929191,36.60018464571946,0.0863016803582165
115.0,-97.75859062990953,2164.9092759851296,0.5968138340997359,36.399794824736134,0.08659402202094695
116.0,-96.32498759186825,2111.782264412156,0.5981919223885068,36.1549751747594,0.0869137681505698
117.0,-94.90914186502945,2059.7750923471444,0.5999874220741797,35.83373585079636,0.08722245057828118
118.0,-93.51087402447327,2008.868152219341,0.6013347842881983,35.595112660687676,0.08754505728000628
119.0,-92.1300620897815,1959.045390905523,0.6024281259956079,35.40002774022146,0.08783727519644689
120.0,-90.76654771713189,1910.28877435494,0.6037549411653514,35.16478553187674,0.08815926921419903
121.0,-89.42011087504709,1862.5770989270081,0.605493254607787,34.85501703762186,0.08847628708880884
122.0,-88.09056803586954,1815.8912480569315,0.6068232471058863,34.618918425085525,0.08880055504560092
123.0,-86.77779366195381,1770.215546871025,0.6078530528216711,34.43311834000343,0.08908669335365049
124.0,-85.48164941274675,1725.5337056060177,0.6090056736833432,34.22610608371153,0.08939468976575012
125.0,-84.20195250867837,1681.8271458599654,0.6105763321356327,33.944608762221776,0.08971371543531138
126.0,-82.93843634116891,1639.0732755816216,0.6119575280537031,33.69625717534909,0.09003530390768898
127.0,-81.69107906512482,1597.2623010581437,0.6129264068161403,33.516849728293664,0.09031916923221246
128.0,-80.45969995218951,1556.3763721348537,0.6138225222147763,33.34782456586614,0.0905903858040441
129.0,-79.24413900315582,1516.3987934377546,0.6149393719016302,33.14019208585531,0.09089399142532117
130.0,-78.04420383216436,1477.3114758155027,0.6163104038606153,32.88570876971357,0.0911957205185939
131.0,-76.85972850999146,1439.0980356032294,0.6173676661496156,32.68384290742285,0.09149246389072323
132.0,-75.69059154890478,1401.7445240260022,0.6181023791462019,32.53301878828894,0.09174748899279807
133.0,-74.53664596608071,1365.2363241005312,0.618736563782577,32.39581732621213,0.09198427697154583
134.0,-73.39770145803884,1329.5572091899237,0.619422708876725,32.247106896022565,0.09223777280517445
135.0,-72.27356024926165,1294.6919763590845,0.6202781415628505,32.06635807407298,0.09250527494536899
136.0,-71.1639575779494,1260.6241982550894,0.6211553522188566,31.877372414399783,0.09276365915954501
137.0,-70.06861296508744,1227.3397368029541,0.6217707729213985,31.72907037855494,0.09301043897638071
138.0,-68.98715147665278,1194.8252845944464,0.6221358434926789,31.617693459541616,0.09322610770169845
139.0,-67.91899522805072,1163.0662869891223,0.6223510828290002,31.52619216761338,0.09341585602866762
140.0,-66.86332250997017,1132.0486750396067,0.6224727500268237,31.445340202433165,0.09359263709982514
141.0,-65.81890267628839,1101.7584525387083,0.6225207011286441,31.37133311522493,0.0937640261264824
142.0,-64.78390281898267,1072.1817045084342,0.622506348331903,31.302156947599496,0.09393272542106101
143.0,-63.75563759738778,1043.3047732833186,0.622430572598976,31.237601076372123,0.09409734520157201
144.0,-62.73020159611404,1015.1143436179196,0.6222793727454748,31.179670138032492,0.094253680972533
145.0,-61.70196783271583,987.5971604095818,0.6220318998424758,31.131552791004072,0.09439789882182678
146.0,-60.6629680515891,960.7402795954596,0.6216672532191311,31.09657270403957,0.09452798068005654
147.0,-59.60214818832493,934.5308370157243,0.6211738159712582,31.07664907416966,0.09464313111147575
148.0,-58.50464311922886,908.9560026102861,0.6205450609770997,31.072845807463114,0.09474327868224702
149.0,-57.35035481741064,884.0035770588878,0.6197824800730275,31.08496091376433,0.09482825491658678
150.0,-56.11270294927217,859.6611903183118,0.6188893900554329,31.112451559776677,0.0948982020838652
151.0,-54.75775908288042,835.916661742311,0.6178767283068206,31.153540457824327,0.09495359894240923
152.0,-53.24202534853984,812.7580937885756,0.6167621916805033,31.205444477000103,0.09499630449981077
153.0,-51.51125834161897,790.1735178830511,0.6155670566606738,31.264875796356616,0.09502999748838643
154.0,-49.49860724302025,768.1514199628989,0.6143078091247363,31.329381636764026,0.09505938469934014
155.0,-47.12330630686716,746.6802563606208,0.6129817588550962,31.3990010887939,0.0950870047945292
156.0,-44.28907067591367,725.7486431310027,0.611552811656258,31.477652727960283,0.09511095983730763
157.0,-40.882617099104046,705.3455031744921,0.6100084174358517,31.567694752773704,0.09512698013484983
158.0,-36.77301518155807,685.4598488479081,0.6083986928875726,31.66659908406713,0.09512922448006368
159.0,-31.81070855631534,666.0808340426398,0.6066554558044808,31.785199776755316,0.09510378758777664
160.0,-25.82736213257095,647.1977396020667,0.6046695233079908,31.940238504111747,0.09504338469488786
161.0,-18.635973405647334,628.8000860080356,0.6025221066658871,32.11907978611596,0.09496518410792958
162.0,-10.031617766738542,610.877505906718,0.6004731371711688,32.277951454173724,0.09489627122440852
163.0,0.20758099825310541,593.4197601882947,0.5984998967294861,32.41813100355995,0.09485502554328608
164.0,12.31883395824486,576.416808852432,0.596318212678086,32.575210743629206,0.09481637045273887
165.0,26.55250826584362,559.8587293352969,0.5941910484811118,32.732774530688616,0.09475963330554613
166.0,43.16994568190391,543.7357613322348,0.5918362316949638,32.93118332914881,0.09465122067526029
167.0,62.4406330607678,528.0383366412397,0.5893024164821702,33.15907296198329,0.094518823166959
168.0,84.63906559024892,512.7569974914597,0.5870063475201942,33.34469161324976,0.0944215506524703
169.0,110.04213192915851,497.88233958097004,0.584498116791267,33.53976599421903,0.09434928476511556
170.0,138.92537749016714,483.40538811314974,0.5820719384636482,33.731341013905485,0.09426500522305643
171.0,171.559725841561,469.31725072279534,0.5795071940801265,33.9594987000643,0.09412345140580006
172.0,208.20893299485738,455.609169995821,0.5768397282940672,34.20636333251081,0.09396458302025847
173.0,249.12653166339337,442.27257798191926,0.5744082692056292,34.40623475825518,0.09385732144656149
174.0,294.5540939333262,429.2971610187311,0.5715157787521689,34.64565815786689,0.09375653202881144
175.0,344.7131161106907,416.67794102015466,0.5690047292927332,34.862707571736664,0.093623923522206
176.0,399.81172273205675,404.405998436479,0.5662403295029284,35.12866182067306,0.09344231573280073
177.0,460.03744217163955,392.47405556920376,0.5637457741991141,35.34706799719355,0.0933030385345495
178.0,525.5640485133187,380.8653573483219,0.5606306719888264,35.61527410226794,0.09318293348871903
179.0,596.5192043875018,369.5880056616764,0.5580951452047054,35.837036724453796,0.09304520326573289
180.0,673.0279337589532,358.63080414112295,0.5553563466368296,36.10535687629878,0.0928534838400413
181.0,755.1880616459817,347.98875247685345,0.552864068793735,36.3309212776733,0.09269892262225841
182.0,843.1008308767058,337.6204102969471,0.5495690703423639,36.62485909133911,0.09256191325171229
183.0,936.7477963766318,327.57992517270446,0.5470590243481922,36.85056567425874,0.09241230065593756
184.0,1036.1719020888227,317.84352543781523,0.5443937496167902,37.11651959860205,0.09221391838087854
185.0,1141.3779435822362,308.41016688871946,0.5419717062072614,37.33868738570171,0.09205525043878628
186.0,1252.423184056904,299.16188981511846,0.5385107416258741,37.657843967548494,0.09190370172953967
187.0,1369.0379393149044,290.29581389388545,0.5360909659813214,37.88275810653581,0.09174099502986208
188.0,1491.2460637156544,281.7382093720729,0.5335455497059696,38.14076089428769,0.0915398325558905
189.0,1618.9338396026073,273.4919572816816,0.5312062004300919,38.35712426701325,0.09138102334949222
190.0,1752.2084519807306,265.2499670402043,0.5276500546008431,38.69521754820984,0.09121737122203642
191.0,1890.320614707124,257.57123487934064,0.5253430058967758,38.917007446977706,0.09104350570834198
192.0,2033.4250739994839,250.24252734926236,0.5229585384059139,39.161403202140086,0.09084343978439273
193.0,2181.247751244793,243.25502776261618,0.5206846237212134,39.37456775263282,0.09068348674910327
194.0,2334.0876188045827,235.9171282088885,0.5171111073392688,39.72400511906756,0.09051041897080492
195.0,2490.3165954149144,229.56087271657785,0.5149403606357231,39.9383992006473,0.09033039573878932
196.0,2650.472226180616,223.65228172763005,0.51273492740446,40.166855162293366,0.0901328003486002
197.0,2814.081517866066,218.14905120263654,0.5105765154416435,40.372853734359765,0.08997022814713845
198.0,2981.9272162672896,211.60218568338928,0.5069773161788069,40.73452673987857,0.08978975074626418
199.0,3150.767815782943,206.87134559492614,0.5049766209135,40.93503697891356,0.0896099365557389
200.0,3321.8880450569195,202.75759082894436,0.5029518807469758,41.14789464072618,0.08941413775854519
