Time,J,A,S,tau
0.0,100.0,10.0,0.6668178040475845,5.028880912410284
1.0,96.59176803218502,11.497796779290576,0.6813733954259876,5.2187740159189495
2.0,92.66369301355046,12.941041239694005,0.6963419030885443,5.410444028252961
3.0,88.35837637700303,14.335184199235734,0.711722311199877,5.603676496056211
4.0,83.79722696820897,15.685031635477397,0.7275237505057889,5.798416859560134
5.0,79.07634525440051,16.995070320623455,0.7437555228105256,5.994610360061112
6.0,74.26942950647222,18.26949608984805,0.7604270969475411,6.192202048636994
7.0,69.506174520848,19.438647609174907,0.7650339520201977,6.248482148296884
8.0,65.29312832618143,20.081934515771923,0.7657216665814641,6.259558697874599
9.0,61.63135403188971,20.278693002178873,0.7663826984821924,6.270251368059735
10.0,58.45634174239594,20.14091828990234,0.7670170097556279,6.280554425116562
11.0,55.70869151148142,19.759071101249695,0.7676245644416223,6.290462301587013
12.0,53.34031791231819,19.20413259382213,0.7682053284251592,6.299969602127374
13.0,51.31590640362624,18.53031559308639,0.768759269280664,6.309071109111584
14.0,49.59455434247102,17.794708923092546,0.7692863561251236,6.317761788271994
15.0,48.122631335161856,17.060177902285883,0.7697865594771778,6.326036794121884
16.0,46.86423283394871,16.363898854774263,0.7702598511192671,6.333891475266634
17.0,45.79025449945011,15.729071369947405,0.7707062039709478,6.341321379775171
18.0,44.870694850831775,15.172436138366404,0.7711255919689998,6.348322259707023
19.0,44.07065753323378,14.707825728563622,0.7715179899480579,6.354890076874385
20.0,43.34838415491295,14.347801146345915,0.7718833735452625,6.36102100643718
21.0,42.657660816954696,14.101834352306135,0.7722217190893124,6.366711442493798
22.0,41.952341836595714,13.974065558863485,0.7725330035215947,6.3719580014974975
23.0,41.1894621662884,13.963628703952038,0.7728172042984207,6.3767575271029315
24.0,40.332847019599065,14.064566057461414,0.7730742993322637,6.381107093449036
25.0,39.35713065243363,14.265478552230759,0.773304266903625,6.385004009683494
26.0,38.250854199088096,14.549295594165823,0.7735070856121948,6.388445822226267
27.0,37.018395892488435,14.893379635456302,0.773682734329333,6.391430319205942
28.0,35.679334998628875,15.270815107491906,0.7738311921481317,6.3939555326412165
29.0,34.265308446353636,15.652708942338785,0.77395243834326,6.396019741233027
30.0,32.81540806250244,16.01082319026433,0.7740464523493371,6.397621473450635
31.0,31.371061714224513,16.32018979323685,0.7741132137411609,6.398759508761942
32.0,29.9712714535035,16.561410416613136,0.7741527022161068,6.399432880203991
33.0,28.648897773384842,16.722292668519998,0.7741648976015877,6.399640876016387
34.0,27.428377666788226,16.79851217883806,0.7741497798523348,6.399383040085436
35.0,26.32496044720905,16.793231145115307,0.7741073290689864,6.398659174537138
36.0,25.345328834010274,16.715676967976144,0.7740375255033135,6.39746933988205
37.0,24.489092131745416,16.579245929039544,0.7739403496107574,6.395813853906971
38.0,23.75034042691937,16.399608141122933,0.7738157820912481,6.393693294024991
39.0,23.119097502334213,16.19303804927165,0.7736638039158755,6.391108496650878
40.0,22.58248944624031,15.97519395206713,0.7734843963938955,6.388060555414479
41.0,22.125553548992755,15.760285991437867,0.7732775412429355,6.384550822139706
42.0,21.73188489555791,15.560575029067298,0.7730432206456251,6.380580905159134
43.0,21.38419979094444,15.386100325014027,0.7727814173418477,6.376152667041288
44.0,21.0649474075965,15.244509782847631,0.7724921147193171,6.371268224800508
45.0,20.75705991320943,15.140987039919,0.7721752968973666,6.365929946667517
46.0,20.44476540564319,15.078210030797448,0.7718309488460011,6.360140449623021
47.0,20.114516082038445,15.056343463898747,0.7714590564969315,6.353902598409559
48.0,19.755837137163677,15.073133039446983,0.7710596068576809,6.347219501426671
49.0,19.36200314372924,15.12408577112013,0.7706325881451945,6.340094507887978
50.0,18.93046028898161,15.202775138553452,0.7701779899159013,6.332531205145875
51.0,18.462828124758875,15.301289296916998,0.769695803221712,6.324533414510805
52.0,17.964549351389394,15.410799981489257,0.7691860207579458,6.316105187651751
53.0,17.44416779487522,15.522220670024298,0.7686486370138547,6.30725080253353
54.0,16.91234154433239,15.62689681201628,0.7680836484673416,6.2979747590954105
55.0,16.380726496679152,15.717255789686211,0.7674910537302395,6.288281774838747
56.0,15.860871270023177,15.787340505094038,0.7668708537382011,6.278176779788942
57.0,15.363260538027394,15.833171121507428,0.7662230519387373,6.26766491156128
58.0,14.89658646902889,15.852904687429456,0.7655476544931018,6.256751510466531
59.0,14.467277407090476,15.846782583394047,0.7648446704738816,6.245442114209422
60.0,14.079301085504744,15.81689461865825,0.7641141120750498,6.233742452237361
61.0,13.734172343292476,15.766812958016137,0.7633559948264995,6.2216584405679765
62.0,13.431160720353843,15.70114805512116,0.7625703377897237,6.2091961745836945
63.0,13.167582592015357,15.625101734694814,0.7617571638155798,6.196361924189768
64.0,12.939158113284654,15.544033778459113,0.7609164997468058,6.183162127531142
65.0,12.740417369156429,15.463084180848087,0.7600483767100153,6.1696033846792595
66.0,12.565098685442727,15.386863388355216,0.759152830301226,6.155692451262106
67.0,12.40657353625224,15.319214389650089,0.7582299008500962,6.141436232032827
68.0,12.258260847002104,15.263045571898578,0.7572796336703914,6.126841774342405
69.0,12.11402289472414,15.220232415305782,0.756302079314533,6.111916261536504
70.0,11.968525835880861,15.191583837718536,0.7552972938319121,6.096667006287669
71.0,11.817538046082053,15.176872053844095,0.7542653390269162,6.0811014437701765
72.0,11.658150975784267,15.174921258768403,0.7532062827262965,6.065227124992803
73.0,11.488909358899498,15.183751352966661,0.7521201990742803,6.049051710512604
74.0,11.309791137623366,15.200777561117345,0.7510071687708052,6.0325829628400465
75.0,11.122095857639335,15.223035379707817,0.7498672792908428,6.0158287392399235
76.0,10.92824007870134,15.247423908319435,0.7487006252535436,5.998796986337584
77.0,10.731431981466606,15.270955258036329,0.7475073086807749,5.981495732252313
78.0,10.53535278174966,15.290978201162316,0.7462874392353767,5.963933080069765
79.0,10.343795511229427,15.305360948283342,0.7450411345121277,5.946117201048837
80.0,10.160336270819386,15.31261839562421,0.7437685203138208,5.928056327892462
81.0,9.988057182163878,15.311975889936818,0.7424697309261822,5.909758748059574
82.0,9.82934389494312,15.303367045827844,0.7411449093782138,5.8912327970831395
83.0,9.685753416392144,15.287375849442217,0.7397942077262679,5.872486852103535
84.0,9.557956809283274,15.265130810273986,0.7384177874505538,5.85352932560199
85.0,9.445797421021929,15.238151373519933,0.7370158193480679,5.834368658069726
86.0,9.34831672791373,15.208207353545527,0.7355884842445731,5.815013312676808
87.0,9.263964661333173,15.177146883271549,0.7341359730076115,5.7954717686715265
88.0,9.19071639658021,15.146749012559434,0.7326584868626568,5.775752515154489
89.0,9.126268019871153,15.118595816871299,0.7311562376006853,5.755864045099931
90.0,9.068226559174935,15.093971254943911,0.729629447835184,5.735814849517907
91.0,9.014299273896265,15.073790071812093,0.7280783512985359,5.715613411551024
92.0,8.96245008353652,15.058560842180352,0.726503193089641,5.695268200761302
93.0,8.9110267240807,15.048388259792743,0.7249042298369651,5.674787667615197
94.0,8.858848711358537,15.043004070911458,0.7232817298831706,5.654180238209531
95.0,8.805244532149196,15.041821887382792,0.721635973560208,5.633454308929333
96.0,8.750088305055565,15.044018164525697,0.7199672531062469,5.612618242048695
97.0,8.693725953154315,15.048619100821934,0.7182758742380745,5.5916803560296096
98.0,8.636867862813688,15.054605289250416,0.716562153611439,5.5706489302954765
99.0,8.580508063606084,15.060994860696653,0.7148264216714217,5.549532191105236
100.0,8.525788262642335,15.066934147295067,0.7130690216350745,5.528338310898352
101.0,8.473883990509943,15.071751460746487,0.7112903094152685,5.50707540520435
102.0,8.425881162460367,15.075002298424739,0.7094906541671165,5.4857515267295724
103.0,8.382673141889185,15.076493465770339,0.7076704387172441,5.464374659541396
104.0,8.344908376674836,15.076262282243507,0.7058300590016617,5.4429527184593285
105.0,8.312953865272291,15.074550407920807,0.7039699239050974,5.421493547124352
106.0,8.286837118066735,15.071780599334158,0.7020904573311918,5.400004903309592
107.0,8.266343797262337,15.068467726130555,0.7001920949819317,5.378494473420106
108.0,8.251000026017127,15.065192175617051,0.6982752888555644,5.356969844931211
109.0,8.240167695256483,15.062521207085199,0.6963405017198049,5.335438534616385
110.0,8.23310106569568,15.060972036130917,0.6943882117849871,5.313907958908683
111.0,8.229011851464612,15.060957627122875,0.6924189111126207,5.292385439235933
112.0,8.227138026360004,15.06278020209763,0.6904331043069896,5.270878209678884
113.0,8.226840203653717,15.066595378207156,0.6884313111556913,5.24939339602808
114.0,8.227572729747829,15.072427794324307,0.686414064209525,5.227938028463235
115.0,8.228966892005696,15.080186387422273,0.6843819090305582,5.206519039856077
116.0,8.23084367245862,15.089669738133056,0.6823354070560851,5.185143239496334
117.0,8.233155991763578,15.100623196102429,0.6802751293705435,5.1638173600032395
118.0,8.236012155248051,15.112748044268601,0.6782016649497145,5.1425479877606195
119.0,8.239635199313746,15.125746472114248,0.6761156112875438,5.121341640019677
120.0,8.24425925459624,15.13935054539668,0.6740175826243556,5.100204686063499
121.0,8.250201823482858,15.153335731984617,0.6719082032937845,5.079143413026641
122.0,8.257701095377866,15.167547176394374,0.669788111735322,5.058163972649825
123.0,8.266998988592418,15.181900752404358,0.6676579584306891,5.037272415453589
124.0,8.278226517002903,15.19637567527957,0.6655184051353124,5.016474673577844
125.0,8.291460460075532,15.211023212650854,0.6633701271127269,4.995776559608984
126.0,8.306656224083639,15.225924389664085,0.6612138071203223,4.97518379398786
127.0,8.323728647091494,15.241211276371263,0.6590501478482004,4.954701911274817
128.0,8.342557289599165,15.257020433293324,0.6568798540609909,4.934336422700519
129.0,8.362846564197499,15.273472941283256,0.6547036422866196,4.914092682000068
130.0,8.384449064077774,15.29067459918289,0.65252224804171,4.893975862711156
131.0,8.40720651867837,15.308726805868865,0.6503364077044457,4.873991127643051
132.0,8.43076015159914,15.327668025911448,0.6481468657174377,4.85414349895799
133.0,8.45501669068204,15.347495762200278,0.6459543859849743,4.83443779166831
134.0,8.479932286355183,15.368206271474476,0.6437597343308611,4.814878804074825
135.0,8.505283304598766,15.389744608152808,0.641563681071384,4.795471224123729
136.0,8.531048997812114,15.41203334703492,0.6393670132797623,4.776219528860183
137.0,8.557275854015955,15.434998459176553,0.6371705204405707,4.757128172059509
138.0,8.583863090472503,15.4585442636034,0.6349749953142559,4.738201495763782
139.0,8.61087111767905,15.482600168237932,0.6327812461904462,4.719443625969924
140.0,8.638405314177504,15.507102461443205,0.630590083490679,4.700858667223225
141.0,8.666441170512174,15.531983031034905,0.6284023171989764,4.682450660396775
142.0,8.69495671603424,15.557208119658693,0.6262187692895839,4.66422340452199
143.0,8.724002872355765,15.582759161807253,0.6240402664304706,4.646180644116996
144.0,8.753569278798585,15.608617591037646,0.6218676337794466,4.628326108654231
145.0,8.783555894374004,15.634777486736196,0.6197017009861321,4.610663312659139
146.0,8.813956404553187,15.661243254148763,0.617543305480751,4.593195636172349
147.0,8.844765895618849,15.688019376132383,0.6153932847959172,4.575926456897426
148.0,8.87589467220696,15.715105449601342,0.6132524749960314,4.558859044192914
149.0,8.907257611056474,15.742496288153545,0.6111217147017677,4.541996511186492
150.0,8.938787146701557,15.77018302953552,0.6090018429410469,4.525341904200956
151.0,8.970427877595021,15.798149505893017,0.606893699268028,4.508898172961895
152.0,9.00211115781899,15.826374915597412,0.6047981210195498,4.49266817830686
153.0,9.033816501221914,15.854826136697884,0.602715945893624,4.476654620736239
154.0,9.065528344223809,15.88346917439229,0.6006480116495428,4.4608601883047
155.0,9.097206438329541,15.912271867235562,0.5985951510085876,4.44528747605086
156.0,9.128819668667726,15.941198225422932,0.5965581933304577,4.429938956437156
157.0,9.16034818216779,15.970213207755064,0.5945379650289966,4.4148170271371745
158.0,9.191792247919219,15.999291057306413,0.5925352899829897,4.399924041034268
159.0,9.223129157193407,16.028401644812657,0.5905509830172978,4.385262186094479
160.0,9.254312264112292,16.057505638674044,0.5885858557702126,4.370833575838477
161.0,9.285300865994353,16.0865658179899,0.5866407197530418,4.356640324086477
162.0,9.316142900108982,16.115579813044775,0.5847163772566615,4.342684470065894
163.0,9.346799886955292,16.144522408342585,0.582813615369187,4.328967864670937
164.0,9.377192932569983,16.1733550822353,0.5809332197670756,4.315492332207509
165.0,9.407267817816027,16.202046834900916,0.5790759752277005,4.302259692640266
166.0,9.437092351631254,16.230604521207997,0.5772426506536353,4.289271653834367
167.0,9.46660455286699,16.258996457642283,0.5754340017892966,4.27652980463907
168.0,9.495728933775359,16.287186698281538,0.5736507839351763,4.264035728322991
169.0,9.524529539644131,16.3151796056499,0.571893741651485,4.251790949623352
170.0,9.552952256638925,16.34294624876784,0.5701635997723206,4.239796864588983
171.0,9.580898408634228,16.370444849810283,0.5684610810990743,4.228054854040046
172.0,9.608439673551263,16.397677193272386,0.5667869007207453,4.216566265354085
173.0,9.635554891823386,16.424621744767045,0.5651417490342812,4.205332319674535
174.0,9.66212748077676,16.45123269881288,0.563526311800901,4.194354212102795
175.0,9.688209358105608,16.477505665673664,0.5619412701292634,4.183633121623557
176.0,9.713833083909874,16.503433399084777,0.5603872776640749,4.17317011379742
177.0,9.73886680488353,16.52896915374757,0.5588649791576618,4.162966214607969
178.0,9.763317723287521,16.55409938237824,0.5573750170068895,4.153022443691365
179.0,9.787284244034652,16.57883428133442,0.5559180064212925,4.1433397282560165
180.0,9.810623376408476,16.60312787635155,0.5544945476955856,4.133918941115595
181.0,9.833291507432007,16.62695734873462,0.5531052402119137,4.12476095342457
182.0,9.855443244426263,16.65034741056383,0.5517506589968192,4.115866567504634
183.0,9.87693833007557,16.673255440564354,0.5504313572118829,4.10723651886341
184.0,9.897658633322672,16.695643547341792,0.5491478857016411,4.098871537335009
185.0,9.91769098259535,16.717554513457788,0.5479021798603725,4.090754518344478
186.0,9.935782071532122,16.740123229685658,0.5467459912341087,4.082245334038687
187.0,9.954453853276075,16.760674626932808,0.5455576318088797,4.074875114401723
188.0,9.97604099943498,16.777602528307344,0.5442702437059843,4.0694713716478725
189.0,10.001201674713005,16.79087542427085,0.5428886366846738,4.065964997254516
190.0,10.031946560937486,16.799157036334375,0.5413613052467563,4.064985799377942
191.0,10.066456076518753,16.80496119720603,0.5398130646144605,4.064985716000919
192.0,10.102174462307698,16.810490046579446,0.5383237283794474,4.064985716000921
193.0,10.138076236824013,16.81625921716561,0.5368940425344126,4.064985716000921
194.0,10.17304414440503,16.8228168476667,0.5355247148130795,4.064985716000921
195.0,10.2059722396841,16.830646724204993,0.5342164214514857,4.064985716000921
196.0,10.236299076459062,16.839724821124232,0.5329698078783225,4.064985716000921
197.0,10.263788457289317,16.849831622796906,0.5317854900428981,4.064985716000921
198.0,10.288405036742232,16.860674311418048,0.5306640447276553,4.064985716000921
199.0,10.310279510461982,16.871914289097013,0.5296060277381713,4.064985716000921
200.0,10.329679015215257,16.88322852661103,0.5286119514825419,4.064985716000921
201.0,10.346798806526477,16.8943086078051,0.5276823019704515,4.064985716000921
202.0,10.362033430659434,16.904964482348404,0.5268175369944215,4.064985716000921
203.0,10.37547533475051,16.915045300270314,0.5260180687519203,4.064985716000921
204.0,10.387419827582628,16.924483798263587,0.5252842980838542,4.064985716000921
205.0,10.397946320042655,16.933281027432614,0.5246165688889756,4.064985716000921
206.0,10.406963740605757,16.941428780646692,0.5240152082161758,4.064985716000921
207.0,10.414685930779939,16.949023240730018,0.5234805131347683,4.064985716000921
208.0,10.420944981646086,16.95610097823256,0.523012729213241,4.064985716000921
209.0,10.42569007195853,16.962728413014514,0.5226120947263829,4.064985716000921
210.0,10.428981514495701,16.96898822303163,0.5222787960138336,4.064985716000921
211.0,10.430593455865997,16.974886510953652,0.5220129897080467,4.064985716000921
212.0,10.430618129926877,16.980494540318123,0.5218148155942688,4.064985716000921
213.0,10.428967636406478,16.985813323963104,0.5216843546421887,4.064985716000921
214.0,10.425529175563574,16.99083279139695,0.5216216772444179,4.064985716000921
215.0,10.420446598502737,16.995588698055933,0.521626814018984,4.064985716000921
216.0,10.413563342457735,17.000034211312002,0.5216997520075776,4.064985716000921
217.0,10.404953971422499,17.004174789988976,0.5218404696122935,4.064985716000921
218.0,10.394662915759291,17.00800391128974,0.5220488871696386,4.064985716000921
219.0,10.382562470884162,17.011473629943197,0.5223249052069749,4.064985716000921
220.0,10.368842473986488,17.014610835978953,0.522668398039586,4.064985716000921
221.0,10.353409897576409,17.017378776849345,0.5230791859029624,4.064985716000921
222.0,10.336257283852893,17.019760773443906,0.523557081380248,4.064985716000921
223.0,10.317529346048078,17.021777914442506,0.5241018479585765,4.064985716000921
224.0,10.297071044359338,17.02338355849164,0.5247132160608197,4.064985716000921
225.0,10.275034755614929,17.02460164998532,0.5253909015058219,4.064985716000921
226.0,10.251401168899843,17.02541773226551,0.5261345612926912,4.064985716000921
227.0,10.226084271162213,17.02580197488512,0.5269438401563467,4.064985716000921
228.0,10.199274300572164,17.025786274423606,0.5278183460248423,4.064985716000921
229.0,10.170841907554411,17.025329664454837,0.5287576415879996,4.064985716000921
230.0,10.140854026740042,17.024434522950404,0.5297612810161358,4.064985716000921
231.0,10.109395339026998,17.02310574424201,0.5308287629382642,4.064985716000921
232.0,10.076336856188139,17.021300023818146,0.531959564167168,4.064985716000921
233.0,10.04187017503529,17.01904402527063,0.5331531374934719,4.064985716000921
234.0,10.005932942658447,17.016307699943837,0.5344088824016808,4.064985716000921
235.0,9.968507754612869,17.01307038150624,0.5357261899325437,4.064985716000921
236.0,9.929765543418569,17.009352073432538,0.5371044054226288,4.064985716000921
237.0,9.889574516069038,17.005106923970185,0.5385428406723906,4.064985716000921
238.0,9.84799544007754,17.00033127974964,0.5400409010167941,4.064984352154306
239.0,9.805124926644934,16.995044159976274,0.5415983482515153,4.0649754691130875
240.0,9.763956475132028,16.986466512282522,0.5430871480709005,4.066504552053181
241.0,9.726907867211645,16.973227395928422,0.5444499580055571,4.070268120585548
242.0,9.694201469105186,16.955867034020425,0.545716251312103,4.0759117665692175
243.0,9.666670622668343,16.934239874192464,0.5468826918689702,4.083481369163178
244.0,9.642156005796558,16.910896952035742,0.5480649753146364,4.0915641548447015
245.0,9.61863737803218,16.88746889746478,0.5493059577780578,4.099627459336848
246.0,9.595691423889814,16.86402698544862,0.5505823338966097,4.107949251458776
247.0,9.572390961822851,16.841082081174083,0.5518935161598746,4.116529170826575
248.0,9.547908096681537,16.818993777466137,0.5532389448262408,4.125366312017874
249.0,9.521930709875244,16.79764813656792,0.5546180469992733,4.134459734102921
250.0,9.494350397711255,16.776843248898384,0.5560302335357948,4.143808448056961
