Time,J,A,S,tau
0.0,100.0,10.0,0.8466579685679458,1.9743304394642438
1.0,85.71646596427287,11.141494827273185,0.7809946411067291,1.8549043924034136
2.0,73.45442578625845,12.076188820929184,0.7343105894214892,1.763759664417471
3.0,62.34831771568807,13.289748308754671,0.7343730016823645,1.763759664417471
4.0,52.92214143446861,14.085068825957483,0.7344839218008111,1.763759664417471
5.0,45.10756165606199,14.46804835015917,0.7346432680406799,1.763759664417471
6.0,38.683013053924824,14.5824760494986,0.734850923854032,1.763759664417471
7.0,33.38838835721759,14.57109848665551,0.7351067380150036,1.763759664417471
8.0,28.99371908027394,14.526058118054173,0.7354105247850521,1.763759664417471
9.0,25.320620555859,14.488906153308607,0.7357620641147243,1.763759664417471
10.0,22.23586282087715,14.470175843775486,0.7361611018886534,1.763759664417471
11.0,19.638779574745634,14.466797747148911,0.7366073502154938,1.763759664417471
12.0,17.450403907960613,14.472455803621212,0.7371004877222267,1.763759664417471
13.0,15.606249806198623,14.482052001181367,0.7376401599317425,1.763759664417471
14.0,14.052144979250441,14.492696877455458,0.7382259796543076,1.763759664417471
15.0,12.742060164109489,14.503237558157707,0.7388575273951552,1.763759664417471
16.0,11.636836214411634,14.51348314964214,0.7395343518394845,1.763759664417471
17.0,10.703298059663828,14.523612335642428,0.7402559703533751,1.763759664417471
18.0,9.913496673831215,14.533850407237074,0.741021869513674,1.763759664417471
19.0,9.243984843111223,14.54434844138273,0.741831505680138,1.763759664417471
20.0,8.675130672544523,14.555170797415661,0.742684305613979,1.763759664417471
21.0,8.19052622065603,14.566321759289261,0.7435796670973787,1.763759664417471
22.0,7.7764402339619005,14.57777566340918,0.7445169596336275,1.763759664417471
23.0,7.421387173275923,14.589497147312734,0.7454955251257165,1.763759664417471
24.0,7.11574316989848,14.601451322210572,0.7465146786664463,1.763759664417471
25.0,6.851457855958186,14.613606700649846,0.747573709243091,1.763759664417471
26.0,6.621773346674938,14.625935463046703,0.7486718805814857,1.763759664417471
27.0,6.421036724902005,14.638411842116836,0.7498084319848725,1.763759664417471
28.0,6.244502948482564,14.65101161166406,0.7509825791772545,1.763759664417471
29.0,6.088203360726018,14.663711068902462,0.7521935151360161,1.763759664417471
30.0,5.948808696991366,14.6764871669769,0.753440411142698,1.763759664417471
31.0,5.823530098655371,14.689317516032373,0.7547224176166443,1.763759664417471
32.0,5.710030892642152,14.702180616691304,0.7560386650742772,1.763759664417471
33.0,5.606356909266256,14.71505570860421,0.7573882651642116,1.763759664417471
34.0,5.510870248810865,14.727923296739693,0.7587703116318089,1.763759664417471
35.0,5.422201138124731,14.740765011877208,0.7601838814095195,1.763759664417471
36.0,5.339202890736188,14.75356400955544,0.7616280355732831,1.763759664417471
37.0,5.260917885635682,14.76630481337727,0.7631018204824893,1.763759664417471
38.0,5.186547705127537,14.778973123143919,0.7646042688522765,1.763759664417471
39.0,5.115425115673556,14.791556641907308,0.7661344008151592,1.763759664417471
40.0,5.046996764667149,14.804044040887208,0.7676912248827489,1.763759664417471
41.0,4.980801034279629,14.81642670995411,0.7692737392562351,1.763759664417471
42.0,4.916455218260094,14.828697692286406,0.7708809331865476,1.763759664417471
43.0,4.85364595485376,14.840849033689183,0.7725117873154405,1.763759664417471
44.0,4.792113720105119,14.85287946477461,0.7741652755024252,1.763759664417471
45.0,4.731643789286757,14.864781914832582,0.7758403658595646,1.763759664417471
46.0,4.672066053922102,14.876560657579155,0.7775360216827645,1.763759664417471
47.0,4.613240504425587,14.888216906208786,0.7792512025279623,1.763759664417471
48.0,4.555052741452188,14.899751623695563,0.780984865670452,1.763759664417471
49.0,4.497417550861626,14.911170987476474,0.7827359668883296,1.763759664417471
50.0,4.440266446595329,14.922481964740326,0.7845034617323383,1.763759664417471
51.0,4.3835476286862995,14.933692782031363,0.7862863065958836,1.763759664417471
52.0,4.327223377233818,14.944813329745218,0.788083459802129,1.763759664417471
53.0,4.271267409642148,14.955855034229865,0.7898938826780542,1.763759664417471
54.0,4.2156630949360006,14.966831052568244,0.7917165405209355,1.763759664417471
55.0,4.160406412859836,14.977761130442563,0.7935504015278272,1.763759664417471
56.0,4.105493440583969,14.988658577368605,0.7953944459259894,1.763759664417471
57.0,4.050917135531993,14.999532141262621,0.79724765799214,1.763759664417471
58.0,3.996684159824206,15.010402790480546,0.799109024070672,1.763759664417471
59.0,3.94281388991613,15.021295903579768,0.8009775499316236,1.763759664417471
60.0,3.8893216562083737,15.032230404554587,0.8028522479292548,1.763759664417471
61.0,3.8362116983049104,15.043227730557033,0.8047321326303766,1.763759664417471
62.0,3.7835009331648624,15.054313633714528,0.8066162426156565,1.763759664417471
63.0,3.731225619194382,15.065513312111017,0.8085036267460767,1.763759664417471
64.0,3.6793926344032535,15.076849416597158,0.8103933359382138,1.763759664417471
65.0,3.628004309108797,15.088346688327864,0.8122844484397784,1.763759664417471
66.0,3.5771127698181195,15.100035845198722,0.8141760570869976,1.763759664417471
67.0,3.5267486641436783,15.111945255032841,0.8160672599021886,1.763759664417471
68.0,3.4769036830117566,15.124098739549485,0.8179571780096019,1.7637596644680076
69.0,3.42813072603737,15.136008255868893,0.819817941660643,1.7640491460089134
70.0,3.3873298312611375,15.141785786467326,0.8213362957333071,1.7680167188197398
71.0,3.35648651592345,15.141526131967385,0.8225060627273935,1.775828923993067
72.0,3.328937793607793,15.142373739221007,0.8236428720846439,1.7841083587285511
73.0,3.301530733185689,15.146511271174488,0.8247803354628095,1.7924852223101866
74.0,3.2731558761475434,15.153936913199265,0.8259181006437664,1.800957318952655
75.0,3.243861408372218,15.163805482200244,0.8270557380761019,1.809523309940457
76.0,3.2140644124329203,15.175271014585618,0.8281928241413783,1.8181818117500648
77.0,3.1841682920455536,15.18775051201097,0.8293289412301674,1.8269313953713744
78.0,3.1544653426538574,15.200930001763915,0.8304636779186245,1.835770586060999
79.0,3.125120157894082,15.214691434144285,0.8315966290965026,1.84469786257689
80.0,3.0962177116143006,15.229032744604638,0.8327273967069851,1.8537116550251789
81.0,3.0677760558137646,15.24399328172904,0.8338555888742115,1.8628103468322141
82.0,3.039795545220656,15.259625770286734,0.8349808208931983,1.8719922714435009
83.0,3.0122704934665157,15.27597835169503,0.8361027150555725,1.8812557131248084
84.0,2.985196623704996,15.293089953950757,0.8372209008540162,1.8905989057421368
85.0,2.958572988468521,15.310991037238937,0.8383350150704676,1.900020032297371
86.0,2.932400317971042,15.329705804237815,0.8394447018617989,1.9095172242870446
87.0,2.9066819828878603,15.349254813569697,0.8405496129144924,1.919088560931594
88.0,2.8814219876181424,15.369656488219903,0.8416494075019971,1.928732068681983
89.0,2.856624419767426,15.390928052873273,0.842743752554981,1.938445720714411
90.0,2.8322924532276335,15.413085831468871,0.843832322739117,1.948227436230167
91.0,2.8084289309391473,15.43614544982522,0.8449148005461075,1.9580750797648487
92.0,2.7850361444455833,15.460121755323508,0.8459908763113532,1.9679864608484994
93.0,2.762115606568749,15.485028678662662,0.8470602482471633,1.9779593335032164
94.0,2.7396678493763456,15.510879099681926,0.8481226224921752,1.9879913955796618
95.0,2.7176930781060027,15.537684861676619,0.8491777131532963,1.9980802881916477
96.0,2.6961910397759126,15.565456693171605,0.8502252422928648,2.008223595409071
97.0,2.675160939389441,15.59420415061584,0.8512649399362846,2.018418843770078
98.0,2.6546012601723574,15.623935558436113,0.8522965440677376,2.0286635018297807
99.0,2.6345099456225425,15.654658008202178,0.8533198006411997,2.0389549795940964
100.0,2.614884646800311,15.686377372300718,0.8543344635575968,2.049290628167101
101.0,2.59572257938576,15.719098263213601,0.8553402946263144,2.0596677394398526
102.0,2.5770205036915885,15.752824009108705,0.8563370635386053,2.0700835456698043
103.0,2.558774676931207,15.787556627456032,0.857324547822872,2.0805352191639446
104.0,2.540981007043922,15.823296827936483,0.8583025328075612,2.0910198718931277
105.0,2.523634763971025,15.860043951988146,0.8592708115629968,2.1015345551967393
106.0,2.506731107229388,15.897796031419395,0.860229184851702,2.112076259477664
107.0,2.4902647073545685,15.936549717728136,0.861177461054101,2.1226419139784043
108.0,2.4742299825054186,15.976300301210431,0.8621154560962853,2.1332283865887556
109.0,2.458620931456768,16.017041671773775,0.863042993379134,2.1438324835843776
110.0,2.4434312762268626,16.05876632688805,0.8639599036878991,2.1544509495493114
111.0,2.4286544079131445,16.101465350216525,0.8648660251173587,2.165080467137565
112.0,2.4142834281432983,16.14512840779413,0.8657612029649913,2.1757176571170684
113.0,2.4003111716049896,16.18974373898631,0.8666452896520148,2.1863590781678024
114.0,2.386730201101943,16.23529814887972,0.8675181446022469,2.1970012270584043
115.0,2.3735328248852103,16.281777000132625,0.8683796341589087,2.2076405384933797
116.0,2.360711155642493,16.32916421664055,0.8692296314514744,2.2182733854362846
117.0,2.34825696523301,16.37744225592393,0.8700680163055926,2.228896079042032
118.0,2.3361620422499545,16.426592153557674,0.8708946751061024,2.2395048690902706
119.0,2.3244183471684674,16.476593542208512,0.8717095006856522,2.250095944193433
120.0,2.313016616708627,16.527424460856672,0.872512392200368,2.2606654320950033
121.0,2.3019479515585566,16.579061560166007,0.8733032550049847,2.2712094001734235
122.0,2.2912033701751424,16.631480046587065,0.8740820005172981,2.281723856001798
123.0,2.280773661114302,16.684653675669153,0.8748485460937889,2.2922047478793157
124.0,2.2706474570389674,16.738554560862628,0.8756028146395463,2.302647968266056
125.0,2.260785989955775,16.793150276828804,0.876344732922845,2.313049371522011
126.0,2.2511957338287143,16.848411447069314,0.8770742389675661,2.323404694279987
127.0,2.241900571799156,16.904310337255865,0.8777912732849763,2.3337096468595044
128.0,2.2329010221807675,16.960816319345728,0.8784957768579765,2.3439599360321712
129.0,2.224135416597267,17.017888451261967,0.8791877000410863,2.354151173375716
130.0,2.2156136840324145,17.075491587795895,0.879867001283374,2.3642788805498394
131.0,2.207352807156036,17.133591334028203,0.880533639274632,2.3743385762377294
132.0,2.1993265914923485,17.192147877540396,0.8811875748694237,2.3843257621086877
133.0,2.191503381780006,17.251117684863164,0.8818287796896273,2.3942358278334543
134.0,2.1838928972795846,17.31046087916426,0.882457228587371,2.4040641238570677
135.0,2.176502339192832,17.370137234836857,0.8830728966938098,2.413805998381547
136.0,2.169306820136183,17.430101344209405,0.883675765068469,2.4234567475248596
137.0,2.162290462867907,17.490307156709097,0.884265819415945,2.433011620861754
138.0,2.1554441993647666,17.550708013086822,0.8848430486100256,2.442465838067743
139.0,2.148758886632601,17.61125633916027,0.8854074450567413,2.4518145880090945
140.0,2.1422252514187994,17.67190357840749,0.8859590045081053,2.4610530323912756
141.0,2.1358341581465288,17.732600150565386,0.8864977259191034,2.470176308988683
142.0,2.129576582221292,17.793295457767897,0.8870236112680221,2.4791795355923165
143.0,2.12344365674067,17.85393790608681,0.8875366654075102,2.4880578138713227
144.0,2.1174267030968177,17.91447495370442,0.8880368958866567,2.496806233675162
145.0,2.1115172417773924,17.97485315745176,0.8885243127939081,2.5054198774536194
146.0,2.1057070166828304,18.035018232718958,0.8889989285845679,2.5138938249530023
147.0,2.09998800551365,18.094915110314467,0.8894607579192393,2.522223158127625
148.0,2.094352439574174,18.15448800024376,0.8899098174946626,2.5304029662697007
149.0,2.0887928141008265,18.213680454048486,0.8903461258802561,2.53842835137841
150.0,2.083301909550536,18.272435431965082,0.8907697033513717,2.546294433722858
151.0,2.0778727998365873,18.330695369678313,0.8911805717256033,2.5539963576395044
152.0,2.0724988759406506,18.388402249512534,0.8915787541984257,2.561529297507249
153.0,2.0671738527024,18.445497671723462,0.8919642751805771,2.568888463936428
154.0,2.0618917918963695,18.50192292998233,0.8923371601363633,2.576069110121198
155.0,2.0566471109642723,18.557619087590382,0.8926974354233626,2.5830665383732683
156.0,2.051434601282484,18.61252705704632,0.8930451281338442,2.589876106802344
157.0,2.0462494517345364,18.666587682275605,0.8933802659382918,2.5964932361406925
158.0,2.041087239250881,18.71974182006368,0.8937028769299248,2.6029134166923833
159.0,2.035943958043063,18.771930427197518,0.8940129894727445,2.6091322153759346
160.0,2.030816015851444,18.823094646431,0.8943106320512403,2.6151452828447392
161.0,2.02570026624924,18.87317589792383,0.8945958331239603,2.6209483606895874
162.0,2.0205939951433693,18.922115967819973,0.8948686209789349,2.626537288643121
163.0,2.0154949547045917,18.969857103418843,0.8951290235936271,2.631908011858186
164.0,2.0104013468779107,19.01634210437075,0.8953770684974178,2.637056588090873
165.0,2.0053118540964086,19.061514420598332,0.8956127826387471,2.641979194964861
166.0,2.0002256234573403,19.105318245742467,0.8958361922559364,2.6466721370222093
167.0,1.9951422912721912,19.14769861694857,0.8960473227524076,2.651131852875184
168.0,1.9900619689077825,19.188601509868164,0.8962461985770327,2.6553549220103987
169.0,1.9849852619400061,19.227973939711898,0.8964328431084272,2.6593380717231265
170.0,1.9799132541097884,19.2657640566011,0.8966072785458623,2.6630781835598802
171.0,1.974847527634378,19.301921247789473,0.89676952580377,2.6665722999251096
172.0,1.9697901350324778,19.33639623144868,0.8969196044140197,2.6698176300517322
173.0,1.9647436351966703,19.36914116066559,0.8970575324319727,2.672811556163112
174.0,1.9597110339706525,19.400109712866577,0.8971833263505874,2.675551638874487
175.0,1.9546958605335838,19.429257197004873,0.8972970010196659,2.6780356227779367
176.0,1.9497020475110445,19.456540634944883,0.8973985695717696,2.680261441206424
177.0,1.9447340820824173,19.481918873855374,0.8974880433567518,2.682227221078499
178.0,1.9397967883111336,19.505352655429668,0.8975654318788202,2.6839312870082486
179.0,1.9348955540432242,19.526804731803217,0.8976307427478702,2.6853721652337414
180.0,1.9300359583776547,19.546239918986004,0.8976839816243494,2.6865485873027417
181.0,1.9252242286309553,19.56362522867599,0.897725152193005,2.687459492794881
182.0,1.9204668503831026,19.578929916780528,0.897754256121206,2.688104032254394
183.0,1.9157708192306981,19.59212558678791,0.8977712930458128,2.688481568771287
184.0,1.9111434535933272,19.603186255232934,0.8977762605493957,2.6885916801395187
185.0,1.9065924426648293,19.61208842591075,0.8977691541597407,2.6884341593570196
186.0,1.9021259044553032,19.618811173187584,0.8977499673472733,2.6880090157042793
187.0,1.8977521178208263,19.623336177922383,0.8977186915319858,2.687316474494157
188.0,1.8934795105608453,19.62564780173933,0.8976753160915826,2.6863569775572462
189.0,1.889316826553611,19.625733167827512,0.8976198283864906,2.685131182631845
190.0,1.8852733196731666,19.623582226118543,0.8975522138044272,2.6836399610166386
191.0,1.8813584445360099,19.619187776714455,0.8974724557905397,2.681884396145686
192.0,1.8775818771727437,19.61254551035741,0.8973805359001105,2.679865780665741
193.0,1.873953534854767,19.60365405541877,0.897276433849789,2.677585614028185
194.0,1.8704827757407587,19.59251494823994,0.8971601275544892,2.675045600526733
195.0,1.867179719093188,19.57913280146676,0.8970315932224653,2.6722476454180746
196.0,1.864054670662999,19.563515254704676,0.8968908054294801,2.66919384992445
197.0,1.8611180815106876,19.54567298167661,0.8967377372041906,2.6658865063052777
198.0,1.858380518298227,19.525619702014417,0.8965723601139196,2.6623280933022673
199.0,1.8558517716086855,19.503372113421342,0.8963946443362327,2.6585212721263107
200.0,1.8535421677512747,19.478950044301833,0.8962045587812495,2.6544688815484685
201.0,1.8514623034308835,19.452376389907784,0.8960020712087031,2.6501739303283376
202.0,1.8496227811773762,19.423677064423337,0.8957871483381659,2.64563959080199
203.0,1.8480341073638464,19.392880972869357,0.8955597559629219,2.6408691928332626
204.0,1.8467058383484751,19.360019924498317,0.8953198590525043,2.6358662187540327
205.0,1.845648162763307,19.325128769161083,0.895067421913386,2.630634296514113
206.0,1.8448713645709103,19.288245266709936,0.8948024083225246,2.6251771911458452
207.0,1.8443855873115718,19.249410010797195,0.8945247816595351,2.6194987976706097
208.0,1.844200309626447,19.208666328533525,0.8942345050366469,2.613603134484106
209.0,1.844324806247827,19.166060295136877,0.8939315414554176,2.607494337235448
210.0,1.8447684306950172,19.121640678417126,0.8936158539667267,2.601176650682131
211.0,1.845540537911837,19.07545882722426,0.8932874058210507,2.5946544203509356
212.0,1.8466501124210042,19.0275685710474,0.8929461606207257,2.5879320862193356
213.0,1.8481057135170131,18.978026112156595,0.8925920824768524,2.581014174935113
214.0,1.849915851281662,18.92688997646705,0.8922251361817444,2.573905292933696
215.0,1.852088454292537,18.874220845074998,0.8918452873644224,2.5666101189852513
216.0,1.8546314145744534,18.82008150168621,0.8914525026678406,2.5591333971211903
217.0,1.8575521697825141,18.764536666574884,0.8910467499114857,2.5514799295875252
218.0,1.8608579917571224,18.707652899732324,0.8906279982643464,2.5436545698963857
219.0,1.8645557021810493,18.64949844125384,0.8901962184154276,2.5356622161764157
220.0,1.8686518584046587,18.590143090745517,0.8897513827465855,2.527507804536377
221.0,1.8731526176245832,18.529658051954474,0.8892934655079013,2.519196302723934
222.0,1.8780638219262717,18.468115791059052,0.8888224429902214,2.5107327038790532
223.0,1.8833909316954103,18.405589878333004,0.8883382937025975,2.502122020554474
224.0,1.8891390675969506,18.342154833725875,0.8878409985451181,2.493369278904166
225.0,1.895312976209846,18.277885963591274,0.8873305409867731,2.484479513112083
226.0,1.9019170549632785,18.212859198440036,0.8868069072384576,2.4754577600384824
227.0,1.9089553341783472,18.14715092551237,0.8862700864301806,2.4663090540900776
228.0,1.9164314951200425,18.080837822087677,0.885720070783835,2.457038422335386
229.0,1.9243488627004472,18.013996686079942,0.8851568557889442,2.4476508798360936
230.0,1.9327104198624818,17.946704267827542,0.8845804403747125,2.4381514252329435
231.0,1.941518808933492,17.87903710148228,0.8839908270836438,2.4285450365462085
232.0,1.9507763435640995,17.811071338254326,0.8833880222423794,2.4188366672249955
233.0,1.960485016844022,17.742882581436643,0.8827720361326251,2.409031242414201
234.0,1.970646512822214,17.67454572438252,0.8821428831602702,2.3991336554529097
235.0,1.9812622175628642,17.60613479170708,0.8815005820231474,2.3891487645958542
236.0,1.992333234636201,17.537722785666393,0.880845155877901,2.3790813899411845
237.0,2.0038603922730656,17.46938153550326,0.8801766325041771,2.3689363105864754
238.0,2.015844270357709,17.401181556264376,0.879495044468682,2.358718261962234
239.0,2.0282851931533505,17.333191907461494,0.8788004292854168,2.3484319333962937
240.0,2.0411832785216304,17.265480068576963,0.8780928295763916,2.338081965826362
241.0,2.0545384054315634,17.198111807875755,0.87737229322752,2.3276729497415034
242.0,2.0683502957870483,17.131151078287623,0.8766388735454905,2.3172094232457523
243.0,2.0826184390124447,17.06465989573155,0.8758926294086116,2.306695870345781
244.0,2.0973422249336133,16.998698259726538,0.875133625419903,2.296136719329596
245.0,2.1125208300120524,16.933324043577667,0.8743619320522701,2.28553634136657
246.0,2.1281533573242166,16.868592933700793,0.8735776257968674,2.27489904917782
247.0,2.1442388895886073,16.80455836298995,0.8727807893075422,2.2642290958618387
248.0,2.1607761250000093,16.741271394122627,0.8719715115288298,2.253530673967615
249.0,2.1777639080299025,16.678780741846122,0.8711498878466561,2.242807914443772
