Time,J,A,S,tau,r
0.0,1.0,1.0,0.980660174353374,12.048192771084336,0.0
1.0,6.953817729718135,4.369016808432045,0.9805540447651382,12.355976879249328,0.03469316699262197
2.0,23.483141347189502,7.6781365771195915,0.9804439409189027,12.663042767278704,0.03470930826258839
3.0,49.29046155936616,10.928917961871429,0.980329332840772,12.969288188972685,0.03472711084235466
4.0,83.23211700344132,14.122850158394927,0.9802096359370036,13.274617416098215,0.03474648714047364
5.0,124.2990328760801,17.26139775193326,0.9800842827642452,13.578932239386077,0.0347674400847761
6.0,171.5996981238021,20.345989390447848,0.9799526786565286,13.882134542206888,0.03478996586184607
7.0,224.3460134697193,23.37800396550812,0.9798142469086085,14.184129135180141,0.03481403842635971
8.0,281.84005240081683,26.358799022079754,0.9796683691802405,14.484818381639073,0.034839657044748056
9.0,343.46287864265645,29.289695157167284,0.9795144237484761,14.784105236996632,0.03486681513634289
10.0,408.6664905622076,32.17199475075354,0.9793517491607178,15.081889958379769,0.0348955195814529
11.0,476.962780838615,35.006917264609164,0.9791797283699375,15.378082934176744,0.03492572609527856
12.0,547.9185001490096,37.79572583085825,0.978997627046933,15.672579648705405,0.03495746490234745
13.0,621.1487398850109,40.539602774289236,0.9788047720081455,15.965285495761401,0.03499071657665999
14.0,696.3089157794374,43.23969566315586,0.9786003320654797,16.2561065771534,0.035025462096063956
15.0,773.0932837552024,45.89712706054225,0.978383947713599,16.544949114077433,0.03506168527034353
16.0,851.2275991251731,48.512991320470384,0.9781545951202067,16.831718300389394,0.035099375283479305
17.0,930.4674643452516,51.08837136813051,0.9779114486236318,17.116317226480827,0.03513852754638828
18.0,1007.1893629047848,57.512522697736216,0.977892929561718,17.246360365370037,0.03516983927938816
19.0,1073.999251379106,75.07230416458714,0.9776929924250094,17.206335846374028,0.035270908471285986
20.0,1127.342091648225,102.3240898019029,0.9774762475101696,17.151849587401745,0.03536733980051969
21.0,1160.3308638592564,138.68261040682938,0.9772438171852098,17.033008994211055,0.03548394182493875
22.0,1169.4899600952465,183.20531459523787,0.9769965081751919,16.868600384318587,0.03561204136516385
23.0,1157.9741405599282,232.5984294744546,0.9767352176007207,16.800044723509906,0.03569611532002641
24.0,1128.2962156634817,286.8007246473265,0.9764626994629881,16.749116184478112,0.03577592084056969
25.0,1084.2604260044097,344.979366697388,0.9761837932144871,16.704291175723558,0.03585456447372213
26.0,1029.2861064241602,406.237604375347,0.9759071668314381,16.66292981953921,0.035928736151447975
27.0,966.0224464705306,469.8323192754515,0.9756442667188552,16.62379023636719,0.03599597672612001
28.0,896.4391741235305,535.1844081644962,0.9754066122898224,16.58601553843981,0.03605598798551662
29.0,821.9963654557488,601.8396787611132,0.9751992445285484,16.548869750470338,0.036110052337766936
30.0,743.7810181883851,669.43472370294,0.9750150343897463,16.511603114949253,0.03616028168033068
31.0,662.59992329849,737.676818842257,0.9748320697929111,16.473424335661594,0.03620920224319233
32.0,579.0515904883438,806.3268837596013,0.9746189048139398,16.433457314914314,0.03625948114157139
33.0,493.57166081935844,875.1980820124415,0.9743471926866178,16.39047234742105,0.03631388210523114
34.0,406.4688069348655,944.1502987222697,0.974002875809986,16.342838970115125,0.03637464697915576
35.0,317.9000147273671,1013.1332793222159,0.9735902459974491,16.288012770754325,0.036442089011213485
36.0,231.0802741505901,1079.0231384457686,0.973126869920391,16.221230143523883,0.036512166788072016
37.0,151.15632337822387,1136.8463298733534,0.9726277632270579,16.12229079951297,0.03658168613144632
38.0,73.0212779739114,1191.9621202343892,0.972103128900237,15.888020145558556,0.03667929957478743
39.0,26.816433365478503,1214.5610760353072,0.9715588498148914,15.782837038634707,0.036746866005903205
40.0,-1.1300215424876556,1218.658468847349,0.9710076284226482,15.711529395431649,0.03681320557771202
41.0,-19.423050397797752,1213.0876375111934,0.97047675898894,15.651261000173854,0.03687478721254186
42.0,-31.63648255423921,1201.572545091933,0.9700038502327518,15.597143464531252,0.036927134473094876
43.0,-39.75892784950931,1186.2006181872946,0.9696100369998875,15.546320442698516,0.03697155578107218
44.0,-45.08904934273131,1168.334833954886,0.9692709778082303,15.496607153692679,0.037011781978087285
45.0,-48.519424690834136,1148.907869000006,0.9689155206269675,15.446013461888407,0.037052017262702776
46.0,-50.671033183404354,1128.5648610841495,0.9684643953103766,15.392372040763671,0.03709648453535865
47.0,-51.972556045391705,1107.7483419140863,0.9678802429733809,15.33273634749611,0.037148892964097784
48.0,-52.71637474473092,1086.757260365446,0.967180989477545,15.262538337491982,0.03720971456372585
49.0,-53.09935380967342,1065.790509593643,0.9664074826253746,15.171456282375797,0.03727233523501773
50.0,-53.38965100777836,1045.1151780744622,0.965590110174505,14.97912695039061,0.03734520819904755
51.0,-53.383349020644786,1024.5237351338642,0.9647414164128717,14.814706108718335,0.037412400724122406
52.0,-53.247794773958525,1004.1807096416964,0.9638766672127961,14.727527666743743,0.03747259631133025
53.0,-53.07484225491002,984.1731552516685,0.9630384988061165,14.657770081067236,0.03752795975430954
54.0,-52.88177414447288,964.5131156923253,0.9622895279224365,14.597028386333479,0.037572916311412026
55.0,-52.6750696161957,945.2016626972097,0.9616699830005464,14.541006580575763,0.03760938077610681
56.0,-52.45704569409067,926.2356800612625,0.9611287564388691,14.48672144477869,0.03764176788892794
57.0,-52.228584028436515,907.6109533901159,0.9605388443972868,14.431513343954727,0.03767468717150691
58.0,-51.990273066156746,889.32266355069,0.9597833900888947,14.372547756744963,0.0377125537234355
59.0,-51.74207777681813,871.3658632002915,0.9588339077454063,14.305983355020889,0.03775891389133964
60.0,-51.4840246364732,853.735529639316,0.9577404224732733,14.225570673544667,0.03781276429803756
61.0,-51.21619970028092,836.4268682373272,0.9565634379548504,14.113498535513845,0.03786658764599364
62.0,-50.98118178056153,819.4777708167978,0.9553337256535168,13.911322630956873,0.03792771191019855
63.0,-50.69600267143379,802.8004870706485,0.9540654261074399,13.791490086426167,0.037979450710028284
64.0,-50.397786580964095,786.4283066885632,0.9527858493088227,13.709271667440152,0.038029788860847354
65.0,-50.087283208766884,770.358165746406,0.9515607121462845,13.641867376973448,0.03807173768478424
66.0,-49.76381703809827,754.585377456137,0.9504798919634628,13.582685328701226,0.0381034814524264
67.0,-49.42640545018531,739.1053243124201,0.9495695575060082,13.527783707894585,0.038128330372465144
68.0,-49.073852357856005,723.913544373767,0.9487291352133325,13.47432290057588,0.038150324955486134
69.0,-48.70476010055121,709.0055230028968,0.9477818787194551,13.419811002111635,0.03817318456740634
70.0,-48.31749060260424,694.376871771154,0.946596264560386,13.36151683699489,0.038200473178489666
71.0,-47.91029417417002,680.0233465467711,0.9451600660988498,13.295818932576646,0.038235101180110406
72.0,-47.480936267586515,665.9406952744213,0.9435463198993724,13.217138561466378,0.038276365573577054
73.0,-47.028743305675114,652.1267758486559,0.9418266923463305,13.112985073704907,0.038317770144934434
74.0,-46.63307576640522,638.6595052358002,0.9400361715589364,12.951139561269727,0.038360273065247766
75.0,-46.14801699969432,625.3926849062076,0.9381889827339277,12.827425740425566,0.03839909033018434
76.0,-45.60803822302609,612.3612310222261,0.9363045779310079,12.74282117618875,0.038436675639678064
77.0,-45.02852220786966,599.5818585918405,0.9344411824433363,12.67482131084773,0.03846787649686286
78.0,-44.40450682111641,587.0515025649286,0.9327006652405845,12.616534251996145,0.038489603982652276
79.0,-43.730401114577106,574.7675106532289,0.93116583783365,12.563947997023526,0.038503813855926085
80.0,-43.0005721515845,562.7281107730469,0.9298159804665366,12.514365533781486,0.038513534640749844
81.0,-42.207529526358556,550.9308865616314,0.9285002043711342,12.465719161396935,0.03852143649413458
82.0,-41.3411867334469,539.3720049601504,0.9270178725936193,12.416147726931912,0.03852984821273944
83.0,-40.39079058512986,528.0482458834254,0.9252347545944679,12.363638162715695,0.03854104901905693
84.0,-39.345800904531735,516.9580499079107,0.9231409984360424,12.305647412598907,0.03855716997073026
85.0,-38.19494644058205,506.10050774572227,0.9208132599958054,12.238635663928088,0.03857889912256764
86.0,-36.927632772113526,495.4767286394766,0.9183366079889432,12.157221760467737,0.03860310452618063
87.0,-35.581392166020485,485.1375280307605,0.9157592880714323,12.050405583212388,0.03862546584933517
88.0,-34.22671770886847,475.16719987550306,0.9130992119516763,11.924437924091944,0.038646560365087144
89.0,-32.568955210411,465.2874546990443,0.9103650460391941,11.827966370154531,0.03866595916463902
90.0,-30.702000515093935,455.6107054553791,0.9075792879712077,11.753682086846265,0.03868361487889743
91.0,-28.639037020613042,446.16938523303077,0.9047998235619596,11.692481854158277,0.03869511432475457
92.0,-26.36753012129041,436.97112290845314,0.9021258484135083,11.639760148541324,0.038698821093746824
93.0,-23.880740868763787,428.02980685612766,0.8996618000629295,11.592511410843287,0.038696073103621526
94.0,-21.180740362118314,419.3683097523674,0.8974481209790457,11.54867033698158,0.03868887160067709
95.0,-18.26606756691918,411.00562851411166,0.8954119830581659,11.506712555646498,0.038678912342050335
96.0,-15.115923100398675,402.94102472432957,0.8933809938308106,11.465403763713297,0.038667518102372185
97.0,-11.695586321411453,395.1591863751698,0.8911565427269001,11.423616124869312,0.03865581618362505
98.0,-7.977115852282704,387.6504949850119,0.8885992192608259,11.380178259546238,0.038644914674732585
99.0,-3.9518833212337463,380.4227338860598,0.8856736670966708,11.333728084591893,0.038635985883782954
100.0,0.37361241148722363,373.49586635280247,0.8824329088383962,11.28255312131766,0.0386300771919278
101.0,4.985473533274775,366.8931801390462,0.8789647422268555,11.224439140972331,0.03862737232507083
102.0,9.856498101529553,360.6460970614688,0.8753429498733104,11.156599465241854,0.03862616692462939
103.0,14.888741196918797,354.85032648703464,0.8716094766961677,11.075751085943322,0.03862365272165593
104.0,19.909805868779788,349.66862622190644,0.867782241551502,10.982877873303298,0.03861900312755831
105.0,25.17835096967643,344.82519297698445,0.8638694080694138,10.895524680718436,0.03861273550974559
106.0,30.794025803674444,340.2030101307269,0.8598814667672023,10.823251268248788,0.038605103304018215
107.0,36.58511252244161,335.94899315724535,0.8558431112793553,10.763101425733577,0.03859438236862143
108.0,42.45203049834928,332.12938508505044,0.8518064815749967,10.71186418489943,0.038578391686472084
109.0,48.30639617107535,328.7918010841984,0.8478543724897354,10.667070798670162,0.038556700477284274
110.0,54.03592908232504,326.00004407127943,0.8440858581974867,10.62687219113336,0.03853013056917815
111.0,59.51356409334874,323.8260745709635,0.840580630742258,10.589920524550028,0.03849981479204303
112.0,64.63633066303741,322.3125601161245,0.8373605391255611,10.555217171593165,0.03846672884099784
113.0,69.3547267536699,321.4460071563441,0.834368136342153,10.521990131118935,0.038431609125832676
114.0,73.66831615924988,321.16336501385274,0.8314754267430813,10.489611049248843,0.03839500230791114
115.0,77.60374455442951,321.37639606777094,0.8285183336443097,10.457533147810476,0.038357335946696415
116.0,81.19241571093279,321.99529968162113,0.8253434916437908,10.425246418891904,0.03831898112977715
117.0,84.45772332754412,322.94202143340596,0.821847522924609,10.392235683223005,0.03828029985977282
118.0,87.40858718678764,324.15775868536394,0.8179945603314005,10.357948531540123,0.03824168146129948
119.0,90.03477216723414,325.60886825642535,0.813808867361146,10.321745214847951,0.038203544675250126
120.0,92.31243543266255,327.28138960078974,0.8093535726885266,10.282893213288665,0.0381662792628706
121.0,94.21340998318604,329.1723088416534,0.8047019748440563,10.240539348616545,0.038130087586028795
122.0,95.72157214630091,331.27357841902045,0.799916182355875,10.193755644391478,0.038094726752602934
123.0,96.82628649661956,333.5783677798827,0.7950398327708985,10.14169828136834,0.038059382531909366
124.0,97.50699343785234,336.0966953817384,0.7900990402194465,10.083985383764345,0.038023000337813716
125.0,97.76871506928602,338.81992841298955,0.7851080316737428,10.021706854160826,0.03798496936176899
126.0,97.75770840838783,341.6045183873089,0.7800767524642641,9.958891423057485,0.03794530121263605
127.0,97.67142912015578,344.26152064203916,0.7750127204694374,9.900459904085611,0.03790412354897602
128.0,97.560911475283,346.7539526836946,0.7699272384135328,9.848505294939308,0.03786125689535344
129.0,97.40842447621915,349.11577766915775,0.7648359292883974,9.802856925885834,0.03781607033729546
130.0,97.21436635529352,351.3645450945979,0.759764023410931,9.762657614103547,0.03776793184638285
131.0,96.99349511124656,353.5046112634803,0.7547484822172463,9.726943470785685,0.03771662654618477
132.0,96.75749875879278,355.54400696830925,0.7498359426821393,9.694839082656745,0.03766234863970647
133.0,96.5106148106899,357.4980452677962,0.7450800879124704,9.665625921928907,0.037605501870590946
134.0,96.25626841234457,359.3821745512,0.7405334429791744,9.638728102819892,0.03754652798736348
135.0,96.00522198247658,361.2033113154751,0.7362381306027008,9.613693596622904,0.037485821338723996
136.0,95.77952670030398,362.95580840355285,0.7322154922134299,9.590165907261854,0.03742370574767983
137.0,95.6067541886208,364.62676583567463,0.728465103281078,9.567860729905956,0.0373604330394239
138.0,95.51367548364077,366.2021765172614,0.7249613957964778,9.546550797079718,0.037296198987938095
139.0,95.52128256442695,367.6717310182692,0.7216577026915992,9.526048238722707,0.03723115556690591
140.0,95.64302780359488,369.0301547342577,0.718493376339152,9.506197948937725,0.03716542699649933
141.0,95.88532473692801,370.2770118533585,0.7154021190890616,9.486867873747528,0.03709910795121347
142.0,96.2504122962916,371.4140085062565,0.7123197473492296,9.467948142652752,0.037032279934461836
143.0,96.73701419805056,372.4441890415067,0.7091922758745796,9.449341406452556,0.036965009270426626
144.0,97.3421099320169,373.37104231286185,0.7059786193877897,9.430960699071385,0.03689735173530109
145.0,98.05990738143117,374.19910002608276,0.7026541862144481,9.412737616543062,0.03682936469550637
146.0,98.880965166879,374.9350336315145,0.6992101650387795,9.394602554343289,0.036761098892805794
147.0,99.79145214323168,375.5893861071896,0.6956515954850403,9.376495635865524,0.03669260056757346
148.0,100.77353474128064,376.17539571091726,0.6919944398412462,9.358369510317756,0.03662391562378656
149.0,101.80708455615986,376.7084684725706,0.6882614392048059,9.340182549372372,0.036555085371042344
150.0,102.8703320532282,377.2052571385248,0.6844802154073375,9.32190856793382,0.0364861479821527
151.0,103.9419793905634,377.68173619742777,0.6806777109250186,9.303531296616804,0.036417133423138535
152.0,105.00229917390904,378.15254750006414,0.676880899292822,9.28505954228674,0.036348064653912444
153.0,106.03480235264865,378.6290872654693,0.6731125823297905,9.266524739841485,0.03627894939665938
154.0,107.02627791741936,379.1197425709345,0.6693937882212773,9.24799314259145,0.03620977816196968
155.0,107.96718857162556,379.6296696380233,0.6657414596689237,9.229577077939677,0.03614052305587225
156.0,108.85093836651286,380.1613388863852,0.6621702088046295,9.211438577813864,0.03607113658996362
157.0,109.6738659679795,380.7150442070575,0.6586912134528649,9.19379835948588,0.036001556857360215
158.0,110.43451179246506,381.2891875913174,0.6553138266222372,9.176942384877234,0.03593171382408419
159.0,111.13310885129258,381.8811684943102,0.6520451497690645,9.161190650673195,0.03586153693591399
160.0,111.77142326408007,382.4873426765469,0.6488922910554953,9.146929647315945,0.035790961910933713
161.0,112.3525850965967,383.1033412562579,0.6458602246773076,9.134548763735237,0.0357199390632746
162.0,112.88023199176908,383.7244153419127,0.6429536028598715,9.124430194849529,0.03564843073450301
163.0,113.3590661858987,384.34556132887104,0.640176510247897,9.11692438236049,0.03557642014035937
164.0,113.79392133802928,384.9619189821748,0.6375328920886795,9.11226762169334,0.035503914353569054
165.0,114.18977394319597,385.5688705504643,0.635025779111014,9.110604295923663,0.03543093823724564
166.0,114.55105257709454,386.16245551112615,0.6326585488235766,9.111945744047059,0.03535753651476252
167.0,114.88208284900757,386.7392789073853,0.6304337013081583,9.116177236956304,0.03528377865505943
168.0,115.18674550148428,387.2963641038303,0.6283535255264341,9.123010135173717,0.035209758268127556
169.0,115.4678814462626,387.8317123357099,0.6264204802106118,9.132021264118064,0.03513559456680278
170.0,115.72773978315446,388.344147454175,0.6246362345778049,9.14272029842751,0.03506141909372245
171.0,115.96788739392885,388.83312099142205,0.6230022246623409,9.15452237256026,0.03498737973641277
172.0,116.18859333168461,389.29870663159966,0.6215197969110862,9.166858027184361,0.03491362817765601
173.0,116.38949720010503,389.74179540149885,0.6201901658421366,9.179159937531836,0.034840312418846824
174.0,116.56908114903217,390.16398962347176,0.6190153247155861,9.190937213797762,0.03476756188910681
175.0,116.72516924880753,390.56760693568947,0.6179973165936435,9.201763512825003,0.034695484211643604
176.0,116.85456455548139,390.95518630281686,0.6171384938115048,9.211282259437848,0.034624169017040594
177.0,116.95358571761149,391.3296620139343,0.6164419262720876,9.219224156835034,0.03455368282891021
178.0,117.01847309099195,391.6939493067519,0.61591055270187,9.2253531166869,0.034484081446899184
179.0,117.0444867367879,392.051384102485,0.6155486039144478,9.229583869383996,0.034415396917142536
180.0,117.02770219290277,392.40459273836433,0.6153581321301622,9.231816444669606,0.03434766492448399
181.0,116.96465732906948,392.7554930750867,0.6153405751470064,9.231984553663093,0.03428092302035022
182.0,116.85169811377304,393.10595878714184,0.6154973917966262,9.230107257359952,0.03421520216483595
183.0,116.68707543935489,393.456318248805,0.615825928619654,9.22619524390961,0.03415053774318701
184.0,116.46917278146972,393.80676927945365,0.6163241565846985,9.220342789501194,0.03408695858394051
185.0,116.19712327701791,394.1568248691139,0.6169887556948404,9.212684838019,0.03402448755801028
186.0,115.87052334075655,394.50572043376553,0.617816632095827,9.203421043326248,0.03396313585359466
187.0,115.48992166315719,394.8520738883582,0.618804012081188,9.192795566913743,0.03390290141363869
188.0,115.05605202943212,395.1944453368492,0.6199486197906322,9.181117297666388,0.033843767907307504
189.0,114.57069898080651,395.5309077602235,0.6212480853209414,9.168873451422648,0.033785674524597784
190.0,114.03570741272354,395.85934872936434,0.6227008137693244,9.156438923740053,0.03372857692579842
191.0,113.45425703416777,396.17699188374894,0.624305364692439,9.14442883349069,0.03367238189975959
192.0,112.82988386480373,396.4806492517233,0.6260606154343529,9.133455376849781,0.03361700187742293
193.0,112.16686510295374,396.76664426876647,0.6279649399503723,9.124071717335477,0.03356236140119493
194.0,111.47008660022465,397.03117342010285,0.6300161626735619,9.116767682880205,0.03350839621139776
195.0,110.74466775029256,397.2701290453033,0.6322126414903365,9.111980788485964,0.033455054747252855
196.0,109.99598967383173,397.47953726308424,0.6345518033216165,9.110005768851225,0.03340230771115705
197.0,109.22855050045537,397.65620785160286,0.6370310976238887,9.110989269608817,0.03335014944920397
198.0,108.4471481963424,397.79699745446953,0.63964784814176,9.114939572115281,0.03329859063958647
199.0,107.65573701587418,397.899600472624,0.6423987361970784,9.121748670338214,0.03324766017590857
