Time,J,A,S,tau
0.0,100.0,100.0,0.7531738539114642,9.433962264150944
1.0,94.46553778086539,95.65588515351006,0.753595280984716,8.881026637262849
2.0,89.0760907188753,91.46858503340351,0.7540068561570947,8.301399586756688
3.0,83.83726246269086,87.43995318286142,0.7544027656753906,7.695105640011442
4.0,78.75116248212913,83.56876239874846,0.7547773938565189,7.062172365834234
5.0,73.81926620525952,79.8534130286743,0.7551252014363126,6.402607180350408
6.0,69.20505158187848,76.13029899501218,0.7553286066639375,5.76081977807537
7.0,65.77722101921717,71.54370719472217,0.7551063629283772,5.668353388314513
8.0,62.48085411209725,67.15529290774566,0.7548981983637528,5.591732374031476
9.0,59.31562556169078,62.96307467827641,0.7547044680190544,5.523202129625517
10.0,56.28147119748165,58.96448546910509,0.7545063401815584,5.458080383393321
11.0,53.3784639989485,55.156630154077284,0.7542760417217912,5.393012800187186
12.0,50.60633548821353,51.53694043403635,0.7539919233311035,5.324877548665143
13.0,47.96016337827935,48.107405004173025,0.7536468987113284,5.250153948531611
14.0,45.43845407388516,44.86665178018945,0.7532470872808258,5.165124015467377
15.0,43.02203502118178,41.83115346185754,0.7528076254642312,5.0683910102823955
16.0,40.69421854888847,39.01498838475553,0.7523382740567628,4.966697093976787
17.0,38.511093989310915,36.36059692231523,0.7518340246788316,4.873398515983742
18.0,36.48908905369621,33.85148952364485,0.7513053087737698,4.795007295822507
19.0,34.612163060165415,31.504531133177284,0.7507697808536906,4.729906104470137
20.0,32.8776169418983,29.323766927172308,0.750241297715019,4.674452712225787
21.0,31.28776519749758,27.308329804933475,0.7497301152283127,4.625580604716587
22.0,29.843998359930364,25.457614166784744,0.7492412900382164,4.581127190437252
23.0,28.544733548297586,23.772147507933322,0.748771848373306,4.539648494573704
24.0,27.38417612785684,22.25351270157945,0.7483105474323436,4.500191783278388
25.0,26.351494413761074,20.903761665523273,0.7478403946701538,4.462118022233609
26.0,25.4304515303989,19.72458403676852,0.7473433076028263,4.424966664314904
27.0,24.599946646618374,18.716144678734555,0.7468045422423969,4.3883623162113325
28.0,23.834501633371172,17.87682888258128,0.7462151584215007,4.351958898526088
29.0,23.106178781499455,17.202477454933245,0.745572231424679,4.3154193927620295
30.0,22.387833717014672,16.685233415425902,0.7448774450709315,4.278430565166166
31.0,21.656144293637038,16.31310201694706,0.744135360417598,4.240724721416251
32.0,20.894640324185602,16.069788160420934,0.7433512918439226,4.202144912491507
33.0,20.095861365543232,15.934865618222073,0.7425310877107926,4.162699225599493
34.0,19.262659209269582,15.884127353360983,0.7416799509439184,4.122627123335581
35.0,18.407848928815845,15.890524453881723,0.7408024961797552,4.082430520719093
36.0,17.551666709045435,15.926385715666939,0.7399027171104081,4.042830119095318
37.0,16.717275755393075,15.966724493827622,0.7389845849919082,4.004624241618468
38.0,15.926170388034052,15.992369243969856,0.7380509887785056,3.9685361294250563
39.0,15.194406781676967,15.99180336780621,0.7371056346634581,3.935050180695186
40.0,14.530858902822452,15.96149164999438,0.7361517847229351,3.9043936887745794
41.0,13.937326893846437,15.904395898834256,0.7351928164255045,3.876563517335907
42.0,13.41060029349211,15.827143614297427,0.7342317157032592,3.8514197672921564
43.0,12.94432504501979,15.737716538098383,0.7332717189424345,3.828736372703863
44.0,12.530725469622492,15.64368331124348,0.7323158481147463,3.8082623111057954
45.0,12.161724652760855,15.551317726649938,0.731366981728271,3.7897535555597934
46.0,11.829663058741614,15.46522867816425,0.73042801256292,3.772981492587851
47.0,11.52786414974261,15.388275149561627,0.7295019502494479,3.757742687582479
48.0,11.250937261325026,15.321715904375482,0.7285913902002669,3.7438629058052757
49.0,10.994802997326712,15.265544498212597,0.7276989735031884,3.731190901343342
50.0,10.756674521634523,15.218828437445767,0.726826847467793,3.719601282964439
51.0,10.534748870727908,15.18012632336598,0.7259773938555246,3.7089832771511855
52.0,10.328005062555825,15.147792619236387,0.7251526001521309,3.6992457827384433
53.0,10.135894452339842,15.120254437551381,0.7243542820646516,3.6903111957711694
54.0,9.958049664980159,15.096197264191144,0.7235843023546921,3.6821114818502503
55.0,9.794120880445544,15.074637886908151,0.7228444569056383,3.674587356336864
56.0,9.64367078517629,15.054919128009269,0.7221362667799958,3.6676899762226602
57.0,9.506092526072734,15.03668386632902,0.7214612686296958,3.66137683277294
58.0,9.38062152618854,15.01979981532015,0.7208208391525583,3.6556107181813338
59.0,9.266343593899693,15.004294128220659,0.7202163466118662,3.6503573482570357
60.0,9.162267908097187,14.990257012244346,0.7196490975331886,3.6455886702919553
61.0,9.0673969138376,14.977783237282418,0.7191201617180474,3.6412810018346478
62.0,8.98070234594785,14.966972796488037,0.7186308731457978,3.6374073945831293
63.0,8.90126253068098,14.957853162121797,0.7181822176657178,3.6339512960966656
64.0,8.828230876975732,14.950404895245017,0.7177750912450185,3.6308950443266337
65.0,8.760845772268588,14.9445630291672,0.7174103613968736,3.6282236788383546
66.0,8.698412309165557,14.940243271401968,0.717089062862283,3.625922154560628
67.0,8.640353749191272,14.937324888713281,0.7168118395479365,3.623979303721762
68.0,8.586163414710835,14.935685752961183,0.7165792438560459,3.6223861480475077
69.0,8.535381919098404,14.935213539750169,0.7163918481816288,3.621134212510213
70.0,8.487604523738373,14.935806468787932,0.7162500808654121,3.6202170589127154
71.0,8.442465280200464,14.937381034257175,0.7161542540531968,3.6196299034663997
72.0,8.399629862989531,14.939872535331972,0.716104567320316,3.619369549653432
73.0,8.358791261989099,14.943233873655545,0.716101105767844,3.619434372838893
74.0,8.319666826355693,14.947433771489392,0.7161438392735056,3.6198243100603746
75.0,8.281989069587805,14.952457908655713,0.7162326679600589,3.620540104395281
76.0,8.245528816809665,14.95829396007406,0.7163673115258234,3.6215858843611515
77.0,8.21007326584472,14.964944127743424,0.7165473877350224,3.622965722852368
78.0,8.175438395809508,14.972412402438092,0.716772354492342,3.6246861959080965
79.0,8.141434110985921,14.980728097875398,0.7170418537747607,3.6267533515579866
80.0,8.10793621774732,14.989901525152236,0.7173550244118196,3.629178540737597
81.0,8.07481705191468,14.999968407534542,0.7177111529253078,3.6319719215185335
82.0,8.041967713458737,15.01096810511383,0.7181094354833684,3.6351458954698366
83.0,8.009317061705236,15.02294177940185,0.7185488560007227,3.638715614722315
84.0,7.97678251963997,15.035958188576826,0.7190285940294524,3.642696451687494
85.0,7.944325108150211,15.050074899533895,0.719547544891152,3.6471080313314155
86.0,7.911913875098281,15.065387790948925,0.7201045709050738,3.6519705786439274
87.0,7.879534854274639,15.081979466994156,0.7206985068624334,3.657308242222985
88.0,7.847205089847277,15.099948415622501,0.7213280122258402,3.663148472179247
89.0,7.814929041870471,15.119419520894105,0.7219919394129726,3.6695211311726834
90.0,7.78272699560025,15.140530759771456,0.7226890459588389,3.6764589979328512
91.0,7.750677636222919,15.163403717339655,0.723417760552393,3.684003337876927
92.0,7.718881700222266,15.188166076402844,0.7241764314564368,3.6922012894072926
93.0,7.6874122378743746,15.21497417497825,0.7249637573653929,3.7011027521264
94.0,7.656429014268949,15.243957319712715,0.7257779127409822,3.7107699929834914
95.0,7.626137210343639,15.275217486151686,0.7266169669169253,3.7212760531338227
96.0,7.596759272873266,15.308864089108583,0.7274791431566351,3.7327030082304167
97.0,7.568615419600253,15.344948127116858,0.7283622369563605,3.745149851061569
98.0,7.542105654435737,15.383468589257863,0.7292639832878663,3.7587316553752625
99.0,7.517738323235371,15.42434476898535,0.730181942963111,3.773582758262093
100.0,7.496166221389624,15.467382698625082,0.7311135603190186,3.7898589098636806
101.0,7.4782366006773495,15.512233448819465,0.7320560372889326,3.8077396767925347
102.0,7.465002447458531,15.558354969882338,0.7330066049038187,3.8274233977123053
103.0,7.457824108901526,15.604948546488975,0.7339621774826406,3.8491292120904075
104.0,7.458329565587779,15.650963899276837,0.7349196135960016,3.8730786781422064
105.0,7.468296714825346,15.695210358759008,0.7358759005787399,3.8994718818337004
106.0,7.489407217645468,15.736606669251348,0.7368279449657941,3.9284475736251934
107.0,7.522772028849564,15.774644378260716,0.7377723182444197,3.960034343368974
108.0,7.568281286978061,15.810047353157824,0.7387058289230138,3.994078164352928
109.0,7.624216255019855,15.845096904062807,0.7396252161103558,4.0302058521651585
110.0,7.6873955500159505,15.883594978962433,0.7405270062364927,4.067837002333185
111.0,7.753943919959958,15.930048168512993,0.7414073762005748,4.10627561904278
112.0,7.820437717118108,15.988507488757103,0.7422621145743127,4.144847549151157
113.0,7.884996392880375,16.06151411682569,0.7430865381949606,4.183028339019446
114.0,7.947594104732613,16.149719632481695,0.7438752189714228,4.220509145649167
115.0,8.009583395482013,16.252382817056382,0.7446219820933824,4.257198042411552
116.0,8.072868673303944,16.368197631637937,0.7453201651539912,4.2931764248178075
117.0,8.139228214235473,16.49594642051992,0.7459634253002946,4.328641158266559
118.0,8.210002679266855,16.634836062964773,0.7465471816891383,4.363854356675569
119.0,8.285904853822053,16.78471233252187,0.7470705910790281,4.399103072062505
120.0,8.366919089896305,16.94615686044082,0.7475387990288815,4.434672183884206
121.0,8.452368949242944,17.120460724389627,0.7479643078123094,4.470837895324321
122.0,8.541294961662159,17.309269926670435,0.7483661903222999,4.507892616837064
123.0,8.633109988873557,17.513900957263,0.748766570279162,4.546200574899896
124.0,8.728700283976503,17.734327928846977,0.7491852509623818,4.586286289544489
125.0,8.830267079854808,17.96936336523205,0.749634598087693,4.628950058808522
126.0,8.940913565464413,18.217204778545977,0.7501169838522532,4.675407006719228
127.0,9.067750883510294,18.47231486811615,0.750625985536555,4.727439727878949
128.0,9.22770920651917,18.71936831824053,0.7511495280538392,4.787513700647731
129.0,9.452529824045849,18.927527228921853,0.7516736344420955,4.8585252451332765
130.0,9.772259459035636,19.06639398241887,0.7521831341584037,4.942178770993405
131.0,10.162589184737149,19.159197758321824,0.7526648863409846,5.0349944103410085
132.0,10.544023313063066,19.285027806155533,0.7531146152884682,5.127093503690034
133.0,10.855036815760824,19.506495669422865,0.7535243154674176,5.2105086529603994
134.0,11.105225346177152,19.815313319532752,0.7538794484284539,5.284163703598571
135.0,11.325042949585757,20.181424888570955,0.7541685245311167,5.350521478732392
136.0,11.531430845758889,20.587300426902747,0.7543892022193187,5.4125452577003195
137.0,11.731671103483272,21.02475231666964,0.7545550579428166,5.4728183856831665
138.0,11.92824267515949,21.490691109138464,0.7546956471638551,5.53366007527691
139.0,12.124518033940255,21.982254630401183,0.7548442443839839,5.597650610730835
140.0,12.333831919553294,22.487836080692663,0.7550207036152445,5.66844899289285
141.0,12.5985265261956,22.966636891513254,0.7552236361868778,5.751897849689221
142.0,13.013632315566756,23.321670064901653,0.7554320002345971,5.856796881084282
143.0,13.629670177425732,23.496648030010835,0.7555974343889006,5.989193748218325
144.0,14.278329863722863,23.65544216309066,0.7557163633681907,6.1287396907808285
145.0,14.750238718032895,24.009254002458267,0.7558169604580522,6.246514237431788
146.0,15.054321835360636,24.554260243584018,0.755857634471178,6.3433355549485455
147.0,15.308271873869103,25.17564327972401,0.7558235632908972,6.428754864599241
148.0,15.547013943105062,25.837476037192733,0.7557318491475721,6.510634996165539
149.0,15.784481602791487,26.525285204558934,0.7556197506904048,6.595905304190507
150.0,16.058379244444428,27.202460074190018,0.7555152123576399,6.69362753395431
151.0,16.517031566622762,27.716590817317204,0.7554072379537092,6.819714471992884
152.0,17.30970508674608,27.906829885703004,0.7551703766555791,6.995962698305048
153.0,18.11182577866619,28.08945258298933,0.7548489564880498,7.180394667251631
154.0,18.578145858309753,28.615037562950608,0.7545581158506471,7.319025526578321
155.0,18.832730227251655,29.3699868992886,0.7541816942240274,7.431520265357079
156.0,19.056682750675222,30.17897005543519,0.7537256635512117,7.537371921205685
157.0,19.315242199338744,30.976772103092294,0.7532341483522926,7.6530899597426405
158.0,19.80310609155669,31.560936956637466,0.7527102356976748,7.805188788376078
159.0,20.723811109168143,31.71130725888269,0.7518323077188124,8.043042515587041
160.0,21.540186764470864,31.95715350814628,0.7509704437088385,8.26065693259079
161.0,21.879490452140622,32.68391712347018,0.7501665030446313,8.4111167269234
162.0,22.094456847599954,33.55544978475881,0.7492614790002495,8.54396354103881
163.0,22.396545000318135,34.363307677567605,0.7483033052415018,8.69411971180215
164.0,23.252868283210944,34.62126482928827,0.7470913892732841,8.930213547731125
165.0,24.271801706773992,34.702969338680866,0.7453621975368295,9.237672568636922
166.0,24.6752367703476,35.39677799870108,0.744082144330274,9.423438674944064
167.0,24.889227761425936,36.29907983018825,0.7427168488321869,9.58479648423479
168.0,25.42935927117211,36.89093657820558,0.7412723325935733,9.792187510178007
169.0,26.5843496103867,36.8573164701173,0.7387240403900858,10.179046406598967
170.0,27.201580691592163,37.349333222742835,0.7369996518150516,10.41331856978777
171.0,27.392907495467302,37.00493150687012,0.7352659367202092,10.601593110591566
172.0,28.100701794922774,34.04029769369686,0.7332887902438399,10.874537284996515
173.0,29.126755591457254,29.740264425635566,0.7301418694382689,11.30262144932265
174.0,29.297960641015184,26.002234527423912,0.7281432816838209,11.523716440934468
175.0,29.58689159164317,22.158609873134044,0.7260767776730854,11.772878364484862
176.0,30.41877485281141,18.008803776663026,0.7222779464634453,12.272874374130005
177.0,30.19820376173185,15.17242556523971,0.7200591238828202,12.522324225992307
178.0,29.939772575326383,12.56277933377927,0.7177332095350247,12.807178096694464
179.0,29.990658528897928,9.929824687534278,0.713534961995264,13.340086548127172
180.0,28.928578389416693,8.597507411665699,0.7111862880577547,13.59653302119416
181.0,28.380527430479276,6.896847619294501,0.7070418097138237,14.110951098118322
182.0,27.435514248902177,5.813155838155492,0.7041299625651394,14.474278205374311
183.0,26.17253143301034,5.123116416793638,0.7015767181649031,14.785178897988516
184.0,25.418170455698252,4.1010108804449,0.6967381112276436,15.38855272632495
185.0,23.862325593363117,3.9560808346942067,0.6942096646112101,15.68402140292669
186.0,23.13898253095361,3.0970908282018734,0.6890651874178882,16.336266822322038
187.0,21.570438346849297,3.1578179625438594,0.6864773105749159,16.64557163275416
188.0,20.823082046865366,2.482025510864517,0.6811435728010676,17.324938874273915
189.0,19.388040592699916,2.563254579141184,0.6785024924544651,17.650969170816243
190.0,18.612031881894897,2.057700886362233,0.6729998155784646,18.35708429734788
191.0,17.3645247985018,2.090015163371305,0.6703081770559061,18.7017768986471
192.0,16.522924978048593,1.7727562154555963,0.6646884186442583,19.42468882472183
193.0,15.533097458820476,1.6775278717906081,0.6615620633481764,19.844470616986538
194.0,14.579511007547028,1.5807390028249573,0.656252032656477,20.521509810160136
195.0,13.734299412667703,1.427259764349119,0.6505209297568694,21.267904928600565
196.0,12.91818621526781,1.3060643868213013,0.6476932509391173,21.6604989372129
197.0,12.16265301983922,1.1832255585108307,0.6418045138061799,22.44578668885959
198.0,11.382510139659376,1.1260001615308055,0.6362865376711759,23.17490974286419
199.0,10.782085750163157,0.9529110180535335,0.6331233861342935,23.63207968186929
200.0,10.13685660945258,0.8873156232012713,0.6271467082922728,24.451389437106467
201.0,9.510677697376046,0.8345961219499128,0.6213113736403466,25.248122081609026
202.0,9.09417124364341,0.6494534565683281,0.6183653405791673,25.699094134974686
203.0,8.564974210131394,0.6314370660410888,0.6124156335239284,26.53178596404698
204.0,8.07095736851094,0.5954604980899031,0.606418324409678,27.38965514593541
205.0,7.631372373505327,0.5364544448876517,0.6008020931249146,28.192494026547447
206.0,7.367177571330449,0.3806658897517906,0.5976736369904537,28.699472023764795
207.0,6.997924966808943,0.3767692796084791,0.5917794453985927,29.56428086249443
208.0,6.64073913799234,0.3659514385706151,0.5858472387912108,30.455498804907712
209.0,6.311257581351803,0.34097985638673717,0.5799805266538673,31.344970031900544
210.0,6.045213434562299,0.2846345736498549,0.5745672749113053,32.177703544147825
211.0,5.89373401777275,0.18017852475091947,0.5714014036457251,32.735086833320025
212.0,5.670682388740563,0.18092058793509658,0.5657487114171097,33.62306741475816
213.0,5.437696019012581,0.18748968529563756,0.5600297732230382,34.54084021641469
214.0,5.216560770447685,0.1819513996788353,0.5543546626913519,35.46850492178836
215.0,5.012996773172766,0.16716335864421378,0.5487467730862143,36.39847179688542
216.0,4.833826242145779,0.1438205714584785,0.5432365627408979,37.323810418041035
217.0,4.687711904791318,0.11115712840514949,0.5379608426860221,38.22605547189944
218.0,4.603736747388591,0.056734731126555187,0.5347068796959497,38.863934419081595
219.0,4.502842892722509,0.0504619784071319,0.5299208224583694,39.72345197300992
220.0,4.389896513705345,0.05629387110799228,0.5246991477672136,40.65536072682827
221.0,4.272013227617192,0.0625001720838869,0.5194798255509387,41.60304382330632
222.0,4.154774330051302,0.06545189727973987,0.5143127787938666,42.558459049946386
223.0,4.041465175038487,0.06519528087175522,0.5092106514861231,43.51852648331174
224.0,3.933584288219176,0.06280577736648395,0.5041778321092506,44.481570229841175
225.0,3.831781183083705,0.05917878815861296,0.4992163166394896,45.446482005686654
226.0,3.736442873999248,0.054795389024459955,0.49432751692993776,46.4124042429844
227.0,3.647953247616303,0.04983221060552571,0.4895132231161952,47.378547400751046
228.0,3.566692430286414,0.044358066942218936,0.4847767115283122,48.344009051161486
229.0,3.492875587021118,0.03850307171932813,0.4801249679398148,49.30745511626737
230.0,3.426315384241444,0.03256748362215393,0.47557479248512186,50.26626386236223
231.0,3.3661236199746742,0.02710180407737837,0.4711763175048102,51.213111875454885
232.0,3.317853535790731,0.01786937824581176,0.4671862265220229,52.108708149471234
233.0,3.2840785332197293,0.00657370356498184,0.464121272144811,52.86219465715969
234.0,3.239905965662215,0.00941271447521715,0.46010455968095565,53.779919620095555
235.0,3.192764094550599,0.012450525505644995,0.4559009095961559,54.73580737501816
236.0,3.145316613790977,0.014174474934485568,0.45168698767970156,55.70325311153035
237.0,3.097627597126915,0.015361366015243023,0.4475013610602947,56.67639443112326
238.0,3.0499171148056883,0.01620515576157306,0.4433568318734449,57.65301510445009
239.0,3.0024221872287065,0.016767280269106576,0.4392582081753683,58.63202282380333
240.0,2.9553488021507928,0.017088833596871387,0.43520712268183337,59.6127844061746
241.0,2.908857003837019,0.017212444920286202,0.4312037614934627,60.59488928062005
242.0,2.8630609590949283,0.01718127680813111,0.4272475864191333,61.57804879227563
243.0,2.8180357700059244,0.017034859409917488,0.4233376705668509,62.562047667498845
244.0,2.773825268178091,0.016806718379279762,0.4194728747286511,63.54671729987265
245.0,2.730449615669766,0.01652373566448497,0.4156519451337587,64.5319201054144
246.0,2.687912375520713,0.01620608219255115,0.4118735663680417,65.51754001476357
247.0,2.6462056473539115,0.01586856726839528,0.4081363979403913,66.50347558056072
248.0,2.605314420168297,0.015521145612531248,0.4044391013835741,67.48963519253009
249.0,2.5652206908794244,0.015169835256265987,0.4007803448018274,68.47593402706762
