Time,J,A,S,tau,r
0.0,1.0,1.0,0.6873037850498654,12.195121951219512,0.0
1.0,0.7682467051423082,1.3594718142303928,0.6919776934620144,12.867316769802162,0.003659675909283297
2.0,0.5782763149033847,1.7107592704127055,0.6965981549682051,13.545850800933142,0.0036362411185969327
3.0,0.426316179168678,2.05413771495042,0.7011658105403192,14.230501603578354,0.0036132350731924276
4.0,0.3089792131811611,2.3898798111603847,0.7056814788451784,14.921047224640999,0.0035906743435062992
5.0,0.2232270371209863,2.7182579519656653,0.7101461774206879,15.617264379955008,0.0035685796018016225
6.0,0.16633819397821442,3.039544555697261,0.7145611147964048,16.318928472283808,0.00354697211146552
7.0,0.13587743742808822,3.3540115311119583,0.7189276787416867,17.025814336991456,0.0035258720156639205
8.0,0.1296705745823721,3.6619303514196946,0.7232474247261693,17.737696391374154,0.0035052987290527813
9.0,0.14755053838065507,3.8912398905056267,0.7275220703253356,18.454348753271777,0.003459596679512225
10.0,0.1756643710617951,3.9970967765947627,0.7317534828100681,19.175545533987417,0.003382385303275627
11.0,0.2046030086940454,4.02620589461451,0.7359436667353093,19.901061432507678,0.003296321781326954
12.0,0.22893182891663685,4.000029734233885,0.7400947556651116,20.630671780718604,0.0032085220321221197
13.0,0.2451862214339068,3.933019486128579,0.7442090106299272,21.364152384288793,0.0031219615824635057
14.0,0.25120333665627,3.835500750841022,0.7482888003887985,22.10128034904622,0.0030378302409876704
15.0,0.2457115993447891,3.716470490537228,0.7523366024393544,22.84183363470972,0.0029568043107662746
16.0,0.22810878760101366,3.5833073563389295,0.7563550059812308,23.585590866791794,0.0028791942019652265
17.0,0.19829461618305116,3.4419664213513737,0.7603466597422451,24.33233371639022,0.0028051050280586145
18.0,0.15649965043406042,3.297114683090768,0.7643143424261225,25.08184276429085,0.0027345071288489026
19.0,0.10319296488732926,3.1525604175892665,0.768260900726958,25.833900838913404,0.002667348201430024
20.0,0.038995333388684016,3.0114338520135817,0.7721892796923451,26.58829101589883,0.0026035860741694446
21.0,-0.035374425833675026,2.875726468875596,0.7761024771380343,27.344798987159592,0.0025430767811574512
22.0,-0.11916627241240825,2.747218048073351,0.7800035677673137,28.103211423756814,0.0024857569991820986
23.0,-0.21161622477788936,2.627063604562361,0.7838957012889173,28.863315944691223,0.002431538976800988
24.0,-0.3119791935844022,2.5160953348193207,0.7877820934627499,29.62490132209062,0.002380357726878229
25.0,-0.4195296624936184,2.414568109450328,0.791665985823506,30.387759618745974,0.0023321006185938963
26.0,-0.5336170552188922,2.3230566196775553,0.7955508135065154,31.151677041526696,0.0022867814833540407
27.0,-0.6535754195004473,2.2408472846512706,0.7994400069180981,31.91644446470073,0.002244188686220645
28.0,-0.7788770243747198,2.1682274718392405,0.8033369477169059,32.68185898713332,0.0022043493209134126
29.0,-0.9090211280705941,2.1052882688898618,0.807245312962947,33.447706631127694,0.002167282976539343
30.0,-1.0434956805402424,2.051260103310597,0.8111686731587239,34.21378278867503,0.0021328487546833056
31.0,-1.181879271442201,2.005711329482336,0.8151107012279396,34.979881298413694,0.002100978280258376
32.0,-1.3238247545012354,1.9686639347777903,0.8190752146901752,35.745792108101675,0.002071703621050304
33.0,-1.468965294377682,1.9397017395961853,0.823066096313139,36.511306098527704,0.0020449778764142982
34.0,-1.617020469285216,1.918793450675519,0.8270872157693073,37.27621783924575,0.00202081601548635
35.0,-1.7676717668971647,1.905621411994056,0.8311424687779443,38.04032342297055,0.0019991868864552877
36.0,-1.9206360216008895,1.9000876671956917,0.8352360495730188,38.80340805336675,0.001980093435747993
37.0,-2.075638061192603,1.902116772001613,0.8393720438366081,39.56526531789474,0.0019635317101002734
38.0,-2.232354488264314,1.911411626867109,0.8435547163189315,40.325683062014924,0.0019494594743052506
39.0,-2.3905760248119883,1.9286903055231803,0.8477883787012207,41.08445027948457,0.0019379872841413293
40.0,-2.5499640092275357,1.9540209624478861,0.8520773716278537,41.841357448503814,0.0019291121460444313
41.0,-2.7101298114700807,1.9875481812540852,0.8564262240590711,42.59618883714457,0.0019228386081163692
42.0,-2.870698144352905,2.030009031735751,0.8608395337901729,43.34872852564486,0.0019192424242446605
43.0,-3.0311713133275133,2.0819510335218183,0.8653218818522607,44.09876430588819,0.001918358671186193
44.0,-3.1909870734525567,2.1443436440694454,0.8698780234476204,44.84607841046341,0.0019202634488482862
45.0,-3.3494589992113974,2.21842558399082,0.8745128275972325,45.590450582994194,0.0019250458771866736
46.0,-3.505749701121193,2.3059440496377164,0.8792311614663572,46.33166322870054,0.001932832003152871
47.0,-3.6587671684772145,2.408780395774929,0.8840380252134981,47.0694954758024,0.001943731503478276
48.0,-3.6141468992798442,2.339853075959352,0.8853554908363948,47.43190461453001,0.0019142821366671143
49.0,-3.5194305306133855,2.24780706828616,0.8853527700564376,47.55097737306245,0.001873055808379985
50.0,-3.450751891132362,2.213809972781206,0.8853677954222681,47.65683874487687,0.0018366165350714157
51.0,-3.4092447553456178,2.2486856601323173,0.8853993947595344,47.75938175457033,0.0018057711468000004
52.0,-3.3878352512681444,2.3835559929279997,0.8854235741211448,47.86126953376465,0.0017825907125436176
53.0,-3.370966278322878,2.5896137663714183,0.8854309256529012,47.94577483374219,0.0017640968632054287
54.0,-3.3521097400966315,2.819781272599213,0.8854316246527306,47.98205829389865,0.0017461497536095858
55.0,-3.326287987185286,3.073214741347246,0.8854322449669815,47.95556897453599,0.0017287093636785063
56.0,-3.2889644250449863,3.3499919659912365,0.8854312353335997,47.869575053880475,0.0017117867991761006
57.0,-3.228693703781787,3.6436643553914965,0.8854154724242976,47.75637855088825,0.0016954964210084235
58.0,-3.138042038188153,3.950550688074896,0.8853856224860592,47.6410565653288,0.0016801057411076391
59.0,-3.0128245144003443,4.26958409921018,0.8853583666348124,47.51948464789726,0.0016658117640873066
60.0,-2.8371865387282993,4.587636999539613,0.8853222447951528,47.37117023047911,0.001652234247197355
61.0,-2.577482461468633,4.873600807477012,0.8852681231099551,47.09000592289007,0.0016382606888661155
62.0,-2.219634814255049,5.11532959129087,0.885237134635774,46.66445129090999,0.001624472209113355
63.0,-1.8441112156400028,5.3951711444303205,0.8851596342619291,46.418527193152684,0.0016127615987862947
64.0,-1.35341457439677,5.617271190707684,0.8850968547927325,45.934823490650224,0.0016003058775683227
65.0,-0.8018417184677278,5.836938925357043,0.884993427340938,45.50392677595208,0.0015888894379989663
66.0,-0.16936172450433082,6.036080455437429,0.8848862271036266,44.9898175191647,0.0015778956057347622
67.0,0.5425604742176225,6.216877204787967,0.8847522707264739,44.457038653683824,0.0015675681257373245
68.0,1.3510623270522908,6.364258927609602,0.8846293394594614,43.73489932781979,0.0015570459291651309
69.0,2.2025471239167187,6.53311149457762,0.8843999016119427,43.25003384880661,0.0015482667838754396
70.0,3.166047041568664,6.656338428804656,0.8842166553253421,42.47281040016149,0.0015390125035756462
71.0,4.208179273359189,6.769857219520092,0.8839924827419264,41.639803514477904,0.0015300799087915608
72.0,5.319665395710676,6.885536732881891,0.8837198844864428,40.85529398621771,0.001522245861892379
73.0,6.494934734376733,7.011978978767902,0.8833420388031772,40.17623642952196,0.0015151966167769237
74.0,7.768304107673262,7.118914254281529,0.8829729057104203,39.32678341187107,0.0015083760817067992
75.0,9.127953612069454,7.222699610348002,0.8825511010508966,38.41629474272682,0.0015018574793244335
76.0,10.5731712620412,7.329545541019529,0.8820605342016528,37.484722285223384,0.0014958082662100368
77.0,12.104191191149107,7.445780281330772,0.8814975573155467,36.544248032688216,0.0014903287451960767
78.0,13.726557506382393,7.574222508685126,0.8808580811016886,35.602146489159495,0.0014854760154374472
79.0,15.44318411381042,7.721471303909487,0.8801370671228604,34.66558593035829,0.0014812969468758863
80.0,17.25976247830242,7.894190876192146,0.8793279573656249,33.74577017112169,0.0014778531479143306
81.0,19.184642821066184,8.09927955258732,0.8784163448060468,32.86906499593999,0.001475224609093206
82.0,21.256931774001618,8.309251949421661,0.8773798388668993,32.07154548508484,0.0014734508239007565
83.0,23.48518846949561,8.524442240487815,0.8762623184459886,31.245760185100583,0.0014723712809438852
84.0,25.83587786970746,8.800650609784388,0.8750466134700482,30.373969539009305,0.00147172834252466
85.0,28.336613270969398,9.144952630075736,0.8736888410846412,29.496282955517902,0.0014714132165415336
86.0,31.00886106594169,9.580420638436326,0.8721979471583993,28.63953128164398,0.001471776488775705
87.0,33.86332141212659,10.151495651067838,0.8706161667531628,27.871600468645045,0.0014737484897961314
88.0,36.94664681099854,10.873907939529943,0.8689079661011139,27.241313502477354,0.00147733122168495
89.0,40.41357130675132,11.663051474503819,0.8670375390459066,26.468704104260155,0.0014804679611385143
90.0,44.32369829182334,12.537506289948276,0.8649823364206735,25.705451807968743,0.0014840113117531063
91.0,48.6109893153022,13.64155605919299,0.8629055197926099,25.15159039281457,0.0014908052653518785
92.0,53.557269258387784,14.773150542803364,0.8606119241757076,24.475019491158662,0.001497022724624531
93.0,59.214856893811486,15.97176498705762,0.8581139680133636,23.80265958613484,0.0015036781673097902
94.0,65.4600244839298,17.440441334616835,0.8556622920619011,23.31994036926824,0.0015142057274747833
95.0,72.78482551873302,18.778995333059672,0.8527598354328488,22.665777251167075,0.0015220919579485832
96.0,80.78059681769709,20.486480810572,0.8500457463043015,22.223022312643597,0.0015353039585624007
97.0,90.05679717435412,22.03658346363889,0.8468185559503827,21.62416258879434,0.001545675296527882
98.0,100.15486944629141,23.98926640336665,0.843813071626908,21.20914247843717,0.001561527460953257
99.0,111.73875228185074,25.7588144781497,0.8402146589170029,20.65256687735495,0.0015742244816834216
100.0,124.2106229192459,28.04776215660227,0.8369642070361157,20.276399241208058,0.001593436735079224
101.0,138.4251960816573,30.087621858637576,0.8329605654373932,19.75345427648256,0.00160844714526677
102.0,153.5906462916902,32.75778691444399,0.829388235700956,19.398188128647238,0.0016305537091552704
103.0,170.55827437811206,35.31199323770413,0.8251882977134707,18.958073294418487,0.0016500963527287514
104.0,188.8811607441805,38.232365917228385,0.8209318014629949,18.56290735281719,0.0016723207862389957
105.0,208.4158173638898,41.798823138949864,0.8168711917470471,18.23728089660648,0.0016991972332556372
106.0,229.9773126559078,45.24201551569509,0.8119009944632242,17.802163738574478,0.0017216984342402861
107.0,252.34313851659326,49.84129872242294,0.807420455901469,17.487138561998787,0.0017513478580717873
108.0,276.067832754541,55.13883819676344,0.8027142467644549,17.17426041333365,0.0017823300019746786
109.0,301.56785997855127,60.590310920745615,0.7971505829974646,16.781895416034146,0.0018099412059594693
110.0,327.08316799639834,67.80111498107516,0.7921912470951387,16.495835816172583,0.0018452130937092774
111.0,353.03211403868465,76.11517165863728,0.7870599253200344,16.216115146711864,0.0018822909751566121
112.0,379.7291114905454,84.61630068816179,0.7809078236550417,15.860799085875827,0.0019154186450332776
113.0,404.61719699753996,95.13177592890322,0.7751626189438003,15.578043848158233,0.0019546216679668083
114.0,426.96778296700387,107.5885075214079,0.7697805877334496,15.334304926412923,0.0019987929227924008
115.0,447.148232771706,120.53305241488852,0.7633488450316971,15.03936566548206,0.0020396824093583204
116.0,463.2496016804623,134.70901073342662,0.7565076650844733,14.734733781025074,0.0020811433488077823
117.0,472.66672385724235,151.68365789417356,0.7504610903572533,14.501315689320272,0.0021300365373298834
118.0,475.5583927894325,170.35011683997192,0.7442874247070341,14.274032603551563,0.0021808454013258847
119.0,472.25236477793516,189.67225742547006,0.7369384576111212,13.997032801324231,0.002228284607426023
120.0,461.1776028371294,210.86838252984936,0.7293919306133735,13.727893654624427,0.002277609282472228
121.0,441.47307611092094,234.750005579632,0.7226936074407915,13.515536369388283,0.0023334946201848017
122.0,414.5621857736623,260.1994768642784,0.7159849422957144,13.311980358090707,0.002391407547654019
123.0,381.4488399248872,286.85674113885705,0.7081129895944953,13.072944122434992,0.0024468753881490717
124.0,342.95152349407726,314.74514268997376,0.6996433234843006,12.81753434589107,0.0025019816170763136
125.0,300.56687052435626,343.2801583482412,0.6918761310392229,12.609221258865636,0.002562423701854847
126.0,257.4402960674713,370.26135552793994,0.684730133086317,12.427371797107165,0.0026262152371481166
127.0,214.24185834565188,395.8440900617342,0.6769400203610345,12.235671405072136,0.0026898455127049503
128.0,171.41952180838095,420.2057975567215,0.6679593920180182,12.011185358441072,0.0027511847301768437
129.0,131.6420453044733,441.1475959296151,0.6587286270736649,11.788911970404143,0.002813428487293079
130.0,98.8352430879577,455.109044504056,0.6503297338568257,11.605679383142897,0.0028796598526588486
131.0,72.76676189304078,462.5666012041122,0.6425630278069681,11.443066791926233,0.0029477135450923404
132.0,51.797689418973114,465.2814005542835,0.634286124162488,11.275466065501044,0.0030156556456228723
133.0,34.49544251314894,464.72833239631785,0.6248251878309808,11.083789396407976,0.003081939509972777
134.0,21.18345705911599,460.59260755992455,0.6147481342337728,10.880077418933434,0.0031473671185607926
135.0,13.364252059482402,451.37989225977157,0.6051745487048336,10.70185855280836,0.00321480655606004
136.0,8.943551796821366,439.1889540719287,0.5965454802537115,10.550448013539922,0.0032835568278702792
137.0,6.303627050889786,425.6334142742007,0.5882353079649391,10.408479790969734,0.0033521264992956283
138.0,4.766473272696632,411.38723298144345,0.5792435136310958,10.259401444559163,0.0034200070541185023
139.0,3.8836548316567154,396.90051749091384,0.5691468464473725,10.091851382618746,0.0034864186277216128
140.0,3.4765859604915805,382.36135763784426,0.5584619453276893,9.914399800376293,0.0035515588194556694
141.0,3.6451284628300487,367.6874461267569,0.5481392222258222,9.753408233680295,0.0036169239795315338
142.0,4.1609221356920685,353.13032208680585,0.5387436518591873,9.615614721161172,0.0036821124379020883
143.0,4.902820661475016,338.8375951661509,0.5300520992303966,9.49120730390123,0.0037460831938326317
144.0,5.849656654452959,324.8603184315654,0.5213049397579814,9.368942457221358,0.003808776600088293
145.0,6.9983225297941845,311.2354652415135,0.5117932415405501,9.239161599207938,0.003870305219513153
146.0,8.333385524379162,298.01606336757357,0.5013442589731871,9.096188445074862,0.003930293475233588
147.0,9.861468305401397,285.2367902704026,0.4904073300881403,8.9461227111174,0.003988597435705375
148.0,11.706394720220677,272.818766704964,0.47971469537959915,8.805631189181893,0.004045672425455763
149.0,13.916549766044334,260.7621141454248,0.4698132076881621,8.682743380092647,0.0041012338876883605
150.0,16.49408126751237,249.1144033731616,0.460773326426064,8.573720265416044,0.00415463286625857
151.0,19.45948128984614,237.90347764733124,0.45221549489745483,8.47180227576912,0.004205828563257344
152.0,22.837272330707123,227.1494444084215,0.4435609882170073,8.370771417068891,0.004255172846538656
153.0,26.64077252099918,216.87676531734536,0.43433704264734785,8.265369741450908,0.004302945021906843
154.0,30.855647211793148,207.12701799404272,0.4243937122195857,8.152096879569811,0.004349096065139991
155.0,35.44622837170382,197.94867661273568,0.41394774869089734,8.031959948657116,0.0043933626824901005
156.0,40.42481463358749,189.32479662582125,0.4034484667444415,7.912399221836464,0.004435629531683149
157.0,45.81784053499489,181.20503468563112,0.39336354892517594,7.801966332099174,0.004475795905197733
158.0,51.558958971436766,173.61016086955163,0.3839947749913551,7.703524922212086,0.004513558462111602
159.0,57.526463286610145,166.59236848848764,0.3753912341203024,7.61510507548912,0.004548734932641929
160.0,63.58911051724847,160.18963318354454,0.3673729214785639,7.533300717987678,0.00458144473064028
161.0,69.61740994593792,154.41789140514078,0.3596267353160387,7.454885264684831,0.004611961239558684
162.0,75.485179888209,149.2748566664544,0.35182226520352344,7.377115273836097,0.004640559740596562
163.0,81.06636253406674,144.75042600405035,0.343713389245094,7.297708657278621,0.004667442130922829
164.0,86.23399288511813,140.83529052296902,0.3352014867436751,7.215015531948798,0.004692695608743468
165.0,90.87215069493692,137.51715877852396,0.3263438310476986,7.128562699005599,0.004716281432013171
166.0,94.90038915573011,134.7631618819887,0.3173179555224754,7.0397857379545,0.004738087840451003
167.0,98.30044008283585,132.49941314665384,0.3083579430449155,6.952004074376554,0.004758009067231556
168.0,101.09876127661678,130.6313568137364,0.29968740611271877,6.868864284115247,0.004775963945834963
169.0,103.32680373320895,129.0850805594267,0.2914725069714229,6.7924940447717335,0.004791881594362014
170.0,105.01939825809875,127.80618744240715,0.2837986817507588,6.723142470134611,0.004805745508271125
171.0,106.23011361099196,126.74132286797744,0.2766698586328837,6.659918770808118,0.00481762786797069
172.0,107.03305540368557,125.83201280789719,0.2700247554870118,6.601560532424824,0.004827665654368809
173.0,107.51689640948689,125.01644925314379,0.26376084068576916,6.546844227813614,0.00483601571789394
174.0,107.77300236847286,124.2367338646448,0.25775748558128164,6.49475038931148,0.004842824643560778
175.0,107.88491728691903,123.44525820758217,0.25189518771640496,6.444484276441739,0.004848218144790284
176.0,107.92289204052287,122.60669136167955,0.24607445483548177,6.3954431368868745,0.004852300113517124
177.0,107.94194047767917,121.69743760300311,0.24022854356399204,6.347171937927528,0.00485515530779498
178.0,107.98097741684914,120.70484990769648,0.23432692296524754,6.299341217007738,0.004856851538281831
179.0,108.06340967415687,119.62595927413086,0.22837123732331632,6.251776423681177,0.004857440988725392
180.0,108.19972760752864,118.46477926881238,0.22238685568609107,6.204472618745686,0.004856962178336027
181.0,108.39099485171536,117.22936742940189,0.21641408186998137,6.157616059773428,0.00485544322536954
182.0,108.6317241727214,115.92980217145079,0.2104993173324971,6.111570572087097,0.004852906816288056
183.0,108.91232025409258,114.5766140350178,0.20468836615253855,6.066824421453188,0.0048493753184304655
184.0,109.22155585951478,113.17983936440692,0.1990218250722701,6.0239071461236735,0.004844875269208488
185.0,109.54718130989599,111.74881311156203,0.19353183678695499,5.983296985643611,0.004839438757710995
186.0,109.87696324927167,110.29205953297682,0.1882412341602398,5.945355493470081,0.004833103855743515
187.0,110.19987671114558,108.8172591342755,0.18316388568099062,5.9102928123780165,0.004825914472455529
188.0,110.50629865345539,107.3310315883485,0.178306073583047,5.878174931356192,0.004817918847675417
189.0,110.78850495732158,105.83878399529839,0.17366803416035967,5.848957707565172,0.00480916834524053
190.0,111.04114170239184,104.34472553352441,0.16924610388957442,5.822520050794117,0.004799715812425025
191.0,111.26078229028649,102.85195735385656,0.1650337192093946,5.7986983922477355,0.0047896141191673255
192.0,111.44588804964869,101.36278779133175,0.16102330366242956,5.777310166805344,0.0047789149082904945
193.0,111.59618307511334,99.87902191322456,0.15720661716310574,5.75816930897799,0.004767667833394407
194.0,111.71257525819468,98.40229490285675,0.15357628445630536,5.741093328735442,0.00475592015272685
195.0,111.79649858372453,96.93423153844508,0.15012547295748177,5.725911305844147,0.004743716470972638
196.0,111.84986729678629,95.47659254532346,0.1468484349544088,5.712463466884465,0.004731098822315654
