Time,J,A,S,tau,r
0.0,1.0,1.0,0.8680816671252898,2.092050209205021,0.0
1.0,1.7440282076977551,1.8925823336959005,0.772598883940807,2.27744299916716,0.014237640582732192
2.0,3.6135817624618216,1.997047653603126,0.6876350770773734,2.4628036237991164,0.012815467186179914
3.0,5.329506508756245,2.04513961918255,0.626675790876912,2.6179460630081737,0.011019460930681691
4.0,6.572435624989698,2.668125440939972,0.6268597445482935,2.6175035932534194,0.009293587028188714
5.0,8.422308882572914,2.96176800593135,0.6271515942948102,2.616797609485684,0.008264545993367232
6.0,10.38884189690909,3.018278167486309,0.6275522260892414,2.6158260552224037,0.007585697538095987
7.0,11.893596781347009,3.6061956970606905,0.6280632517294995,2.6145843961585333,0.00710847367253665
8.0,13.824976125275361,4.081089511057558,0.6286834941242813,2.61307608298025,0.00675858142330679
9.0,16.033321329265174,4.328201339590427,0.6294142287040091,2.6112980682165814,0.006494734667500936
10.0,17.9938843732677,4.959687941162193,0.6302575665640504,2.609244937345915,0.006292151728879518
11.0,20.271716589701878,5.619308033015472,0.6312135282568943,2.606917526350756,0.006135051419288401
12.0,22.91692466595976,6.108516761592047,0.6322835022599282,2.604312892915618,0.006012903681187099
13.0,25.51013932139287,6.8657589031284045,0.6334689344761277,2.60142761247974,0.00591840521167193
14.0,28.36534483467551,7.732471811565069,0.6347709978165123,2.598259932723343,0.005846329231160669
15.0,31.611116442418993,8.51139610359103,0.6361912291264876,2.5948071073744976,0.005792831725451664
16.0,34.95834878884727,9.481051306648064,0.63773054814471,2.5910680515895788,0.005755017547998334
17.0,38.5427983739384,10.599237023251689,0.639389980844715,2.587042085709673,0.005730662746249187
18.0,42.48924461978985,11.711997050292165,0.6411709311260296,2.58272743761804,0.005718026111545007
19.0,46.6184005931493,12.97212637412591,0.6430727604324018,2.5781282190923247,0.0057157224524382625
20.0,50.95196276807085,14.389364402758511,0.6450980312590766,2.5732403054538606,0.005722631873100099
21.0,55.56213002074526,15.863203092526202,0.6472454904882515,2.568069996960414,0.005737837955163907
22.0,60.33778973337404,17.460290075533578,0.649514303344461,2.562622695074232,0.005760579939933216
23.0,65.23635775146009,19.199053550856675,0.6519028986902022,2.5569061166628533,0.005790219249611283
24.0,70.26526626689952,21.02136996387066,0.6544088552403385,2.550930232687127,0.005826213296914542
25.0,75.34413646575585,22.9427693351097,0.6570275732736458,2.5447106433337803,0.005868096586781507
26.0,80.405376657257,24.969401070901025,0.6597546865793334,2.5382626434258007,0.005915463951807189
27.0,85.41379028015504,27.067311625713792,0.6625842388963717,2.5316057083140766,0.005967962141457288
28.0,90.30698440630668,29.22741166218988,0.6655079727820102,2.5247643867617318,0.006025277931824734
29.0,95.02607230484995,31.44230770377504,0.668517529853076,2.5177641118689777,0.006087132415286319
30.0,99.53272662243135,33.68992047707876,0.6716027685894511,2.510634555894374,0.006153274708851217
31.0,103.7907349994276,35.955533172051865,0.6747521021650357,2.503408250650066,0.006223477861263095
32.0,107.7718134427889,38.228187062556756,0.6779541384505114,2.4961176117896615,0.006297532923828471
33.0,111.46174971600993,40.495342141791106,0.6811966740920077,2.488796890985829,0.006375249202160644
34.0,114.85513885863539,42.74829893732854,0.6844678418700583,2.481479153112629,0.006456449587124397
35.0,117.9541030159098,44.98224318974008,0.6877558213009259,2.4741975118190958,0.006540969563599864
36.0,120.76793118831259,47.19467443201827,0.6910491441676362,2.4669837347460737,0.006628654201671738
37.0,123.3103783877782,49.385998944182745,0.6943381596211601,2.459865236685122,0.006719357791796121
38.0,125.59757115614333,51.5590996087747,0.6976142497666457,2.4528671591091262,0.0068129420186241844
39.0,127.64648295089587,53.718695685955105,0.7008701141646436,2.446011018007783,0.006909275810025688
40.0,129.47358028127545,55.870627555344555,0.7040991025401556,2.439316460581496,0.007008234712007393
41.0,131.0938518490272,58.021295256064604,0.7072970514384652,2.4327967567136444,0.007109699046401746
42.0,132.5202053348846,60.17716316128097,0.7104605535894056,2.426463410118451,0.007213553449309955
43.0,133.76327035221914,62.3444241903372,0.713587149825804,2.420324617884568,0.007319687771425927
44.0,134.83159747507267,64.52853717614293,0.7166754621312224,2.4143864823247383,0.007427995022187023
45.0,135.73170696454295,66.73412792830447,0.7197251347341839,2.408650703880117,0.0075383723326927984
46.0,136.46868560038868,68.96481713894231,0.7227359831255791,2.403119568540507,0.007650719526884949
47.0,137.0463981952955,71.22316129782945,0.7257087964325187,2.3977916303854916,0.007764939492438681
48.0,137.46794191998063,73.51086590375245,0.7286440149819573,2.392666106253331,0.007880938287648905
49.0,137.7361812562335,75.82870022163355,0.7315434147474266,2.3877389286951973,0.007998624373509317
50.0,137.85379666827183,78.17650123701665,0.7344078317678924,2.383007714483432,0.008117907780712936
51.0,137.8237442457207,80.55366728592334,0.7372387369839458,2.378467614064587,0.008238702143344654
52.0,137.64931968846355,82.95888301483949,0.7400378684636277,2.374113529092077,0.008360922537677899
53.0,137.33423178779074,85.39044134876035,0.7428060499516576,2.3699428391073543,0.008484486128373542
54.0,136.8827514812892,87.84628238897021,0.7455450779780277,2.365949423888798,0.008609311779092747
55.0,136.29967679196287,90.32408867326363,0.7482557572136217,2.362130039029956,0.008735321122729817
56.0,135.59018389391,92.82134597845493,0.7509394342995224,2.3584801523966874,0.008862436536739017
57.0,134.75990666260017,95.33548456050245,0.7535974200675671,2.3549945703699025,0.008990583201383002
58.0,133.81481855430403,97.8636727460428,0.7562300758916357,2.35167029526061,0.009119687386875333
59.0,132.76121676442912,100.403135991895,0.7588384891909258,2.34850416766775,0.00924967682167185
60.0,131.60567229700987,102.95110649229794,0.7614231894668585,2.3454931770520555,0.009380480744911096
61.0,130.35467781546043,105.50495041032089,0.7639845886705859,2.342633834764354,0.0095120310829291
62.0,129.0151214855296,108.06179445271977,0.766523634232031,2.3399237228154255,0.009644259734957476
63.0,127.5935231994444,110.61900402962024,0.7690403993336177,2.3373608369271763,0.009777101340156002
64.0,126.09682032507638,113.17382508897443,0.7715347486811938,2.3349448385277594,0.009910490833271333
65.0,124.53156999256059,115.7237992520604,0.7740075503060071,2.3326725886388227,0.010044365765282602
66.0,122.90436873244718,118.2664361609894,0.7764583749926289,2.3305437396194413,0.010178664669407847
67.0,121.22163721794938,120.79937021671407,0.7788872590034668,2.3285580600064737,0.010313326931539772
68.0,119.48946541101124,123.32039286798964,0.7812946084421599,2.326713444789971,0.01044829444988713
69.0,117.71385870744805,125.82738625171162,0.7836800404384263,2.32500962647776,0.010583509738836771
70.0,115.9006595183446,128.31838239887122,0.7860432484086741,2.323447616165123,0.01071891638605393
71.0,114.05559368041703,130.79120600735743,0.7883841746197398,2.32202822222256,0.010854459425458861
72.0,112.18384185587861,133.24453843271218,0.7907028465842969,2.3207497270384208,0.010990085935419227
73.0,110.29068952608233,135.67651176934865,0.7929983852076087,2.31961564325001,0.011125743390603689
74.0,108.38079911832149,138.0860746144953,0.795270863380353,2.318624474488552,0.011261381256325967
75.0,106.45879315952702,140.47190621420054,0.7975198960398281,2.3177777151095724,0.011396949511946789
76.0,104.52909402854408,142.83284600618427,0.7997448461103787,2.3170778167727515,0.0115323999345132
77.0,102.59562760729374,145.16819451945028,0.8019455846032536,2.316523977961066,0.01166768555111008
78.0,100.66225735423568,147.47711492150825,0.8041216287976751,2.3161180489652295,0.011802760443719458
79.0,98.73262898476814,149.7590224866756,0.806272633415593,2.3158615250344914,0.011937579775174947
80.0,96.80994160089361,152.0135524723626,0.8083982107522855,2.3157545232898378,0.012072100345070304
81.0,94.89748805764977,154.2403046841053,0.810497713955311,2.3157996081314076,0.012206279828955148
82.0,92.99807238345173,156.43929056672195,0.8125709008072848,2.3159968531756974,0.012340077164638369
83.0,91.11450678493162,158.61016655008584,0.8146172299126336,2.316348717371602,0.012473452409475172
84.0,89.24931616011519,160.75320585123444,0.8166362082641033,2.3168558901273673,0.01260636711029467
85.0,87.40472616607353,162.8686888092216,0.8186275390319673,2.3175188837541683,0.012738783692842507
86.0,85.58280112531835,164.95688294997424,0.8205906806265937,2.3183387552279,0.012870665798233833
87.0,83.78537189588238,167.0182625369898,0.8225252988004129,2.319315465633539,0.013001978286984097
88.0,82.0144308099577,169.05313821860506,0.8244307659374489,2.320451377799975,0.013132687129568386
89.0,80.27154491988874,171.06216634833675,0.8263067625461678,2.3217466111396474,0.013262759525778173
90.0,78.55815501922369,173.0459581718823,0.8281528087839599,2.323201465020336,0.01339216358032863
91.0,76.87561580582535,175.00523298656083,0.8299684448044583,2.3248166028319917,0.01352086842015521
92.0,75.22481502218348,176.94105898079127,0.8317534401383548,2.3265900436839413,0.013648844551321001
93.0,73.6068883019224,178.85402790339023,0.8335072816163294,2.328523378532953,0.01377606376358477
94.0,72.02276515376559,180.74502985446262,0.8352295213641454,2.330616571405782,0.013902498745930697
95.0,70.47319003680477,182.61504987886278,0.8369198492882755,2.332868719447606,0.01402812304989105
96.0,68.95883847857424,184.46504396731504,0.838577754259655,2.3352796326306278,0.014152911445384683
97.0,67.48011749871526,186.29612995436025,0.8402030184570091,2.3378477760714147,0.014276839754377326
98.0,66.0374259882088,188.10932456998574,0.8417952427107158,2.3405723464732557,0.014399884674904315
99.0,64.6310615172916,189.90573164999887,0.8433540995692106,2.3434519633738913,0.014522024160782228
100.0,63.26112976058918,191.68655118713593,0.8448793677715936,2.346484907760669,0.01464323721851546
101.0,61.927739241994516,193.4528212115685,0.8463707049512526,2.349669667275468,0.014763503559392677
102.0,60.63087776220022,195.2057289941161,0.8478278899942133,2.3530044628610822,0.014882804196346612
103.0,59.37049191550414,196.94636057805243,0.8492506633909063,2.3564874120702757,0.015001120970597822
104.0,58.14639573150091,198.6759091818193,0.8506388230106835,2.3601161633306402,0.01511843672793665
105.0,56.95823329944843,200.39559272718736,0.8519922470363689,2.363887737273435,0.015234734746215176
106.0,55.80586754141902,202.10641044595565,0.853310735640632,2.367800804127403,0.015350000356088127
107.0,54.68892088258817,203.80952288741585,0.8545941696548038,2.3718527177853903,0.015464219032613401
108.0,53.6067851424505,205.5062332649101,0.8558425761933395,2.3760396235660517,0.015577377016280999
109.0,52.559002531146,207.1976241355854,0.8570559752161898,2.3803588570365157,0.015689461991115455
110.0,51.54489026010988,208.8849631393246,0.858234474437194,2.38480662771533,0.015800462141148275
111.0,50.56380171714929,210.56934303244148,0.8593781696036729,2.3893795112385576,0.0159103666338531
112.0,49.61503694932796,212.25186447678524,0.8604871863769825,2.3940737916733217,0.01601916549068229
113.0,48.697809930655644,213.93360145595315,0.8615619149389436,2.398885281115895,0.016126849152550138
114.0,47.81134834349219,215.6155293119068,0.8626026415486183,2.4038100565974614,0.016233409547514222
115.0,46.954836872572905,217.29871743352066,0.8636098306744217,2.4088436278993384,0.016338839213693244
116.0,46.12742766672659,218.98413889938925,0.8645838814386658,2.4139815053493456,0.01644313155949528
117.0,45.32825746329651,220.6726842948991,0.8655254079796157,2.4192191122259925,0.01654628029412467
118.0,44.55630274510214,222.36534923974807,0.8664352010934735,2.4245510284185023,0.016648280372943823
119.0,43.81060460897083,224.06302652131663,0.8673139658317582,2.4299719792111643,0.016749127325662076
120.0,43.09017322260008,225.76654820765464,0.8681625613859483,2.435476480480549,0.016848817683380864
121.0,42.39402291411574,227.47662605523212,0.8689819660620416,2.4410589125048165,0.0169473487850555
122.0,41.721163182759874,229.19397110775736,0.8697731529989763,2.4467134810399833,0.017044718157192197
123.0,41.07056085259851,230.91925056215408,0.8705372057042708,2.45243382044658,0.017140924627154337
124.0,40.44128162088319,232.65294484799236,0.8712753078083882,2.458214241539272,0.017235967627522508
125.0,39.832290937036376,234.39557035818314,0.8719886824384832,2.464048125219304,0.01732984688319163
126.0,39.24269925015175,236.14740582037618,0.8726786022760827,2.4699297070907185,0.017422562994887335
127.0,38.67155271541573,237.90875288828454,0.8733462971632764,2.475852143274393,0.01751411771827502
128.0,38.11806897905785,239.6797333432291,0.8739930718973318,2.481809486061754,0.017604513022781876
129.0,37.58138262180111,241.46039075316466,0.8746202468633406,2.4877951700557794,0.01769375185136448
130.0,37.060762661138,243.25060523176433,0.8752290925765694,2.4938033754759013,0.017781837187662023
131.0,36.55546257676471,245.05020508556524,0.8758208790132636,2.4998277784750704,0.017868773504510348
132.0,36.06483638430932,246.85895571960657,0.876396791117926,2.5058624468511645,0.017954565672253342
133.0,35.588216168391575,248.67643664835435,0.8769579648447278,2.511902263465792,0.01803921864619233
134.0,35.12484933480229,250.50231128357868,0.8775055253884327,2.5179413248769222,0.018122738512706748
135.0,34.674122175462536,252.33613160068333,0.8780404080015405,2.52397483442132,0.01820513210325058
136.0,34.23522157782144,254.17746655765802,0.8785636292881354,2.529997491526181,0.018286406398404873
137.0,33.80749717492666,256.02570279739103,0.8790759837376043,2.536005017824975,0.018366569023753155
138.0,33.390309269537255,257.88023229919355,0.8795782304372498,2.541992765376796,0.01844562851404783
139.0,32.98315576659441,259.7402155466691,0.8800709653024337,2.5479569872510557,0.01852359385442254
140.0,32.58555411489353,261.60478611648495,0.8805547571964324,2.5538937405762625,0.01860047451967891
141.0,32.19708966194816,263.4729118621087,0.8810301039185509,2.5597992274487384,0.018676280370395273
142.0,31.817393649660243,265.3435345321546,0.8814974479211773,2.565669725239262,0.018751021978656565
143.0,31.446231716271487,267.21538830907724,0.8819570189343298,2.5715021096056216,0.01882471046693803
144.0,31.083501144001175,269.08705662455327,0.8824088640323265,2.5772938261895084,0.01889735773543258
145.0,30.728909756375042,270.95740450374586,0.8828534363835406,2.5830408054215885,0.018968975257424216
146.0,30.382404227351586,272.82483303821306,0.8832905728930986,2.5887407226961834,0.019039576022530483
147.0,30.043813083729347,274.6879669563403,0.8837203664850896,2.594390117690304,0.019109172906360734
148.0,29.713050116206304,276.54538187543454,0.8841429057078879,2.5999858230411323,0.019177779120473942
149.0,29.389993982811326,278.3955482912154,0.8845580711170327,2.6055245574520103,0.019245408590736528
150.0,29.074574464286826,280.23685596938503,0.8849656883263851,2.6110034007906937,0.019312075703282326
151.0,28.76662888237125,282.0678022026687,0.885365642503449,2.6164183209555145,0.019377795122205766
152.0,28.46609203652019,283.88679845896456,0.8857577391017722,2.621765935670416,0.0194425817994433
153.0,28.17291093529114,285.6921862862124,0.8861416832836564,2.6270429862667806,0.01950645109495421
154.0,27.886999944928796,287.4824015822816,0.8865172249181408,2.632245302873676,0.01956941854936044
155.0,27.60813617782708,289.2560212994084,0.8868842976432489,2.6373676569560685,0.019631499913088796
156.0,27.336186549861722,291.0113372202304,0.8872425818875119,2.6424059292414332,0.019692711418228235
157.0,27.07103508668911,292.7467523628385,0.8875917538428529,2.6473553913905814,0.019753069313522064
158.0,26.81251060067107,294.46065032348423,0.8879315380982771,2.65221076183407,0.019812590054004642
159.0,26.560492246606888,296.1513344398003,0.8882615452869111,2.6569669346082354,0.019871290301818
160.0,26.31476578703664,297.8172523037107,0.8885816099744906,2.661617750841512,0.019929186713683694
161.0,26.07515797086252,299.45679174024957,0.8888914747921268,2.6661570863274635,0.01998629603543434
162.0,25.841506399041833,301.06834520270127,0.8891908663854382,2.670578619869394,0.020042635015003602
163.0,25.613617057990908,302.65021502196174,0.8894794638962166,2.6748758849336456,0.0200982204424721
164.0,25.391332106592518,304.2007175236595,0.8897569879931855,2.6790422811755854,0.020153069062939274
165.0,25.174493965487994,305.71812488251794,0.8900231275625737,2.6830710150893116,0.020207197589188694
166.0,24.96297427321581,307.2006600422009,0.8902775069627685,2.68695545382302,0.02026062256601668
167.0,24.75657285203132,308.6467761764703,0.8905200328842251,2.6906875596842474,0.020313360379475242
168.0,24.555114595749405,310.05483659128214,0.8907505415076208,2.6942596766160487,0.020365427318439377
169.0,24.358501755956294,311.42292156437605,0.8909685638430993,2.6976656636680536,0.02041683955220089
170.0,24.16654337118761,312.74947632723416,0.8911740682095317,2.7008972556313426,0.02046761299377924
171.0,23.979150209285006,314.03270476821376,0.8913667611454854,2.703947614458435,0.02051776335274637
172.0,23.796197763744786,315.270952510958,0.8915464741969625,2.7068092628954306,0.020567306089017696
173.0,23.61763587242666,316.4624265079619,0.8917129833839991,2.70947589893126,0.020616256434052245
174.0,23.443345955041018,317.60544050323654,0.891866137394895,2.7119405159777337,0.020664629440434616
175.0,23.27327277286302,318.69825776925524,0.8920057489846996,2.7141968583529708,0.020712439837871365
176.0,23.107364522170922,319.739170619571,0.8921316679086829,2.7162389511652156,0.020759702111864894
177.0,22.945592967046327,320.72649032706244,0.8922437644226973,2.7180611787317672,0.020806430455144156
178.0,22.787959669687574,321.6585046485944,0.8923418783769728,2.7196585842910737,0.020852638753353782
179.0,22.634456591482532,322.53360532813787,0.8924259549270775,2.7210263638964376,0.020898340690214703
180.0,22.485113536043155,323.35014509918466,0.8924958918892203,2.7221605759634153,0.02094354961377894
181.0,22.339973733724975,324.10651133957737,0.8925516127874774,2.7230578508118044,0.020988278583153008
182.0,22.199095282849356,324.80113281757673,0.8925930580544126,2.7237153236113936,0.021032540374122846
183.0,22.062556838492217,325.432489780422,0.8926202193898022,2.724130877359462,0.021076347471979978
184.0,21.930503713844786,325.9990011115721,0.8926329950775265,2.724303528220596,0.02111971196165004
185.0,21.80306663601214,326.4992087601824,0.8926313912023367,2.724232697686625,0.021162645687401012
186.0,21.680362091745902,326.9317606819173,0.8926154486970971,2.723917964449617,0.021205160206176108
187.0,21.562608359033064,327.2952072464507,0.8925851396157878,2.723360781798488,0.02124726662828379
188.0,21.449953729816116,327.5883112903794,0.8925405314075265,2.7225621610157265,0.021288975848415586
189.0,21.342645758585338,327.80975937499187,0.8924816464157607,2.7215248259254725,0.02133029831477458
190.0,21.240928223462504,327.95832755749535,0.8924084942026582,2.720251951702166,0.02137124414486143
191.0,21.1450166999465,328.0330276023624,0.8923212670639807,2.71874629599171,0.021411823123034066
192.0,21.055230472415275,328.032667356009,0.8922199195214917,2.7170130330865563,0.021452044580079946
193.0,20.97180653510897,327.95645922905373,0.8921046974492125,2.7150558508641707,0.02149191753247635
194.0,20.89508865950297,327.8034222522564,0.8919756489543169,2.7128807887070012,0.021531450560599266
195.0,20.82538014914105,327.57278881825664,0.8918329110343169,2.7104934148659794,0.021570651864333455
196.0,20.76302736075942,327.26386295371725,0.8916766329478946,2.707899871289679,0.021609529211572203
197.0,20.70839061940039,326.87607492854306,0.8915070059060809,2.705106635496533,0.021648089924941202
198.0,20.661841999598007,326.4089153477484,0.8913241566753447,2.702120559103226,0.021686340938709796
