Time,J,A,S,tau,r
0.0,1.0,1.0,0.8572223577581359,27.027027027027028,0.0
1.0,0.9994032618645046,0.6065259948095717,0.8567202436669618,28.02509739713547,-0.005000000000000001
2.0,0.9988402256684724,0.3678737661452165,0.8562462007694465,29.023333381979946,-0.005000000000000002
3.0,0.9982813807414533,0.2231249849129047,0.8557755862029224,30.021601144124098,-0.005000000000000002
4.0,0.9977262649965377,0.13533109019007628,0.8553080396783423,31.019893406770652,-0.005000000000000002
5.0,0.9971744254529697,0.08208181512787788,0.8548432116998984,32.01820226047765,-0.005000000000000002
6.0,0.9966254169229355,0.049784749009670726,0.8543807186417833,33.01652815521498,-0.005000000000000001
7.0,0.9960788007157013,0.03019574121354313,0.8539202202368505,34.014863775230026,-0.005
8.0,0.9955341433672354,0.0183145002671189,0.8534613548904573,35.01320709077883,-0.005000000000000001
9.0,0.9949910153963776,0.011108219664642961,0.853003743090573,36.01156045193108,-0.0050000000000000044
10.0,0.994448990085721,0.006737423640120501,0.8525470322369337,37.0099211607439,-0.005000000000000007
11.0,0.9939076422865951,0.004086422481524911,0.852090890766224,38.00828245576302,-0.00500000000000001
12.0,0.9933665472528918,0.0024785214796076496,0.851634945149359,39.00664627444289,-0.0050000000000000105
13.0,0.9928252837967814,0.0015032877118181776,0.8511788280392643,40.005013910202756,-0.005000000000000013
14.0,0.9922834309236925,0.0009117830375033932,0.8507222278154879,41.00337519911912,-0.005000000000000014
15.0,0.991740562072003,0.0005530200727985232,0.8502647779199091,42.00173030280463,-0.005000000000000016
16.0,0.9911962506625693,0.0003354210174140873,0.8498061423671407,43.00007306556811,-0.005000000000000016
17.0,0.9906500690149197,0.00020344154413195624,0.8493459886075299,43.99839641108833,-0.005000000000000017
18.0,0.9901015871831871,0.00012339257112904697,0.848883946089416,44.99670069692867,-0.0050000000000000175
19.0,0.9895503717646593,7.48407939554034e-05,0.8484196624541163,45.99498190356969,-0.005000000000000018
20.0,0.9889959846890821,4.539288270670478e-05,0.8479527836126394,46.99323552936935,-0.005000000000000019
21.0,0.9884379819902323,2.7531961238096774e-05,0.8474829187110126,47.99146362320182,-0.00500000000000002
22.0,0.9878759815246723,1.6698835983065357e-05,0.8470097675840347,48.98966043020883,-0.005000000000000019
23.0,0.9873093894995042,1.0128252404548546e-05,0.8465328338024614,49.98782324303179,-0.0050000000000000175
24.0,0.9867379731051598,6.143011907492465e-06,0.8460519816506734,50.98593872865361,-0.005000000000000016
25.0,0.9861609556437811,3.72585798886489e-06,0.8455664689976946,51.984022581467244,-0.005000000000000012
26.0,0.9855782588551693,2.259788380348117e-06,0.8450764240831408,52.98203416548875,-0.005000000000000013
27.0,0.9849892561723621,1.370578777868508e-06,0.8445808412721377,53.98007060020734,-0.005000000000000011
28.0,0.9843946147533894,8.312468010873544e-07,0.8440801198549553,54.97816779806688,-0.005000000000000013
29.0,0.9837900196930555,5.041435788887408e-07,0.8435722352665208,55.975977459607876,-0.005000000000000012
30.0,0.9831788431188387,3.0575824095586644e-07,0.8430584462026965,56.97383872103969,-0.005000000000000012
31.0,0.9825584965646751,1.8543533457317943e-07,0.8425375404566268,57.971541976100966,-0.0050000000000000105
32.0,0.9819440591160322,1.1245648535294441e-07,0.8420207655467332,58.96943743693942,-0.005000000000000011
33.0,0.9813097250856161,6.820131640220723e-08,0.841488419584993,59.967019535655794,-0.005000000000000011
34.0,0.980674035470634,4.1360922526761674e-08,0.8409544784469585,60.96468881258437,-0.005000000000000011
35.0,0.9800268639870815,2.508361122800724e-08,0.8404115041957635,61.962185383155216,-0.005000000000000011
36.0,0.9793676455346239,1.521219126531168e-08,0.8398587384894699,62.95956599763244,-0.005000000000000012
37.0,0.9786954346518718,9.225629495793349e-09,0.8392950898984296,63.95688897664049,-0.005000000000000013
38.0,0.9780100494139867,5.594993155319796e-09,0.8387205152842543,64.95413049413852,-0.005000000000000014
39.0,0.9773108355783422,3.3931401415494594e-09,0.8381351381764489,65.95114700213702,-0.005000000000000014
40.0,0.9765959776274634,2.0578103070365765e-09,0.8375368191883865,66.94805983076617,-0.005000000000000014
41.0,0.9758546515225102,1.2479686226208077e-09,0.8369201899998646,67.94404820269929,-0.005000000000000015
42.0,0.9751046806085713,7.568555416638351e-10,0.836295504753086,68.9401651410188,-0.005000000000000016
43.0,0.9743299711378182,4.5902854269210415e-10,0.8356512575296137,69.93592855463301,-0.005000000000000016
44.0,0.9735450393731875,2.783912886155791e-10,0.8349992622122975,70.93147120548207,-0.005000000000000016
45.0,0.972740662599204,1.6883532902016467e-10,0.8343307927604635,71.92696384073871,-0.005000000000000015
46.0,0.9719090177931249,1.0239759329480491e-10,0.8336431487800958,72.92156226100253,-0.005000000000000013
47.0,0.9710576342161806,6.210449059907712e-11,0.8329416271342363,73.91550842545378,-0.005000000000000013
48.0,0.9701852973962054,3.766659083616314e-11,0.8322251383442252,74.9088104174444,-0.005000000000000012
49.0,0.9692919185341857,2.28451464705182e-11,0.8314934215773397,75.90150509787848,-0.0050000000000000105
50.0,0.9683728227973809,1.3855712064369379e-11,0.8307414883521314,76.89379688748797,-0.00500000000000001
51.0,0.9674285389646499,8.403567566613755e-12,0.8299721396265612,77.88518792916773,-0.00500000000000001
52.0,0.9664604611202748,5.096842125988364e-12,0.8291870614914407,78.87557141266254,-0.00500000000000001
53.0,0.9654635201761025,3.0912693962515976e-12,0.8283798255697785,79.86538400607091,-0.00500000000000001
54.0,0.9644379075222868,1.8748844619087286e-12,0.8275544328810637,80.85380975692763,-0.0050000000000000105
55.0,0.9633848753932234,1.1371366412741636e-12,0.8267103497640732,81.84118479497415,-0.005000000000000012
56.0,0.9622983150999515,6.896870318837712e-13,0.8258445351213558,82.82703712930822,-0.005000000000000013
57.0,0.9611813288168007,4.1829894247626317e-13,0.8249575572620944,83.81180591116501,-0.005000000000000015
58.0,0.9600279891297179,2.537023772098469e-13,0.8240479593526238,84.7947130714645,-0.005000000000000015
59.0,0.9588409066502819,1.5387409100265129e-13,0.8231199279999049,85.77533589434312,-0.005000000000000016
60.0,0.9576156934684272,9.332680832381032e-14,0.8221692479218178,86.75376017594833,-0.005000000000000016
61.0,0.9563512401309213,5.6604126294448715e-14,0.8211961065168196,87.7297321384559,-0.005000000000000016
62.0,0.9550459569605814,3.4331265495075476e-14,0.8202005965544041,88.70292822777556,-0.005000000000000016
63.0,0.9536991952582093,2.0822457083902346e-14,0.8191836521964606,89.6730154296922,-0.005000000000000016
64.0,0.952307889764654,1.26291590547279e-14,0.8181452588151408,90.63941667024702,-0.005000000000000014
65.0,0.9508701833191671,7.65977875507334e-15,0.817084907871436,91.60187969357658,-0.005000000000000014
66.0,0.94938460236071,4.6457799467902184e-15,0.8160038198405524,92.5598489181743,-0.005000000000000015
67.0,0.947847582314892,2.817746602337626e-15,0.8149028601606373,93.51245405365093,-0.005000000000000014
68.0,0.9462541180886684,1.7090148179130482e-15,0.8137818607563824,94.4587741245487,-0.005000000000000012
69.0,0.9446080294338535,1.0365521546455084e-15,0.8126445636418292,95.39867437536685,-0.005000000000000015
70.0,0.9429002403184901,6.28688845600266e-16,0.8114905090277635,96.33052920998048,-0.005000000000000015
71.0,0.941137004385921,3.813080382762741e-16,0.8103208856544868,97.2551981282917,-0.005000000000000017
72.0,0.9393090803969439,2.312718079784702e-16,0.8091426797522832,98.16939632213288,-0.005000000000000016
73.0,0.9374149973662084,1.4027152349923468e-16,0.8079555695136822,99.0728547760006,-0.005000000000000014
74.0,0.9354543137445938,8.507813709265619e-17,0.8067625146963394,99.9647784568609,-0.005000000000000011
75.0,0.933422317139985,5.160199150863258e-17,0.8055677143406691,100.84329275876611,-0.005000000000000012
76.0,0.9313158616648839,3.1297887935007864e-17,0.804374083054107,101.70708130119331,-0.005000000000000011
77.0,0.9291330485560534,1.898299030393995e-17,0.8031845686022855,102.55504242156312,-0.005000000000000011
78.0,0.9061589666144638,0.016724977523533323,0.802005276461773,103.38490309532503,-0.004992593678691761
79.0,0.8685728439730109,0.040560742531449256,0.8008413492468603,104.19490589434321,-0.004980343843816366
80.0,0.8197804240204543,0.06774771322423752,0.7996988789564292,104.98290043833667,-0.004964545168975524
81.0,0.7612560533793451,0.09741783137552,0.7985829095860867,105.74689021116559,-0.004945721605170949
82.0,0.6939753498455971,0.1294803277108329,0.7974996355845181,106.48472686362354,-0.004924156554132898
83.0,0.6187882436831653,0.16411845392317184,0.7964545714340013,107.19425343523727,-0.004900019142970535
84.0,0.5365950587959317,0.2016119201004109,0.7954539096070798,107.87316349117204,-0.00487341476399009
85.0,0.4484572228128576,0.242259896410553,0.7945036949775138,108.51916021219239,-0.004844412273469012
86.0,0.35567817292788173,0.28634146190727805,0.7936090447399947,109.13007902940691,-0.00481306175738155
87.0,0.2598437825380653,0.3341562258621253,0.7927760568900559,109.70351430743507,-0.004779389151501728
88.0,0.16290372522342816,0.38596596213507645,0.7920092209442587,110.23734756849603,-0.004743415011162055
89.0,0.0672122304958985,0.44203608384472753,0.7913129269626991,110.72947365754305,-0.004705150269491455
90.0,-0.024410414443580487,0.5025897710150284,0.7906908620221034,111.17788518542902,-0.004664608321967118
91.0,-0.10864121211162851,0.5678554853725042,0.79014639415476,111.58060782202142,-0.004621799141711939
92.0,-0.18160258842352148,0.6380660657233818,0.7896814712195913,111.93594684367794,-0.004576731835127183
93.0,-0.23880854570935756,0.7134553513113224,0.789297867167075,112.24217638908615,-0.00452941618892286
94.0,-0.2751380864503702,0.7941926803767407,0.7889967016301864,112.49770503629406,-0.0044798746946963204
95.0,-0.28477804239825916,0.880556846064419,0.7887778639724716,112.7011639607919,-0.004428119346300525
96.0,-0.2611731345424339,0.9727905752161728,0.7886407574951573,112.85126377250263,-0.004374170789275724
97.0,-0.19694165594866722,1.071256398908761,0.7885841063571081,112.94677421207909,-0.004318040891016436
98.0,-0.08385711272654756,1.176245220811014,0.7886059237143414,112.98662894588615,-0.004259754554057458
99.0,0.08724894472720826,1.2881583650871382,0.7887034843896549,112.969887979639,-0.004199331037209928
100.0,0.32651174673234334,1.40739331975989,0.7888739050407075,112.89553686899058,-0.004136796362514093
101.0,0.6452371403498692,1.5345781212498883,0.7891132628112251,112.76282091610464,-0.004072161682607704
102.0,1.0559231461247192,1.6703208185831782,0.7894178370813526,112.57082210865077,-0.0040054462483292514
103.0,1.5724744402108106,1.8153917250672658,0.7897830489838678,112.318801939824,-0.003936662326707551
104.0,2.210217307359188,1.9706203132251683,0.7902031964328546,112.00626345475747,-0.003865826162484204
105.0,2.986352699385679,2.137241134992724,0.7906743931101592,111.63213235751216,-0.003792934556565124
106.0,3.9200422272790965,2.316504491622092,0.7911901348046214,111.19597341351913,-0.003717990925399097
107.0,5.032767118384875,2.5099054046205707,0.79174417208568,110.69721527211573,-0.003640992791720907
108.0,6.348914916665958,2.7196644866599464,0.7923314592966856,110.13489503657588,-0.0035619131353166046
109.0,7.896007730136425,2.948008505241258,0.7929441813878527,109.50871886480502,-0.0034807367369428808
110.0,10.067341887428096,2.723500765016816,0.843908567969517,35.338673556365144,-0.003281702962889846
111.0,12.19193858419533,2.400555657375579,0.8551778873242114,27.55820152724944,-0.0031543343172252113
112.0,14.052256265255727,2.2901497182540775,0.8596527761278024,24.325327119072437,-0.0030483495163638394
113.0,15.832728663245767,2.360122864170103,0.8632497401440632,21.57058595366376,-0.0029460282052967334
114.0,17.690506716474225,2.6233410055367035,0.865245638626019,19.69565904594844,-0.002844748588302278
115.0,19.832086739369174,3.0890882872318755,0.8658856561985823,18.5047374718843,-0.002745166142872396
116.0,22.50095290664866,3.8128380380820355,0.8662613873349955,17.43579678950612,-0.002641776342591503
117.0,26.063986042502624,4.865491380302642,0.8664670950421032,16.43729764533893,-0.002533437045343644
118.0,30.926289030310546,6.2194137368868425,0.8664916251944698,15.500254198286875,-0.0024222215177387143
119.0,37.32896599956036,7.843789635881711,0.8663278797224658,14.622960307657621,-0.0023100803874296955
120.0,45.458824626697776,9.868210606137115,0.865211013834635,14.245717553785102,-0.0021997395328987187
121.0,55.80338920130378,12.11396397569738,0.8648239613852949,13.488634362771744,-0.0020845700084792
122.0,68.49315951560685,14.775919655377738,0.8642124979704919,12.792228394715066,-0.0019687983732975547
123.0,83.95346677024247,17.54972866373401,0.8628928855457266,12.470186848083934,-0.0018541706258365924
124.0,102.34969844621106,19.88176111996895,0.8616809729232909,11.998720138786618,-0.00173783061262998
125.0,122.88735659116766,22.177962302216542,0.8602966883542488,11.554378689825917,-0.0016208133668357421
126.0,145.00175416918526,25.07938734026016,0.8590003647797335,11.320558806377115,-0.0015010111017460669
127.0,168.81103443624872,28.76190384469812,0.857334626640539,10.765474147642522,-0.0013833938961818045
128.0,193.80613766606314,34.21161046569108,0.8555189339791159,10.540218158070351,-0.001263833502164369
129.0,219.8648559229116,41.9968367155859,0.8541187384720779,10.347767286224125,-0.0011412604805195027
130.0,246.7244932154028,52.141682372380124,0.8518234439661815,10.02629476717785,-0.0010224814443605312
131.0,272.67653914941644,65.25242088475272,0.8493417060403062,9.689505654534305,-0.0009036287527274939
132.0,295.21961289701034,81.90405044349149,0.847461678726575,9.526931621848556,-0.0007805983964165504
133.0,312.3829260601884,101.62397523846062,0.8458185765690847,9.378103717650013,-0.0006566537658975791
134.0,322.8901991537659,123.43807379334217,0.8432825334144389,9.210870119449549,-0.0005350320454659619
135.0,325.20462220899185,147.40535362889486,0.8402121531709791,8.925469375603607,-0.0004161844500137985
136.0,318.36492123227123,173.77710046515168,0.8369692889571978,8.733533716867699,-0.00029691015716459975
137.0,301.5318373426512,203.29002805588624,0.8342959257135146,8.607812916945134,-0.00017444268685616585
138.0,275.4493698005921,235.62253825596366,0.8321740485327721,8.499736032984055,-5.141295951981807e-05
139.0,241.92866457410358,269.8819375078732,0.830020914306393,8.397121349997901,7.116322521995438e-05
140.0,203.756609287498,304.49048193477813,0.8273201473957912,8.291709027771901,0.0001930138978576489
141.0,163.8456943043839,337.7527185947553,0.8239468548912957,8.17433456116731,0.00031291261911900643
142.0,124.35764433103294,368.52569696611556,0.8201715095827513,8.028623980258379,0.0004306582719215559
143.0,88.69043497896249,394.18463132653653,0.8162714979072576,7.882466705729222,0.000547777736818285
144.0,61.125377858725166,411.0351183233311,0.8124397506248506,7.776058666486736,0.0006655853799160205
145.0,41.53645442056959,419.604960687753,0.8089307040943314,7.690721039534807,0.0007842804872720885
146.0,28.087409237856257,421.97070675063964,0.8058109755342732,7.61693735556402,0.0009026599333868382
147.0,19.192232707466406,419.85592745393126,0.8029965068824076,7.550354039039929,0.0010199036381901832
148.0,13.556958889582797,414.6344952296298,0.8003221624640598,7.488165916199996,0.001135905871880228
149.0,10.147083582665324,407.3893817284484,0.7976061760675914,7.428330931615871,0.0012508646581535483
150.0,8.215089466535618,398.9003200049217,0.7947000601588209,7.369261658897741,0.001364962816855788
151.0,7.24246800148451,389.7099412328638,0.7915164821965129,7.30966357949772,0.0014782111953893632
152.0,6.879207920822664,380.18823497560686,0.7880345793080767,7.248464516345723,0.0015904062554565697
153.0,6.897805563582836,370.5803836271503,0.7842892952262411,7.184810355993488,0.0017012287519206797
154.0,7.138460304988691,361.06257342054244,0.7803509778230636,7.118190757617627,0.001810465538247228
155.0,7.49099399639659,351.7609135542146,0.7763022408482051,7.0491543601765345,0.0019181608216469902
156.0,7.953108418145571,342.694067208137,0.7722176633294663,6.980578643506842,0.002024541214750345
157.0,8.613454073920332,333.79038657755683,0.7681596801048844,6.916471300264394,0.002129850393136247
158.0,9.504094598757515,325.0363014885522,0.7641861186564872,6.858651151523882,0.0022342292509187076
159.0,10.593568447474112,316.4818882339271,0.760348919691759,6.80678681387426,0.0023376451369357303
160.0,11.85303761245524,308.1743904548083,0.7566865839055082,6.759988086188741,0.002439901553666003
161.0,13.270208918531527,300.1438192407923,0.7532213827940444,6.717423317125514,0.0025407474046984487
162.0,14.840852956108444,292.41093034693967,0.7499603142326717,6.678388287068179,0.0026399825868666767
163.0,16.561973816871767,284.99348828827704,0.7468969340312799,6.642292360823024,0.002737501681950196
164.0,18.428333464602154,277.9089210291951,0.7440148524644365,6.608646075400529,0.0028332827533052666
165.0,20.431575365756444,271.1746433038169,0.7412906776779148,6.577046601542067,0.002927356983697236
166.0,22.56022259303727,264.8072986934313,0.7386976411832846,6.5471668022437255,0.0030197806671120784
167.0,24.799883938681877,258.8217657684903,0.7362085755625702,6.518741693733962,0.00311061721368843
168.0,27.13329819624901,253.23055284322044,0.7337981061629333,6.491558233160145,0.0031999279913812913
169.0,29.54026281644055,248.04359818942206,0.7314442455615192,6.465445024054236,0.0032877680685819326
170.0,31.997452515734324,243.2679789303692,0.7291295224769532,6.4402674935013975,0.0033741846896481395
171.0,34.4784341288428,238.90798683649004,0.7268414535906023,6.415920753332144,0.003459218141091563
172.0,36.95365880858263,234.96545732080523,0.7245724021475962,6.392322978660558,0.003542900586704735
173.0,39.391094320549314,231.43951745728745,0.7223193773712869,6.369419847636494,0.003625259638105199
174.0,41.75720012705585,228.32641474701344,0.7200832611344975,6.347172296207572,0.00370631615210936
175.0,44.019176124682886,225.61841795441853,0.7178680302037395,6.325562539904084,0.0037860878328153237
176.0,46.14616499721906,223.3036502508768,0.7156802072365471,6.304586401817789,0.003864588429176333
177.0,48.11075148574565,221.36594232090323,0.7135280960664501,6.2842522520424815,0.003941829370247392
178.0,49.890433003881,219.7847639276595,0.7114211110168569,6.26458108900203,0.004017821336087349
179.0,51.46886544110123,218.53531954264304,0.709369011306116,6.245605374428832,0.004092576012216705
180.0,52.836323044244196,217.58910974811474,0.7073817088095038,6.227365586557815,0.0041661066022384485
181.0,53.990053609027925,216.91458623525102,0.7054687447265018,6.2099078668573,0.004238429048163501
182.0,54.93378758705383,216.4780614202389,0.7036392318993241,6.1932808552919125,0.004309561907799862
183.0,55.67779982021498,216.2444944378062,0.7019013919022377,6.177537452023534,0.004379527449780743
184.0,56.237322904071284,216.1787673197849,0.7002627416776559,6.162728567860196,0.004448350702505169
185.0,56.63156056231571,216.24660090597118,0.6987300897339523,6.148903014403486,0.004516059349993488
186.0,56.882414606444385,216.415676848986,0.6973092915613707,6.13610631622993,0.004582682960053437
187.0,57.01306802714989,216.65632770683618,0.6960054228338264,6.124379187857124,0.004648253208818559
188.0,57.04682776482271,216.9422574854639,0.6948227468489645,6.1137568222942305,0.004712802826801174
189.0,57.005903528339765,217.25103965473136,0.693765018579849,6.104269848730379,0.004776365001014204
190.0,56.91056019046637,217.5643293536797,0.6928351969126985,6.095940864110193,0.004838973922452336
191.0,56.77872884084085,217.86775505445124,0.6920358213241865,6.088789486347889,0.004900663662120808
192.0,56.62538573632287,218.1507979707482,0.6913689713748922,6.082829033107752,0.004961468325533119
193.0,56.46268225019369,218.40631904807302,0.6908362172551232,6.078069332128471,0.005021422288833607
