Time,J,A,S,tau,r
0.0,1.0,1.0,0.7047905930855021,10.1010101010101,0.0
1.0,2.144667699529497,0.9832052407988682,0.6970509343239284,11.100114237530946,-0.00016929402613515622
2.0,3.2505938325776427,0.9666738129049453,0.6894493090724894,12.099276138382551,-0.00016953476457020922
3.0,4.3192866176688725,0.950409681591228,0.6819799836048414,13.098488704549727,-0.00016973633952177599
4.0,5.3521820522754435,0.9344152204322526,0.6746375095914522,14.09774560567881,-0.00016990340553352872
5.0,6.350672393427758,0.9186912123980253,0.6674165127189476,15.097041177042161,-0.0001700406645325896
6.0,7.316064081072122,0.9032366724320716,0.6603120441173522,16.096370819986877,-0.00017015312672244692
7.0,8.2496194701337,0.8880509212695242,0.6533192189277005,17.09572967536868,-0.00017024292033835666
8.0,9.15255993792546,0.8731303192561878,0.6464332071001537,18.09511442958364,-0.00017031527245901304
9.0,10.026033641403775,0.8584728329183202,0.6396495098457126,19.094521030441516,-0.0001703716012325529
10.0,10.871133888664598,0.844072612257697,0.6329638404071907,20.093947667180785,-0.00017041693213255517
11.0,11.68891444325174,0.8299257303742175,0.626371932473883,21.093391433300724,-0.00017045301824819532
12.0,12.48038718122742,0.8160276714357986,0.619869578542411,22.09284979297743,-0.0001704817988101556
13.0,13.246473285726244,0.8023752293696718,0.6134532031314134,23.092319879402492,-0.00017050373954474813
14.0,13.988097601729354,0.7889619653738804,0.6071188345466165,24.091800415468487,-0.0001705218210289508
15.0,14.706140421181018,0.7757841434428221,0.6008626602094301,25.091288675345197,-0.00017053660712804594
16.0,15.401394502459619,0.7628350020075776,0.594681449757614,26.090784179698296,-0.00017055052395935057
17.0,16.074654236684875,0.75011080850418,0.5885718017213133,27.090284454707778,-0.00017056387721431693
18.0,16.72664951351515,0.7376057860556358,0.5825304162336551,28.089788535698453,-0.00017057815862464478
19.0,17.35810295072471,0.725315620397938,0.5765539667441864,29.089294463479995,-0.00017059398034904126
20.0,17.96968173471358,0.7132347678544118,0.5706395101574173,30.088801331443356,-0.00017061252588370423
21.0,18.562016023368095,0.701359639390837,0.5647840804974549,31.08830709953868,-0.0001706339430645734
22.0,19.135708656400812,0.6896878165535143,0.5589848236491816,32.08780905148213,-0.00017065791516613466
23.0,19.691350613077642,0.678211593411949,0.5532389145709112,33.087307801789784,-0.00017068665659726733
24.0,20.22945094445828,0.6669285273274019,0.547543987458149,34.086801142995505,-0.00017071977462655946
25.0,20.75053585177616,0.6558359947450391,0.5418974163654005,35.086286665123026,-0.0001707571923004794
26.0,21.25509777651361,0.6449289114947921,0.536296650644431,36.08576367426351,-0.00017079987757305455
27.0,21.74360047469293,0.6342046853353914,0.5307392530309286,37.08522995697012,-0.00017084779415097367
28.0,22.216484956531996,0.6236608811103326,0.5252227980954136,38.08468322146149,-0.00017090092396559775
29.0,22.674172784385895,0.6132959620232775,0.5197452659019218,39.08412059889316,-0.00017095899603867295
30.0,23.11705241060329,0.6031091488926301,0.5143042373109663,40.083538748615176,-0.0001710215641779992
31.0,23.545489752743734,0.5930936752050292,0.5088978004141911,41.08293861852186,-0.00017109021744831209
32.0,23.959846841265488,0.5832524818760438,0.5035239433631207,42.08231423586421,-0.00017116339543057316
33.0,24.360451662901582,0.5735854744684811,0.49818079241602314,43.081661873760176,-0.0001712406207342586
34.0,24.747639848043313,0.5640903082503017,0.4928662072847132,44.080979026137236,-0.0001713222844874141
35.0,25.121708789365893,0.554771305929073,0.4875784401053975,45.08025863275279,-0.0001714067524552612
36.0,25.482954614745946,0.5456272408236494,0.4823158660608192,46.07949746856053,-0.00017149416288672696
37.0,25.831638591985723,0.5366589828392438,0.477076744240713,47.07869075353187,-0.0001715840801901551
38.0,26.16802608370715,0.5278697928152909,0.4718596143920385,48.07783180659181,-0.00017167549120770202
39.0,26.492382875009433,0.5192663998407895,0.4666629110375816,49.076910882600735,-0.00017176664594371004
40.0,26.80495304732291,0.510854626339339,0.461485020829131,50.07591862206053,-0.00017185617557096325
41.0,27.105986127422263,0.5026377402381628,0.4563246245285471,51.0748474445217,-0.0001719434377766066
42.0,27.39573716477053,0.4946277554652826,0.45118007703929186,52.07368217060169,-0.00017202585529987958
43.0,27.674419530778206,0.4868322184484125,0.4460506367349167,53.07241135567596,-0.00017210186817611037
44.0,27.942287614479635,0.4792649650204079,0.44093497538252024,54.071017303837074,-0.00017216878090197342
45.0,28.19958007463966,0.4719412272004616,0.43583199181348203,55.06948061736065,-0.00017222369818209983
46.0,28.446588619314202,0.4648767050623942,0.4307402525676047,56.0677800479946,-0.00017226398356704685
47.0,28.683544102100473,0.45809497582528586,0.4256595243077731,57.0658879129368,-0.0001722851089429878
48.0,28.91076058152607,0.45162118538148,0.42058869260090614,58.06377274380517,-0.00017228280257221274
49.0,29.128540812063306,0.44548544543528146,0.41552707716449316,59.061397720524965,-0.00017225185862940206
50.0,29.337259243629774,0.439724258890775,0.4104740410722739,60.05871818330119,-0.0001721861647962647
51.0,29.537299791727275,0.4343797288596053,0.40542916124653317,61.05568253182029,-0.0001720787156861625
52.0,29.729115493215446,0.42950315882435486,0.4003921810871415,62.052228018836644,-0.00017192110496350632
53.0,29.913210859634194,0.42515340599088147,0.39536290700612703,63.04828173320301,-0.00017170385638422674
54.0,30.09017533499118,0.42140304545826296,0.39034152083585805,64.04375419434125,-0.0001714153397050401
55.0,30.260701098565413,0.4183367679435484,0.3853282774811868,65.03853956686048,-0.00017104222837805577
56.0,30.425589800592544,0.41605553057045214,0.38032374440085565,66.03251078113414,-0.00017056878483706959
57.0,30.585814241820888,0.41467639368165526,0.3753287751930303,67.0255179886573,-0.00016997708439622078
58.0,30.7424959577669,0.414340011441907,0.37034446218141687,68.01737990255492,-0.00016924574515656286
59.0,30.896966589221886,0.4152123024344693,0.3653724959857837,69.00788000645868,-0.00016834980376016518
60.0,31.050829069386573,0.41748945334191573,0.360414819562964,69.99675859791598,-0.00016726013821933682
61.0,31.205982080989024,0.4214004543647847,0.3554739392758227,70.98370750982104,-0.00016594314795512048
62.0,31.36470329177897,0.42721378972657686,0.35055286812337705,71.96835946114534,-0.0001643599221815111
63.0,31.529687536495956,0.4352461830523909,0.3456553194695955,72.95027500118994,-0.00016246498365009255
64.0,31.70415883757887,0.44586063679484506,0.34078573622540975,73.92893910558472,-0.00016020692622046854
65.0,31.89194221491521,0.45947675869016663,0.33594933731941373,74.90374476567165,-0.00015752700498245802
66.0,32.09759879670647,0.4765742694767913,0.3311520126367827,75.87398223474096,-0.00015435893862012244
67.0,32.32649730987811,0.497687199515151,0.32640060729028153,76.83883864528207,-0.00015062996212503334
68.0,32.584950882390935,0.523426389364831,0.3217030550932231,77.79736579092736,-0.0001462576425159017
69.0,32.880360338861756,0.5544422566550703,0.3170678407754805,78.7485125093372,-0.00014115579492816676
70.0,33.22136029420647,0.5914368589513032,0.31250404827201184,79.69110433408412,-0.00013523273635268827
71.0,33.617829512218314,0.635145109858305,0.30802153788818415,80.62385921584344,-0.00012839394399850009
72.0,34.08111195152872,0.6863032331883631,0.30363010716268735,81.54541769175164,-0.00012054663482690287
73.0,34.62391074728652,0.7456412425317726,0.299339789586368,82.45435126709344,-0.00011160041118740094
74.0,35.26046513830696,0.8138201586135297,0.29515966950938816,83.34923555464928,-0.00010147579871611145
75.0,36.00629301529891,0.8914298979065002,0.29109824573494747,84.22866032555017,-9.0103759167104e-05
76.0,36.878230877083716,0.9789258130146372,0.28716233591419793,85.09131297715723,-7.743376891299591e-05
77.0,37.89407070848759,1.076629910692308,0.2833572422182155,85.9359913235254,-6.343270754101961e-05
78.0,39.07239570355359,1.184697097999329,0.27968626778319605,86.76165905381471,-4.8088555869868694e-05
79.0,40.43223673437113,1.3031052368123768,0.27615053785719806,87.56747512256271,-3.14108257754295e-05
80.0,41.992659497909514,1.4316770327351842,0.2727493268089718,88.35278312363882,-1.342692857538943e-05
81.0,43.77249982012452,1.5700732166155689,0.26947990840001534,89.11713464762359,5.817563875443652e-06
82.0,45.78992766993445,1.717829540105761,0.2663379776079175,89.86025553448644,2.6264122433753285e-05
83.0,48.06221153717321,1.8743765687299576,0.2633179887413039,90.58203028067283,4.7844056711865365e-05
84.0,50.605363556967426,2.0390677852164196,0.26041335535078947,91.28247304163699,7.048214984026221e-05
85.0,53.43392456074693,2.211208640068094,0.25761687256427496,91.96169396952476,9.410023951479038e-05
86.0,56.56081500079917,2.390076235085719,0.25492094218741007,92.61987507854461,0.00011861951041909472
87.0,59.99718859317641,2.5749375853407033,0.2523178118810986,93.25724644411412,0.000143962505925243
88.0,63.75231679419474,2.7650664915787697,0.2497997608330895,93.87406239934299,0.0001700548988853625
89.0,67.83354209953696,2.9597480556955786,0.24735917470448993,94.47059385838419,0.00019682576782769175
90.0,72.24618094637998,3.1582998029438905,0.24498878877077487,95.04709642568969,0.0002242097478424875
91.0,76.99361898094875,3.3600613410005806,0.24268158855332148,95.60382184716678,0.0002521455926947527
92.0,82.07718643825757,3.5644093784244837,0.24043097821559226,96.14099453796933,0.0002805775780227424
93.0,87.49628297252248,3.770747381206003,0.23823066735304263,96.65882294671526,0.00030945411753764804
94.0,93.24828319602327,3.9785180085625167,0.23607480456932559,97.15747924106772,0.0003387288748850085
95.0,99.32870095731784,4.187187787915361,0.23395784304081624,97.637119110756,0.00036835888512065906
96.0,105.73112375523121,4.396252097449473,0.23187454292459342,98.0978722285435,0.0003983049087236727
97.0,112.44730973840187,4.605222564002107,0.22981987666058096,98.53985987729241,0.00042852988079192624
98.0,119.46710817062214,4.813670164405571,0.22778952258617083,98.96312692009124,0.00045900329996855513
99.0,126.7787245880952,5.021165399186901,0.22577914754712788,99.36773076599994,0.0004896948298423479
100.0,130.5800309202976,20.361757556224045,0.47960709024173764,33.491410909328366,0.0032509392075697847
101.0,163.73823007230388,24.525511216686336,0.5397053363145763,25.61092092365351,0.003960617043715961
102.0,201.96370629377878,27.21177939881032,0.5579309171872647,23.35216958956975,0.004249124070974819
103.0,242.25171587975052,30.63821140343849,0.5727319314769761,21.41567555243862,0.0045085318100891395
104.0,284.1813443998131,35.261612762655666,0.5872969026904686,19.572767218951558,0.004766886748271472
105.0,329.1990613564975,39.32976951269376,0.5942903626700325,18.549377081686938,0.004951753077952031
106.0,375.4811814383501,44.077888118364996,0.6008542126523209,17.577790347841674,0.005133466899420892
107.0,422.66641064625446,49.42604990685658,0.6068362469303492,16.67259173291808,0.005309952112789738
108.0,472.21131758574325,53.16609079618454,0.6062371226705304,16.425999222464586,0.0054236529761870385
109.0,519.0112903622128,59.70159838665035,0.6119634709535946,15.552101369543406,0.005599546347910231
110.0,567.3820168659096,64.08487388988468,0.6109124682953733,15.34322521566415,0.005710217668706072
111.0,611.3360580693793,71.6061467363985,0.6162801798454233,14.52629023571036,0.005882459842709825
112.0,655.8292178405885,76.61390350591606,0.6150705921839873,14.334876613842557,0.005992536071939612
113.0,694.188756766757,85.05001134508558,0.6200802522768536,13.560927206556153,0.0061620365902620685
114.0,712.2642485740404,108.62026482821219,0.6189681180755737,13.389985348049184,0.006271679846932437
115.0,697.7759592247888,152.29779730509307,0.6235900377904959,12.654381710563154,0.006438487205817768
116.0,679.2360145375454,184.80357255762053,0.6223112116472483,12.492513451879441,0.006547810401178504
117.0,645.2497316559392,219.42940361972205,0.6210149355055373,12.329935988367536,0.006657331033317839
118.0,578.6387022904426,274.18046939481957,0.6252176001105041,11.64649554043099,0.006820092566597995
119.0,520.2441261494645,311.5895313728855,0.6240771206720457,11.49669981814996,0.006929393398688077
120.0,456.9726419238667,348.6855913302337,0.6230107984619516,11.346482423811757,0.007038978227119561
121.0,368.80697841156956,406.8584677312752,0.6268740471894049,10.71478075276269,0.007197571832552425
122.0,301.05081707175844,442.37268687459056,0.625355700813354,10.566564808170792,0.007306510603054677
123.0,235.9031593139129,474.8036410625433,0.6248203763589978,10.428123321853297,0.00741619250156721
124.0,173.9394265887475,504.20484649363135,0.6235056743597017,10.278509888917155,0.007525729019665155
125.0,102.08075613120326,543.9096802470131,0.6268974864224103,9.704833442725818,0.00767895841348703
126.0,66.12740808500756,548.5044899223223,0.6258021840429142,9.565486447378703,0.007788111996132195
127.0,42.37960094316625,542.0559085790745,0.625781485264442,9.433014171330825,0.007897966862855548
128.0,27.77204251528318,527.6962893816849,0.6250447887839111,9.29093309362231,0.008007945252187065
129.0,13.717306713449858,514.006966325671,0.6280376147732307,8.780327646251864,0.008155221114063084
130.0,10.209563694545267,491.0259750659858,0.6265977621147718,8.634734481866973,0.00826430817573428
131.0,8.776582822533559,467.3124792997917,0.6269010938803966,8.505078316228314,0.008374116553091714
132.0,8.599289725679899,443.7202402212668,0.627539509847576,8.374809786687713,0.008484274805354042
133.0,9.35521735012945,420.6105997962685,0.6267634443862008,8.228933840373577,0.00859431790498418
134.0,10.440127698391024,398.63103957958333,0.6289233022720135,7.796200136985972,0.008732913703967518
135.0,12.728221151847482,376.9684576350719,0.6277152679611427,7.657591643098806,0.008841254383049914
136.0,15.637354431939478,356.2820515587029,0.6283321651394597,7.535884867609743,0.008949779425197976
137.0,19.230704213685737,336.58499766654955,0.6296124912023786,7.419136675517951,0.009057862567518091
138.0,23.51970198109137,317.94363693321776,0.6298880065247872,7.297631659946906,0.009165594203197817
139.0,28.46677601005083,300.46562073676154,0.6284392739924916,7.161231290059483,0.009272105382378224
140.0,33.148939644250255,285.10773390860487,0.6285565463785244,6.8653491200120955,0.009393338168485338
141.0,39.3097800349921,270.1504508226675,0.6262640331918985,6.747244470054447,0.009495638345143192
142.0,46.32320009430771,256.2567277923728,0.6248837957878003,6.651825737649655,0.009596649735180781
143.0,54.036048275655894,243.56004879141975,0.6243155359490168,6.569407869567023,0.009695944032222223
144.0,62.30422475383723,232.12867376605368,0.6240224438212186,6.49572585206064,0.009793277431921361
145.0,70.93219725512775,222.01879281370708,0.6234522880130238,6.427784330236326,0.009888785516267942
146.0,79.66360444420792,213.28021921146433,0.6222437722029983,6.363595208300649,0.00998257961031108
147.0,88.18513970606242,205.95769349870915,0.6202744716940114,6.301898731647795,0.010074628014680556
148.0,96.12102060561492,200.10648309480243,0.617600444059361,6.241981280239781,0.01016480487753414
149.0,103.07800516053372,195.7662117507274,0.6143667712916984,6.183594946446233,0.01025299477655793
150.0,108.69098830431342,192.940629943245,0.6107485646231824,6.126478818324074,0.010339232136218238
151.0,112.7028870289982,191.54794062700333,0.606923935907649,6.0694776240820865,0.01042379354826002
152.0,115.02884474764254,191.3854846260137,0.6030191095950024,6.0124557482755305,0.010506898601536113
153.0,115.86076948620972,192.04751322706474,0.5990301481154717,5.960513886572593,0.01058819843162058
154.0,115.45155565846306,193.1536291898383,0.5949696679283679,5.916267224987873,0.010667552438581229
155.0,114.00416886704268,194.45867707936628,0.5909154490815213,5.877562719374782,0.010745247034475757
156.0,111.77778217197701,195.7390749808155,0.5869269409637327,5.842535593884528,0.010821483363934589
157.0,109.06586868596757,196.8005037440681,0.5830342838019076,5.810356425054496,0.010896319989935014
158.0,106.1616218653245,197.49265699316427,0.5792533624793207,5.780596940268092,0.010969760328257012
159.0,103.34006949286785,197.70856740546904,0.5755919925906219,5.752945069996227,0.011041796162246141
160.0,100.83257279440383,197.39258517064138,0.5720550679532725,5.727138309028946,0.011112420614190613
161.0,98.81250915776822,196.53984360994474,0.5686433488972933,5.70294747028715,0.011181633933488404
162.0,97.39013606677156,195.1905591721254,0.5653555075635395,5.680172086044493,0.011249443193344052
163.0,96.6145812484584,193.42023503417116,0.5621882661242024,5.658641906588744,0.011315861477035928
164.0,96.48094915824824,191.3278230035726,0.5591367618056242,5.638212633476562,0.011380906683629422
165.0,96.93995724481053,189.02390343096175,0.5561952779741536,5.618762777780187,0.01144460043836478
166.0,97.90815918175053,186.6204007829922,0.5533572133384536,5.6001884012505405,0.011506966636022645
167.0,99.27838094256614,184.2219304730393,0.5506156178202071,5.582402130324622,0.01156803100580336
168.0,100.92947180586107,181.9196137002322,0.5479634731706363,5.56532911884039,0.01162782010708908
169.0,102.73577893586673,179.78663417379155,0.5453940125687116,5.548908004918725,0.01168636144381526
170.0,104.57550909934226,177.87626644129338,0.5429006255365905,5.533086184780412,0.011743682388574537
171.0,106.3385206492659,176.22074913805906,0.5404774952112594,5.517819456458705,0.0117998103863679
172.0,107.9333240715119,174.83180709810404,0.5381193143450386,5.503071460580069,0.01185477272357569
173.0,109.2917468935984,173.70235937457502,0.5358216821519458,5.488812272407531,0.011908596408267016
174.0,110.37195945079854,172.80940517532724,0.5335807669059408,5.475016011151527,0.011961308101662873
175.0,111.15915852406926,172.11754417837858,0.531393815507072,5.461662825530066,0.012012934309368945
176.0,111.66392912501644,171.5831285460854,0.5292586650385328,5.448737097905334,0.01206350128881774
177.0,111.91806076515547,171.15890956823233,0.5271740006924207,5.436225502678532,0.012113034803132335
178.0,111.9695639512608,170.7981225613868,0.5251392856121698,5.424118807578659,0.012161560235957908
179.0,111.87617264142949,170.45811983556933,0.523154413976306,5.412409808221672,0.01220910313413932
180.0,111.69917557824265,170.1035262294528,0.5212203181276325,5.401095528818407,0.012255688804946738
181.0,111.49735783202075,169.70827246079833,0.5193379250020463,5.390173990644156,0.012301342313665902
182.0,111.32173984736225,169.25659256172818,0.5175090588219936,5.379644423675108,0.01234608867926777
183.0,111.2127282470363,168.7429088054942,0.5157355703818034,5.369507831228205,0.012389952566297614
184.0,111.1979889115973,168.1705755317196,0.5140196399493288,5.359768144523129,0.012432958846483962
185.0,111.29174309513354,167.55031396731874,0.5123639302209132,5.3504310113600315,0.012475132552361407
186.0,111.49561514670744,166.89830240363327,0.5107710366308564,5.341501285346186,0.012516498360787269
187.0,111.80030747654385,166.2338024514527,0.5092436742052303,5.332984281488285,0.012557080954265724
188.0,112.18832790577737,165.57671990856775,0.507784556744516,5.324887479441172,0.012596905174337626
189.0,112.63649615092528,164.94595028762336,0.5063964669581951,5.31721795860709,0.012635995768361384
190.0,113.11903633041823,164.35771545959093,0.5050818402980758,5.309983963831647,0.01267437758485856
191.0,113.60979770821098,163.82469715196288,0.5038435325834091,5.303192784527685,0.012712075280440632
192.0,114.08503512637964,163.35524469166796,0.5026839425238931,5.2968522643943725,0.012749113630003495
193.0,114.52496155280984,162.95339273050269,0.5016054265236564,5.29096972435749,0.012785517311476516
194.0,114.91498535022443,162.61902950318628,0.5006103447195482,5.28555319117019,0.012821311007158736
195.0,115.24627795545643,162.34866807624002,0.49970056855517664,5.280609435593055,0.012856519269048138
