Time,J,A,S,tau,r
0.0,1.0,1.0,0.8214061412384371,20.0,0.0
1.0,7.082126762305404,4.521694837671217,0.8207781265727142,20.079123309071814,0.03661094221835656
2.0,23.95357176349362,7.881705814073773,0.8203092776805865,20.166230054437083,0.03644056116855824
3.0,49.79027350992987,11.089663792292649,0.8199926951453873,20.261287859458275,0.03627303167350797
4.0,83.0740957272401,14.154531673581829,0.819821701451816,20.364266986985,0.03610820687869672
5.0,122.53816727852332,17.084649574436096,0.8197898629685545,20.475140997204747,0.03594593911745486
6.0,167.12306757434078,19.88778389273902,0.8198909546570208,20.59388532150247,0.03578609357569589
7.0,215.94062233823857,22.571160332795504,0.8201189807981394,20.72047930607107,0.03562853032855441
8.0,268.24575702531826,25.14150960863761,0.8204681411214647,20.854903500674848,0.03547312341598169
9.0,323.41186073323456,27.605095697386265,0.8209329233432543,20.997142535520002,0.03531974274428643
10.0,380.91094780619727,29.967757488825438,0.8215077501568155,21.147180231680338,0.035168276792890064
11.0,440.29870794107137,32.23492603293035,0.8221873275243632,21.305004228853782,0.03501860862439141
12.0,501.20072546262185,34.41164928973364,0.8229665089487893,21.470606535267766,0.03487061782808945
13.0,563.3000701189279,36.502668696907996,0.8238403085326127,21.643969514286205,0.034724226232675605
14.0,626.33032575191,38.512340396909046,0.8248040501548244,21.825096426809306,0.034579296354765726
15.0,690.0659626743759,40.444762173676246,0.8258527685847292,22.01397386843994,0.034435752247314225
16.0,754.3191874112567,42.30373789512647,0.8269823103300329,22.210602650147493,0.03429348403225334
17.0,818.9285288553806,44.09284583013381,0.8281879940936772,22.414963447972113,0.034152439499870416
18.0,883.7614599730085,45.81537784503256,0.8294657100304986,22.62705896256895,0.03401251486348509
19.0,948.7051796169967,47.47444973486072,0.8308113951287973,22.846877966410407,0.03387364504850857
20.0,1013.6626556457262,49.072948829645355,0.8322207244300015,23.074400998218195,0.0337357826225494
21.0,1078.5567567422004,50.6135851178588,0.8336902363691648,23.30962205765312,0.033598853282638695
22.0,1143.3236466861551,52.098893246283495,0.8352161340355987,23.55252256273865,0.03346281020348434
23.0,1207.9057478307905,53.53127764949847,0.8367948366056158,23.803075633659326,0.033327620873152206
24.0,1272.2600260704457,54.91297632413937,0.8384229504365228,24.061256522069687,0.03319324705519451
25.0,1334.4960611220408,58.3170047360713,0.8415504246398345,24.32408485190824,0.03283743575443859
26.0,1391.169630178274,67.81858625432999,0.8428623884469971,24.482783673087088,0.03252624113936418
27.0,1442.3745899605428,82.75569746752389,0.8439306309317466,24.637622954260248,0.03224492312301655
28.0,1488.9935972155968,100.31854491489256,0.846304556750607,24.849811510830982,0.03191063349189923
29.0,1526.5670616317436,122.72098533059855,0.8493804326570049,25.16265566215253,0.03167583455533141
30.0,1557.4929492674962,146.16484930464085,0.8515078480425894,25.374754752359298,0.031377930604659716
31.0,1577.9235921807556,174.066640087956,0.8523004848311485,25.535758197024006,0.03115040689730408
32.0,1591.8204132282851,202.8661887410237,0.8535493596880993,25.71303962893972,0.03089948677783446
33.0,1599.6726227513236,232.45311953552996,0.8561366453497189,25.998708803413496,0.030675267554445537
34.0,1602.0726645110008,263.0716642124294,0.8586399233148163,26.288516126896383,0.03046368797454327
35.0,1598.9419637234653,295.3834939130879,0.8596856067661399,26.470803910671734,0.030240923687813958
36.0,1590.9797059063092,329.39709400795994,0.8603376291421784,26.642005196501863,0.03004257921170053
37.0,1582.4539509444369,361.1805189441994,0.862311140829402,26.887348352710692,0.02982428462462135
38.0,1569.8632594317044,394.6540655322197,0.8647696786667243,27.229528856797,0.029674010072741917
39.0,1555.634510703221,427.6084998818483,0.8659903344012044,27.434360156652684,0.02946374029731034
40.0,1537.2166182186647,462.85740792964054,0.8663984649235357,27.60836571592333,0.029288150254143625
41.0,1520.1286855870926,495.03743780174455,0.8679453765075665,27.840380414262707,0.02908934979487803
42.0,1500.529389690548,528.1597465383287,0.8702113939472061,28.204405529724255,0.02896685377750248
43.0,1480.4371166886122,560.3159036220459,0.8714010860580692,28.422427298579745,0.028776533481444405
44.0,1456.5738755042971,594.90490392243,0.8716897122227842,28.600228681415576,0.028613506654620036
45.0,1434.8757561002656,626.0796994822922,0.8730257786124273,28.833430671562134,0.02843495596283465
46.0,1411.8889645269635,657.4020710859598,0.8750765572680976,29.210490092636213,0.02832825215326787
47.0,1388.2816370783103,688.265177415312,0.8760875097266314,29.429148139063102,0.02815523852172775
48.0,1361.412248605395,721.3821583904685,0.8763047726959489,29.60929450274346,0.028001647598012228
49.0,1337.4010113741006,750.6885571546753,0.8775714654700283,29.851847800275348,0.027843557599861773
50.0,1312.8971298709243,779.6263494674974,0.8794028792749987,30.23573945300097,0.027746271999963684
51.0,1286.934501773086,809.1826377578888,0.880173350876074,30.44638213808566,0.02758733915523493
52.0,1258.429261762404,840.4818117919924,0.880364170747721,30.62738674794313,0.02744169854753423
53.0,1233.3186356279273,867.6290033083238,0.8816131957675873,30.884142279748605,0.027305207212890172
54.0,1208.2671994748114,894.0355855938711,0.8832164952680488,31.26539124958923,0.02721205088282064
55.0,1180.6197945547017,922.3541303025856,0.8837666480168096,31.465111023168365,0.027065835938555636
56.0,1151.2442238302497,951.7375479559861,0.8839634379479835,31.645169406658063,0.026927999708996064
57.0,1125.2736384650138,977.0775396326676,0.8851702367980379,31.915791779250878,0.026811067960462776
58.0,1100.2267461610368,1000.917220481797,0.8865598362321034,32.28673464886336,0.026720963514862014
59.0,1069.946975539531,1029.3662531359037,0.8869677012451571,32.47631820919631,0.026586416021141795
60.0,1036.4714232750616,1060.355533777204,0.8871599349252668,32.65194060099282,0.026457462775591665
61.0,1010.5662447426886,1083.199344167496,0.8882599333801873,32.92035592472634,0.026353485035967336
62.0,992.9505036090238,1097.303108027525,0.8894860326557439,33.28875797737063,0.026270534124595228
63.0,963.8209346192302,1122.5188065737693,0.8898570127095506,33.47076055467339,0.026146693652317674
64.0,934.3190630872334,1147.684375079288,0.8899958867482278,33.63668453668659,0.02602788028491916
65.0,915.7271259519887,1161.6790730841617,0.8909009369120968,33.86923412984403,0.02592776464158585
66.0,915.3045071319252,1157.4303048595425,0.8920213382921349,34.25867081906383,0.02585766101256407
67.0,894.8214470386766,1173.255918745732,0.8924819298745164,34.438906136978424,0.02574556013174424
68.0,874.4220412241647,1188.881193868427,0.8925455228451891,34.59122887432728,0.025637261444172395
69.0,858.2639502144186,1200.2060931267474,0.8931269192458567,34.77420254408578,0.02553439147770662
70.0,870.5683783341393,1183.2670273034093,0.89412154205465,35.169922915749204,0.025472828566222374
71.0,860.2992480291249,1189.1037297142227,0.8948085522045023,35.36808191070008,0.025382951864725015
72.0,847.057028586425,1197.9796282613838,0.8949288408569578,35.51087726374848,0.025283096540328658
73.0,835.2950810180972,1205.3996999133867,0.8951104800716395,35.65216263343806,0.025185413503989125
74.0,828.5366307929927,1207.906081892683,0.8957908594056757,35.842159642124614,0.025106462543283862
75.0,845.941329834792,1186.4900881201079,0.8965927048809083,36.22455927894089,0.025049500134867175
76.0,838.0580835910649,1190.6338965437556,0.8970837769755847,36.38302704083893,0.02496575219578322
77.0,830.478860219896,1194.5255902405631,0.8971856977078458,36.50520800083429,0.024877998761540614
78.0,823.7708833577559,1197.5796689875845,0.8973099486504772,36.623263050267724,0.024792682256331206
79.0,818.0933068395641,1199.635619304106,0.8977552368774003,36.762527222485375,0.024716181877514447
80.0,835.0331896900802,1179.3145290627965,0.8983693210210691,37.10639550653538,0.024662110313546638
81.0,835.3987657356024,1175.715136167776,0.8989315348977012,37.29156316789738,0.024603756932919246
82.0,831.2585186482073,1176.7171558694404,0.89921369574678,37.40454883815591,0.024529637539499546
83.0,827.5919773805203,1177.2318257761465,0.8992946064583746,37.49766992832218,0.024456186522167467
84.0,824.3490789607994,1177.2907538539857,0.89937146482002,37.58483858612911,0.02438524547812662
85.0,821.4788152437791,1176.9303922784318,0.8995820735522375,37.67527415415289,0.024317529517961824
86.0,819.1547908707051,1175.9698133903662,0.8999417396004699,37.779675062140775,0.02426003233634515
87.0,831.9183552828501,1160.0403285327582,0.9003203528736152,38.03412351958478,0.02421233211511482
88.0,839.1889893283894,1149.595102461885,0.9006742241248353,38.227260281787444,0.024165572335776753
89.0,837.5110727453527,1148.148235127591,0.9009499624997616,38.31156997683863,0.02411306635834035
90.0,835.9108864242592,1146.497117560717,0.9011171338548162,38.37524970128746,0.024057360438241027
91.0,834.4805923230064,1144.5251838656686,0.9012071143635793,38.42659700992766,0.024002561372758524
92.0,833.1032082071019,1142.329898801134,0.9012555991328306,38.469264368636445,0.023949975999227484
93.0,831.7326605451173,1139.9357290067537,0.9012888077917917,38.504943575842056,0.02389975942661853
94.0,830.3910399223413,1137.3011783213851,0.9013194377735896,38.53443871171255,0.023851850640470504
95.0,829.0782777555739,1134.407844871768,0.9013505564563901,38.55789719280723,0.02380623798809393
96.0,827.6957804930616,1131.3340473908866,0.9013792422892177,38.575177468777866,0.02376292771384919
97.0,826.1994446568652,1128.1024490205211,0.9014008278088994,38.58598768037701,0.02372190692494318
98.0,824.660190464961,1124.6218612832806,0.9014112541409982,38.59004750130581,0.023683143722114
99.0,823.1094088459448,1120.8438105969335,0.9014084131965019,38.58720086497432,0.023646607427386297
100.0,821.3852236724382,1116.9118629718969,0.9013925559454422,38.57745986234106,0.023612291261432862
101.0,819.3280584244819,1112.9617223198386,0.9013659422489753,38.56097754433997,0.023580206172651316
102.0,817.1188271445641,1108.7894761799134,0.901331577924716,38.53795574169839,0.02355035672111361
103.0,814.7502497194648,1104.3850170580342,0.9012910011418432,38.50848629448203,0.02352272577809735
104.0,812.0242016633252,1099.9260817654551,0.9012404158233123,38.47233223945277,0.02349729624992995
105.0,808.6506279317243,1095.6742618909218,0.9011663247795858,38.42866458546792,0.023474012900736172
106.0,804.945219587169,1091.2865953171943,0.9010433101181099,38.375377212558405,0.02345250204654485
107.0,800.9048056528451,1086.7453837202838,0.9008367925568478,38.30811495776388,0.02343115463847003
108.0,796.4067372963016,1082.151999165214,0.900520071689887,38.214111897295844,0.023406204978744186
109.0,769.7556150243931,1098.958007946748,0.9002007453073438,37.8310390362198,0.0233804546070976
110.0,763.0635607238978,1094.8931877511843,0.8997984366582338,37.70007973463885,0.0233568296274469
111.0,756.4073196712491,1090.2030171490244,0.8994955613261097,37.600858852581794,0.02334381076615257
112.0,749.2259001313965,1085.4383775116253,0.8993038521846318,37.507127945079304,0.023336036122091574
113.0,741.1744285382147,1080.9184308268273,0.8991028969417864,37.40717154046825,0.023330462342596864
114.0,732.6366406450683,1076.237435781622,0.8987073435077194,37.28285650218966,0.023322668942910345
115.0,702.0281385861654,1092.7887590624864,0.8981579515007755,36.83366201714971,0.0233054119335701
116.0,691.5516308366047,1088.1354053412454,0.8975621117740759,36.65085857189642,0.023293245950076338
117.0,680.8570833787577,1083.0214977818619,0.8972171620527815,36.51858416895565,0.02329560438373062
118.0,669.6003412058634,1077.7827809405517,0.8969022545847963,36.38397808581069,0.02330082692443319
119.0,657.7285134637299,1072.466426616927,0.8962433468964127,36.19481444653264,0.02329687337531168
120.0,623.4205203203886,1088.5316284845733,0.8954897189645229,35.691542087361846,0.023287521460471916
121.0,610.5153464459286,1082.2941499883048,0.8949839221755368,35.52744837587095,0.023296986638818233
122.0,597.2131817345457,1075.7856794624743,0.8945613464787208,35.367109332496995,0.023310635380169933
123.0,569.6071286760225,1082.8780620904859,0.8937253298997921,34.96606951573567,0.023310799940485998
124.0,546.646247425724,1084.1695457013661,0.8928435078821374,34.62292675204563,0.023313243981481255
125.0,531.6857021026196,1076.8013981681315,0.8923558761121247,34.44767927896696,0.023333416315124297
126.0,516.4357246700197,1069.1078189097002,0.8915643854099186,34.23564881857403,0.02334846367289954
127.0,479.58218864582346,1082.1398191702144,0.8904770124633521,33.68201185240634,0.023349810859963117
128.0,463.74495425812626,1073.36616847549,0.8898101758545789,33.48490827468493,0.023374561772222295
129.0,447.7457807252382,1064.2260403071932,0.889012116330522,33.272253742909776,0.02339881551490704
130.0,411.1430200379823,1074.9531170630307,0.8877505039730588,32.705066905816444,0.02340397308538754
131.0,394.88883264713934,1064.6419272087965,0.8869372879945698,32.49213344764075,0.0234335496700314
132.0,378.59941528757133,1053.9447452536435,0.8860294292076719,32.268562169954784,0.02346349203793527
133.0,342.93552870963816,1062.0207167476974,0.884599013308003,31.6988602757497,0.02347356813690312
134.0,326.75117178213463,1050.073584439146,0.8836937335098501,31.47963849036095,0.023508908608397012
135.0,310.6531089279646,1037.734798834325,0.8825952481355083,31.24004444653285,0.023542375208651035
136.0,276.6400956813044,1042.845730367971,0.8809974695413125,30.677315453063574,0.02355801742419696
137.0,261.02102447489176,1029.1857431171131,0.8800217139871355,30.4578171627782,0.02359892282151923
138.0,245.56817314238816,1015.179231753686,0.8786751172028557,30.197946430262824,0.023634244208739597
139.0,214.32859411911448,1016.6320883886639,0.8769199675269036,29.654934040477627,0.023656256687004884
140.0,200.1620315301138,1000.8263989971039,0.8758540550535242,29.437344877343605,0.023701607260933427
141.0,186.06272265918486,984.9168751753289,0.8742487608662413,29.15738017994418,0.02373851124110528
142.0,158.51528213334797,982.2833272372741,0.8723184251580488,28.64369002852356,0.02376627935470965
143.0,145.8016999508303,964.7984538658718,0.8711225026006589,28.428937061814068,0.02381489406154243
144.0,133.5624602994412,946.9339841086348,0.8693030756551385,28.14696893748943,0.023855050596368173
145.0,110.3448168582447,940.0474653690967,0.8671321381522951,27.654047481396606,0.02388569502148458
146.0,99.76058495148534,920.6605279163315,0.8657536899860651,27.442458282467197,0.023936634568684244
147.0,89.66637808421542,901.0040044701733,0.8638255863602736,27.185924853703625,0.023982826612400376
148.0,70.69049911929228,890.3995119601518,0.8613283986534286,26.697780166210652,0.02401261624106934
149.0,62.31872887203496,869.4399152023368,0.8596440495815049,26.484987545039473,0.02406517573988213
150.0,54.61088542394774,848.1577257813595,0.8577685206663745,26.2637857089342,0.024117667646856078
151.0,39.941119804833775,834.1637875521304,0.854972508503819,25.797155981007403,0.02414795931359528
152.0,33.70467688409374,812.0817787901861,0.8526993942943016,25.562064139007283,0.024199245441308748
153.0,28.20985415636921,789.7012769363594,0.850924034772366,25.369561929820556,0.024252565053948058
154.0,22.369346020253577,768.135453949544,0.8481534056653759,25.07643313624417,0.024297402407043457
155.0,13.352426734915419,750.1747749004102,0.8450915120567987,24.689604455306,0.024336076508943216
156.0,9.631848467453777,727.4304046675202,0.842920953396319,24.497438098802235,0.024390656304739466
157.0,6.26796830148464,704.8758733150788,0.8406728578212052,24.30653218830033,0.024445174555871953
158.0,0.7911653368761691,684.9933162813819,0.8373516573513814,23.96071785028449,0.02448612575642936
159.0,-2.4722965930208907,663.438880165222,0.8340210579499318,23.668366875140013,0.024531557489770105
160.0,-4.257165472457241,641.0107570389043,0.8316156055888094,23.491306424307986,0.024585320856643146
161.0,-5.7644724322454906,618.932626525075,0.829072841876608,23.312848821320863,0.02463924318720534
162.0,-7.7909161375191065,598.0128018979391,0.8254334782443982,23.02505935279987,0.024684613602966258
163.0,-9.991707421610077,577.8983646998419,0.8216065280500682,22.716215260697638,0.02472779947050421
164.0,-10.418347583581223,556.6897341816065,0.8186656125281568,22.539737426528955,0.02478227279061999
165.0,-10.502019502838474,535.8467879088043,0.8160425506772029,22.38129522277133,0.024832304558432532
166.0,-10.321054354185689,515.4760679295462,0.8124466176862122,22.175787561599645,0.02488639878315396
167.0,-11.24344801485744,496.9651842407918,0.8081049928382658,21.85162008301422,0.024924782649488542
168.0,-10.321526900618663,477.40910375548975,0.8041906372119585,21.64209964151481,0.024978222866907644
169.0,-9.034581201263295,458.35430635061937,0.8011920364186277,21.490383509242516,0.02502674404679435
170.0,-7.284714757332707,439.7656437797568,0.7980513875527057,21.337536019636303,0.025075187779042184
171.0,-5.066610578670324,421.7182282514093,0.7938062401600072,21.126175482433208,0.02512677087080904
172.0,-3.2347196790334505,405.1440361860586,0.788989294639057,20.833004903783348,0.02516637025270256
173.0,0.3123969924329697,388.05806958363587,0.7847001613315231,20.641911768829445,0.02521887368141858
174.0,4.666104862552322,371.5050386624768,0.7813471879264151,20.49987322814211,0.025262973555010886
175.0,9.974592425539802,355.4749585310456,0.777951043548547,20.359609940509415,0.02530561711081704
176.0,16.412402967154947,339.95643951689834,0.773485849785096,20.177902428834415,0.025355660016927874
177.0,23.3112464766332,325.7807573685631,0.7682336012870005,19.91194991107131,0.025395273098110436
178.0,32.414929025188265,311.3689269556121,0.7632103489438723,19.70382561557948,0.02544264870711338
179.0,43.24459270497491,297.4043368479812,0.7591676327856638,19.560255746110755,0.025484861482188474
180.0,55.887939205285484,283.971482133541,0.7556540886064693,19.43345155910022,0.02551923194517094
181.0,70.52753695343719,271.05744560342083,0.7514825036392873,19.292257941916045,0.025558529073130182
182.0,87.254022833442,258.73304738561706,0.7461809976633722,19.095523326391017,0.02560221978122576
183.0,105.38472195721562,247.7764318008307,0.7404142901852294,18.850979401659163,0.0256386271413101
184.0,126.73903904403201,236.4694771943018,0.735145079487965,18.6766464183573,0.025681022262814754
185.0,150.48154501516788,225.71720211965507,0.7308991344824542,18.54828916441456,0.02571237476306709
186.0,176.51668691917638,215.62009499580387,0.7270963826232323,18.43159895317927,0.02573741860843896
187.0,204.90113125808216,206.07086250342326,0.7226300188795646,18.30290002606771,0.02576649195803932
188.0,235.4145548105107,197.1723516500999,0.7170347371903425,18.13124621088163,0.025802794195559555
189.0,266.5793925749137,190.16428682094562,0.7108460588550981,17.908030809019984,0.025833373953204068
190.0,300.30276885578667,182.84779638512336,0.7049300413138602,17.729279159214094,0.025866964897236347
191.0,335.28694062334597,176.25348879648305,0.6999632777007351,17.601647001939313,0.025891441651953388
192.0,370.33303325030005,171.1636489417253,0.6958166196915763,17.49404117346258,0.025906528421857918
193.0,405.19999550517224,167.30202347208237,0.6916022846124196,17.387414382165645,0.025920046118042054
194.0,439.93808099191153,164.07187122767053,0.6864776322382572,17.264269485239414,0.02593889844426432
195.0,473.3427635410571,162.1235310633587,0.680345535048452,17.10102646279241,0.025963393252684014
196.0,503.17410242476984,163.0431188368686,0.6737831197993549,16.90415538271148,0.025983996044751326
197.0,531.7643116890491,163.9057128540046,0.6675009206006772,16.745570088881728,0.026004871971016277
198.0,557.0085358727861,166.2878267690313,0.6620568560471374,16.629652643268187,0.026016326380856384
199.0,576.811454063355,171.6316274335306,0.6574643279433294,16.533975184103507,0.02601890274162352
