Time,J,A,S,tau
0.0,100.0,10.0,0.8926707184483748,16.46160375133715
1.0,98.51074550168414,10.880635395136025,0.8892460361691898,16.27397158230786
2.0,96.8551332834423,11.751896363522057,0.8853492683987424,16.06583725925383
3.0,95.04679022314986,12.611755877925845,0.8809691013129902,15.837525716976371
4.0,93.09804818172069,13.458452674337249,0.8760833827321994,15.588821528930827
5.0,91.02162971753958,14.290168325277172,0.8706703221127504,15.319513358022009
6.0,88.8300814484197,15.10503296291036,0.864708662223879,15.029394544109609
7.0,86.53543915073467,15.901131071682515,0.8581778692297561,14.718263666041713
8.0,84.14905729264177,16.676508205029158,0.8510583376402207,14.385925083522164
9.0,81.68155721210222,17.42917862452053,0.8433316203522884,14.032189499577605
10.0,79.14285829665081,18.157134153002808,0.8349806848623238,13.656874538561706
11.0,76.54228071463073,18.858353847389573,0.8259901381947303,13.259805052061829
12.0,73.88863879173428,19.530814513129517,0.8163464632041765,12.840813567818413
13.0,71.35180652163905,20.011961195257044,0.8075617968429106,12.492574288495588
14.0,69.10493616527367,20.143475395789608,0.8006318991540606,12.273628221096779
15.0,66.95078437844187,20.131839025053367,0.7935559302388754,12.060758471490447
16.0,64.87465184155351,19.998691774582895,0.7863380202500321,11.853811248138834
17.0,62.862399768311555,19.764839273628805,0.778982735099987,11.652638598039363
18.0,60.90179118843074,19.44912046557551,0.7714950747563595,11.457097612044073
19.0,58.98311846984924,19.067925105677737,0.7638804737418159,11.267049887226523
20.0,57.099345598616495,18.635149824054878,0.7561447922802443,11.082361055773642
21.0,55.24600524041493,18.162356632750384,0.7482943126891529,10.902900510926147
22.0,53.420913176494956,17.659075957224765,0.7403357251738002,10.728541134959302
23.0,51.62383764195335,17.13312407521473,0.7322761160801861,10.559159131636285
24.0,49.85248242966118,16.594518882479925,0.724122952121026,10.394633890831908
25.0,48.10284920273869,16.05475539861467,0.7158840587115725,10.234847854628567
26.0,46.376870779977835,15.519151466055268,0.7075676036405272,10.079686477913185
27.0,44.67721253951418,14.992001619600913,0.6991820736090858,9.929038155655155
28.0,43.00663709789748,14.477060648467239,0.690736244579424,9.782794130098084
29.0,41.36763908684411,13.977756127843678,0.6822391607023837,9.640848494016357
30.0,39.76217062035556,13.497309315891846,0.6737001007491066,9.503098109285368
31.0,38.19145840817308,13.038790915074042,0.6651285493232479,9.369442580875797
32.0,36.655901238712794,12.60513232328198,0.6565341652480124,9.239784219445166
33.0,35.155080761353126,12.199072551991833,0.6479267488808899,9.114028004596804
34.0,33.68807857673167,11.822864017276796,0.6393162076638348,8.992081538696173
35.0,32.25366884688762,11.47817842680579,0.6307125234442752,8.873855036050667
36.0,30.850409150500514,11.166151501364546,0.6221257148642543,8.759261243118242
37.0,29.476888343814796,10.88731785817019,0.6135658082891148,8.648215377943075
38.0,28.132159711713737,10.641466679365946,0.6050428146463059,8.540635410444311
39.0,26.815688397157206,10.427704980608953,0.5965666718894783,8.436441437547185
40.0,25.527687258867076,10.244341160907968,0.5881472183409984,8.335556058283407
41.0,24.26927810112892,10.08895813468915,0.5797941754051881,8.23790429294729
42.0,23.04234161549465,9.958507785154625,0.5715170994503135,8.1434134039976
43.0,21.849505021384786,9.849459643749327,0.5633253655052964,8.052012966760516
44.0,20.693915413102705,9.75799075253391,0.5552281369524321,7.963634794104409
45.0,19.578996666617776,9.680181970999673,0.5472343398099399,7.878212895477404
46.0,18.50818567158679,9.612213172143424,0.5393526395883852,7.795683435333816
47.0,17.484681957404323,9.55053288019151,0.5315914203202636,7.71598469167121
48.0,16.511172117615022,9.492063855637824,0.5239635610866629,7.6389347927697475
49.0,15.590659759463934,9.433262486550918,0.5164130499029501,7.5660786373071085
50.0,14.728909080643314,9.367741395124193,0.5086422202655366,7.5047504415253945
51.0,13.926665770971699,9.293917549381437,0.5006548359208006,7.4544816806262
52.0,13.183743705148387,9.210799769449302,0.492458444615844,7.414788854260672
53.0,12.499108063609762,9.117879234616407,0.48406280329941503,7.385210759489253
54.0,11.871134764856045,9.015021598838079,0.47547976654062246,7.3653064487580835
55.0,11.2975337166641,8.9024040747688,0.4667232619705795,7.354654946248839
56.0,10.775681822952816,8.780278414448642,0.45779885973633105,7.353083569421336
57.0,10.29842978592446,8.65324060928296,0.4490408108409795,7.353083569421336
58.0,9.861709365626695,8.522773459622197,0.44052805439468296,7.353083569421336
59.0,9.462333206662093,8.389487231653591,0.43226995141559327,7.353083569421336
60.0,9.09717606944036,8.253968318504658,0.4242750942396546,7.353083569421336
61.0,8.763237395052084,8.116762590727705,0.41655131625945396,7.353083569421336
62.0,8.457679396652255,7.978367290884036,0.4091057070293145,7.353083569421336
63.0,8.17785174289316,7.839229435443146,0.4019446330743863,7.353083569421336
64.0,7.921314585396258,7.699739254888707,0.3950737638608427,7.353083569421336
65.0,7.68587345117261,7.560203817907249,0.3884981024703847,7.353083569421336
66.0,7.469514204273777,7.420912970452641,0.3822220192149559,7.353083569421336
67.0,7.270404249687543,7.282152707754805,0.3762492916768489,7.353083569421336
68.0,7.086874372516125,7.144208799721175,0.3705831431117436,7.353083569421336
69.0,6.917413175594267,7.007368288452892,0.3652262864405511,7.353083569421336
70.0,6.7606816919078545,6.871918236202487,0.3601809657325228,7.353083569421336
71.0,6.615476790371416,6.738147853413417,0.3554490043774731,7.353083569421336
72.0,6.480744545481997,6.606345724470466,0.3510318461248736,7.353083569421336
73.0,6.355560665175409,6.476798778092721,0.34693060682843857,7.353083569421336
74.0,6.239118412960129,6.349790703854957,0.34314611612410745,7.353083569421336
75.0,6.130761825901055,6.225597071470379,0.3396789481180656,7.353083569421336
76.0,6.02990542113938,6.104488920015846,0.33652947615248435,7.353083569420262
77.0,5.936055932302998,5.98672843789036,0.33369792249469554,7.353083569377076
78.0,5.848888782331462,5.872564238401714,0.331184340935662,7.353083568676392
79.0,5.768088347574885,5.762230133667681,0.3289877248833565,7.35310410894243
80.0,5.704432659853581,5.644657661010386,0.32582156207779467,7.379635649473406
81.0,5.854147508008083,5.310233634012557,0.29793040823977074,7.945875835275931
82.0,6.083133008625196,4.862780980786536,0.258213747973955,8.871239951075642
83.0,6.214176906035464,4.479036811308844,0.2269248188253566,9.703854700603642
84.0,6.130537725495384,4.3003364222151195,0.2195441402413927,9.89721392018741
85.0,6.000709259690368,4.184989062254603,0.21888168750291095,9.898190772207053
86.0,5.881340791324114,4.078360550128816,0.21853980827298652,9.898191134379505
87.0,5.772468067723077,3.9799153223022654,0.21848589476278385,9.898191134401975
88.0,5.673920437423804,3.8894272075864005,0.21871985066511027,9.898191404960734
89.0,5.585536112294997,3.806695025205528,0.21924367804010317,9.898140395677503
90.0,5.491724235429213,3.74753575801058,0.2220594195186962,9.83926534212484
91.0,4.729339832413097,4.468209694100852,0.32686519597467156,7.363855361551569
92.0,4.790216420314342,4.424854650984952,0.3293387673309583,7.3530997290799265
93.0,4.852737511393765,4.3817182624122415,0.33158868468772257,7.353094304432592
94.0,4.914137813775059,4.3430330282875405,0.33415624977957725,7.353094304022139
95.0,4.9754594907898975,4.309182040984427,0.3370417319616292,7.353094304022136
96.0,5.037639647984645,4.280529506827754,0.34024502522318145,7.353094304022136
97.0,5.101503692011039,4.257443260641945,0.3437658883540833,7.353094304022136
98.0,5.1572927604217496,4.251112111394079,0.3476039039825938,7.353094304022136
99.0,5.194802845425055,4.2769163328931175,0.35175844955257646,7.353094304022136
100.0,5.242297081229324,4.3082209567085545,0.35622864990595327,7.353094304022136
101.0,5.299474661982348,4.34516554552951,0.3610133304767537,7.353094304022136
102.0,5.365831756691544,4.388137687423508,0.3661109689274108,7.353094304022136
103.0,5.440888303319378,4.43753453003594,0.3715196726499124,7.353094304022136
104.0,5.524181969418316,4.493769014884324,0.37723711930880643,7.353094304022136
105.0,5.615233337580609,4.557259562379224,0.3832604912726233,7.353094304022136
106.0,5.712748014410945,4.629256502620986,0.38958648233033644,7.353094304022136
107.0,5.815455888147431,4.711067788384823,0.39621121256220315,7.353094304022136
108.0,5.922982813995419,4.803015940115339,0.40313019458455734,7.353094304022136
109.0,6.034806594393003,4.905408174937406,0.4103383014467064,7.353094304022136
110.0,6.150209879033801,5.018572188970464,0.41782976581631615,7.353094304022136
111.0,6.268276995042197,5.142829596019131,0.4255980855704292,7.353094304022136
112.0,6.387879987887701,5.278499629959097,0.4336360408795301,7.353094304022136
113.0,6.507668570800135,5.425892371860214,0.44193567070740214,7.353094304022136
114.0,6.6260308586205845,5.585333200547913,0.4504882590459028,7.353094304022136
115.0,6.741123060869183,5.757120936956057,0.4592843117827393,7.353094304022136
116.0,6.852925765250981,5.9394435866338195,0.4681329715664737,7.3565109722689925
117.0,6.962535472669885,6.129045751901777,0.4767572418829285,7.368442316434206
118.0,7.068426877741913,6.325165006466478,0.4851347852660304,7.389237317231191
119.0,7.169038630604092,6.527046389451418,0.4932564931970389,7.419038284618811
120.0,7.262933467650734,6.733827680863788,0.5011157318569598,7.457982504582442
121.0,7.348843284829112,6.944543116397186,0.5087083732366138,7.506199805528562
122.0,7.4257165666850184,7.158129254859089,0.5160326963503997,7.563812463830835
123.0,7.4926417131436285,7.373551188338224,0.5230974813431021,7.63076867987834
124.0,7.545251798240976,7.593363484758716,0.5301647341018019,7.701880783368459
125.0,7.581316707616961,7.818017932620831,0.5373293673505084,7.77514596106061
126.0,7.600265347097446,8.046470210811863,0.5445815307073238,7.8506414237970965
127.0,7.601770191837874,8.277658393004657,0.5519137110012504,7.928395335136532
128.0,7.585795655658632,8.510490008423993,0.5593182689575454,8.008436354553162
129.0,7.552603492122363,8.743862958075717,0.5667874599128554,8.090793618326854
130.0,7.502746790150977,8.976688934725004,0.574313456429573,8.175496727194526
131.0,7.43705070389122,9.207922183683095,0.5818883648866152,8.262575712663459
132.0,7.356609570302008,9.436548243098882,0.589504250276634,8.35206100238138
133.0,7.262832953541084,9.661525434672928,0.5971531589882842,8.443983394148438
134.0,7.157368891749275,9.881841162906154,0.6048271472868116,8.53837404384697
135.0,7.0420395332822086,10.096561073071896,0.6125182924265073,8.635264408740467
136.0,6.918775298910945,10.304846953314957,0.6202187253823366,8.734686232725043
137.0,6.789562551944509,10.50597425146596,0.6279206512098057,8.83667150915866
138.0,6.6563911084302045,10.699345144001608,0.6356163716567212,8.941252447184805
139.0,6.521207178480679,10.884497108399959,0.6432983072569544,9.048461437109374
140.0,6.3858735572440075,11.061106807758069,0.6509590187511325,9.158331014910042
141.0,6.2521379820662855,11.228989595806487,0.6585912276891641,9.270893825980394
142.0,6.121607560714938,11.38809740581943,0.6661878360790817,9.386182588237235
143.0,5.995729717872241,11.538514672131504,0.6737419450254903,9.504230054926165
144.0,5.875782320276971,11.680449594715245,0.6812468726351653,9.625068977980204
145.0,5.762872814110697,11.814221938841527,0.6886961693997465,9.748732068012963
146.0,5.657943673883908,11.94024875358685,0.6960836313026918,9.87525195423584
147.0,5.561779137191059,12.059029988572622,0.7034033180515428,10.00466115578799
148.0,5.475021621093721,12.17113204991891,0.7106495603401886,10.136992035050413
149.0,5.3981885707700235,12.277172118789974,0.7178169638431104,10.27227676599771
150.0,5.331682450505189,12.377805432298649,0.7249004380385086,10.410547339455286
151.0,5.275816236667895,12.47370994139023,0.7318951919796136,10.551835453268879
152.0,5.230832453629242,12.565574493864254,0.7387967071160338,10.696172547922009
153.0,5.196907409794834,12.654089034347967,0.7456008293903037,10.843589835691153
154.0,5.1741838408344805,12.739934851634725,0.7523036529697638,10.994118103400552
155.0,5.162771306296188,12.823778463799636,0.7589016265524088,11.147787988954388
156.0,5.16276716155015,12.906262919276116,0.7653914881781071,11.304629647919747
157.0,5.17426244748645,12.988009194516202,0.7717702734382721,11.464673103781099
158.0,5.1973560141421675,13.069604761449982,0.7780353560447975,11.627948034532261
159.0,5.232154675923988,13.151611749842964,0.7841843483027633,11.794483877906666
160.0,5.2787930133214225,13.234555491751745,0.7902152342017155,11.964310123251275
161.0,5.337419880227112,13.318934763805574,0.7961261972937266,12.137455978006669
162.0,5.408223802484331,13.405213393099128,0.8019157726751046,12.313951061220402
163.0,5.4914134106923616,13.49382760886215,0.8075826947339472,12.493824939973281
164.0,5.587241585718392,13.585184035464303,0.8131260058595282,12.67710805553839
165.0,5.695986007757275,13.679661684746156,0.8185449501553603,12.863831323453876
166.0,5.817967438399547,13.777615946497392,0.8238390283252933,13.054027097508571
167.0,5.953535152797677,13.879375713778773,0.8290079422986483,13.24772921498313
168.0,6.103076141283602,13.98525154791569,0.8340515971003021,13.444973645867769
169.0,6.2670082128303415,14.095529511750875,0.8389700910980002,13.645799555847862
170.0,6.445778763298518,14.210481181579855,0.8437636742008279,13.850249149594234
171.0,6.639866451304874,14.330356043401611,0.8484327714081894,14.058370493111763
172.0,6.849769787646497,14.455391202061593,0.852977911812651,14.27021601957945
173.0,7.076016638455874,14.585803851976234,0.857399769195266,14.485847837644055
174.0,7.3191450370393465,14.721799136732605,0.8616990793789837,14.705334726588246
175.0,7.579717103632781,14.863563532996121,0.865876679230742,14.92876007640785
176.0,7.858296645961179,15.011269884895905,0.8699334283560965,15.156218126724195
177.0,8.1554640222229,15.165071997806788,0.8738702351144436,15.387823768011998
178.0,8.471793723905732,15.325106201061066,0.8776879871322133,15.623709928187901
179.0,8.807868979965283,15.491487335804454,0.8813875654814728,15.864037332367078
180.0,9.16426083460035,15.664305600874753,0.8849697767071658,16.108996344625638
181.0,9.541542653500146,15.843625081510497,0.8884353667055381,16.358813398312865
182.0,9.940272022768644,16.029473106765376,0.8917849393324905,16.61376211309363
183.0,10.361005064859079,16.22184399237011,0.8950189872747291,16.874161728778024
184.0,10.804283723823,16.42067651219777,0.8981377812110991,17.14040334919444
185.0,11.270648285379561,16.625866658598202,0.9011414339984684,17.41293502382698
186.0,11.760634279933056,16.837228467329957,0.9040297528581291,17.69230832573311
187.0,12.274779758194864,17.054519141254723,0.9068023429404626,17.979146005761415
188.0,12.813636327610487,17.277381060674927,0.9094584358230259,18.27420971430748
189.0,13.377767873976545,17.505378831494678,0.9119970195005868,18.578351535272052
190.0,13.96777560188361,17.73792806937843,0.9144166847102473,18.892593312809737
191.0,14.58428819214261,17.974337395119313,0.9167157533132083,19.218071173910346
192.0,15.227993280799819,18.213737965857884,0.9188921989635044,19.5561077350771
193.0,15.899621118967955,18.455120751105138,0.9209437575612266,19.90816027306875
194.0,16.599961725707843,18.697299191101216,0.922867957638738,20.275851837107876
195.0,17.329853194509326,18.93890730603457,0.9246622345863386,20.66095253792283
196.0,18.090163166212196,19.178431988314106,0.9263240456881867,21.065340512248614
197.0,18.881766357545615,19.414198912362487,0.9278510795275499,21.49098541043147
198.0,19.705489076851368,19.644431930219817,0.9292414124106733,21.939875730569852
199.0,20.56207229469924,19.867283964779695,0.930493706729949,22.413973207094983
200.0,21.45206034922035,20.080906575678462,0.9316075662441339,22.91510477954993
201.0,22.375764577243114,20.283511158018115,0.9325835330420301,23.444915674580447
202.0,23.333140156484838,20.473453833140695,0.9334234954557313,24.00475003159675
203.0,24.32369697345809,20.64932063846583,0.9341307062301183,24.59557409382275
204.0,25.34649599633579,20.809954200028805,0.9347097444937182,25.217965403916203
205.0,26.399992996863254,20.954574620824697,0.9351667453148876,25.871980535732686
206.0,27.482130678468373,21.082738421179492,0.935508967401766,26.55724379214709
207.0,28.590303880387758,21.194380128450316,0.9357448105251358,27.27291243770101
208.0,29.721394364894607,21.289803113105275,0.9358834717451058,28.017720842321637
209.0,30.871915060475285,21.369590790900933,0.935934625558154,28.79009737641844
210.0,32.03803921442736,21.434608129397738,0.9359081859866993,29.588186899652943
211.0,33.215760576257566,21.485895966088233,0.935813948465271,30.409982258198024
212.0,34.400982579776,21.524622988380997,0.935661430431706,31.253384574045473
213.0,35.58963874436626,21.552025630022086,0.9354595526062514,32.11628740260322
214.0,36.7777668264022,21.56935155337312,0.9352166401775067,32.99662875101247
215.0,37.96160861293736,21.577819343664647,0.9349402158771549,33.89244721797281
216.0,39.13766596305877,21.57858453585924,0.9346369915694546,34.80191363128903
217.0,40.30271233671363,21.57272887980329,0.9343129405138294,35.723334678524814
218.0,41.45388470737044,21.561228874604677,0.9339731675407956,36.65519399277685
219.0,42.58862902973953,21.544970507330355,0.9336221145128049,37.59611999926188
220.0,43.704737260128894,21.52473855134555,0.933263536644665,38.544898531076136
221.0,44.800364648955494,21.501214275507607,0.9329005388636797,39.500472270604696
222.0,45.87393242036148,21.475004311145675,0.9325357773903065,40.461895568876606
223.0,46.92424421497193,21.44661218893328,0.9321713209303134,41.428375120695264
224.0,47.95029021676704,21.41649221299016,0.9318089656412221,42.39918989291505
225.0,48.95143112072106,21.385005172817664,0.9314500133999499,43.3737554625941
226.0,49.92715460876386,21.352480289185248,0.9310956031033896,44.35153335999574
227.0,50.87723669989304,21.319178473344262,0.9307465338975396,45.332084693973634
228.0,51.80163653710864,21.285317992662247,0.9304034010642889,46.31503275788466
229.0,52.5270402380547,20.854729581496276,0.9300666835167373,47.30003730637318
230.0,52.495878509523095,18.840144613692644,0.9297366698025892,48.286819314468374
231.0,52.466568122585095,17.020751178031084,0.9294135388943667,49.27513727093293
232.0,52.43891627079189,15.377577292791702,0.9290973724108866,50.26478425072428
233.0,52.41275382900985,13.893499688998638,0.9287881732383784,51.255582775486864
234.0,52.387932204524326,12.553063191313969,0.9284858805450151,52.24738063473154
235.0,52.36432040814669,11.34231835192312,0.9281903829725296,53.24004703908539
236.0,52.3418027521723,10.248681096760588,0.9279015289971194,54.23346959819657
237.0,52.320276669042194,9.260785414970984,0.9276191360300771,55.227551499864965
238.0,52.29965102058611,8.368381797032018,0.9273429974986199,56.22220932240115
239.0,52.279844496797416,7.562208290818248,0.9270728889750911,57.21737099669849
240.0,52.26078436165196,6.833914034030101,0.9268085729624905,58.212974211058885
241.0,52.24240528880864,6.175950999845147,0.9265498029252005,59.20896495432921
242.0,52.22464842096057,5.581513110901265,0.9262963264599631,60.20529634394878
243.0,52.20746052647788,5.044448564127387,0.9260478878795099,61.20192759024322
244.0,52.19079328664561,4.559208664870029,0.9258042302434226,62.19882313004256
245.0,52.17460268366194,4.120779102191679,0.9255650969608732,63.195951890904766
246.0,52.15884845587621,3.7246350275058324,0.9253302330176357,64.19328664785156
247.0,52.14349365006707,3.366688905023821,0.9250993859203545,65.19080349835244
248.0,52.12850420239531,3.0432498788883295,0.9248723063621753,66.18848138369144
249.0,52.11384860575713,2.7509855152185287,0.9246487487249248,67.18630171048292
250.0,52.09949758622447,2.486884700086525,0.9244284713607787,68.18424799462507
