Time,J,A,S,tau,r
0.0,1.0,1.0,0.9863628558929208,9.25925925925926,0.0
1.0,6.872861347009562,4.2596128166298675,0.986166073817355,9.590582439022437,0.03365144267601129
2.0,22.991066859637282,7.445320213312261,0.985964983673932,9.921152440898533,0.033667066874640716
3.0,48.09204162290758,10.559299401183152,0.9857590013688374,10.25086519851177,0.033684386843068216
4.0,81.0694270370544,13.603656330959815,0.9855475038854546,10.579618591595583,0.03370337178663985
5.0,120.9520024866591,16.58044920696399,0.9853298580509015,10.907308029114425,0.03372403546653967
6.0,166.88633961205,19.49163817250801,0.9851054150455663,11.233836935133215,0.033746310380741336
7.0,218.1210339157375,22.339181296564306,0.984873513552053,11.559097794518388,0.03377024289990433
8.0,273.9941344680679,25.124942702347635,0.9846334980711471,11.88299092240324,0.03379580308085596
9.0,333.92083980295746,27.850737814641143,0.9843847035772126,12.20541565229824,0.033822976634148044
10.0,397.38472385648146,30.518363977305857,0.9841263965872071,12.526264504249484,0.03385178654916938
11.0,463.9275499603504,33.129501329313534,0.9838577604651461,12.84544315408441,0.033882183980383195
12.0,533.1449655647301,35.68586357071108,0.9835781061691119,13.162841298091603,0.03391420077373338
13.0,604.6757422765671,38.189017235693626,0.9832867399720456,13.478368120040024,0.03394778088563624
14.0,677.5922376135449,41.41697417750833,0.9828239768765052,13.60742670387488,0.03414523239709911
15.0,745.7179402920318,53.52830930104736,0.9827240267814057,13.589741985904542,0.03430984432173724
16.0,808.0380863907266,75.3282251193184,0.9826257875437733,13.571430696588475,0.03445603358896386
17.0,858.4252753934524,105.33841132072264,0.9825303859780276,13.552466510561368,0.03458716639265997
18.0,889.8493987576834,142.27632746376952,0.982437855407494,13.532777355856375,0.03470602914335095
19.0,899.5750140880498,185.03177006796489,0.982346468263765,13.512272262984585,0.03481503075070129
20.0,889.0519582761465,232.64500707505303,0.9822526006259538,13.49079830385488,0.03491628149188826
21.0,861.6148850575366,284.2878508266468,0.9821504833561958,13.468170619078254,0.035011709335079945
22.0,820.7114793995919,339.247602584169,0.9820327733773672,13.444132585158965,0.035103120763972775
23.0,769.2111925805075,396.9138090156024,0.9818917220229664,13.418317248736914,0.03519227130034592
24.0,709.3394666560919,456.767093206338,0.9817203914867914,13.39021874438113,0.035280885067428026
25.0,642.7975593617582,518.372449578879,0.981514182451907,13.359110867232017,0.03537059310705413
26.0,570.8780723381258,581.3807797363007,0.981272322609295,13.323903339389563,0.035462678165199185
27.0,494.5221716391822,645.5545922946102,0.9809977801910356,13.282815870061691,0.03555751494030718
28.0,413.33662871722316,711.7903362816993,0.9806948996503962,13.232280919976834,0.035654117436054976
29.0,325.2355522498009,782.4656514690663,0.9803695105077311,13.161010917069472,0.03575204702469557
30.0,229.35225615289613,858.6923662856935,0.9800248225258975,12.981520307388086,0.03587685627875998
31.0,144.48666778817383,922.0460332671922,0.9796634797509797,12.826295920621748,0.03599004269309886
32.0,85.98701554092418,957.7919138834142,0.9792889696160773,12.756069968875389,0.03607779767848773
33.0,45.981948725582896,974.3362936961464,0.9789085508222553,12.702309464577175,0.036159574561949605
34.0,18.47808773087852,978.0660733855018,0.9785354674843646,12.65614663325721,0.036233355195545706
35.0,-0.5822446796685439,973.3137863096955,0.9781866375183819,12.614469272401164,0.03629824586533553
36.0,-13.79018398845043,962.8591975689535,0.9778765320692746,12.575482359152385,0.036355484163929565
37.0,-22.86235764472389,948.5473654718699,0.9776077089745,12.53791326410793,0.036407270256131954
38.0,-28.98744107268875,931.6545221368922,0.9773646033154891,12.500692142168385,0.036456014250976415
39.0,-33.013668778455674,913.0873804366523,0.9771141471673866,12.462785732110353,0.03650411522934683
40.0,-35.55696268168056,893.4997274016597,0.9768169164141189,12.423042304037818,0.03655400143075861
41.0,-37.05056710980834,873.3484626882932,0.9764419635821602,12.379979398718806,0.03660820889419409
42.0,-37.79368273955946,852.9468224356407,0.9759787768820066,12.331382728765464,0.036669200890831845
43.0,-38.01860674678329,832.5341004415511,0.9754392405044126,12.273542666626616,0.03673811644135447
44.0,-37.940504823231265,812.3267348066262,0.9748442296189278,12.197864545639309,0.03681283889247645
45.0,-37.754622153396575,792.5164795312807,0.9742111174626851,12.053175826746028,0.03689754505826928
46.0,-37.65477899264116,773.2892634359631,0.9735498572013576,11.841836042469678,0.03699302625785806
47.0,-37.24025790769978,754.2397632387118,0.9728683787064107,11.75260145974649,0.03706560864781756
48.0,-36.77662785732184,735.6279752348535,0.9721847076398658,11.68787665004131,0.03713147042749102
49.0,-36.268226990838045,717.4519927650574,0.9715349349615798,11.633914730554952,0.03718748323624544
50.0,-35.71708052719593,699.7076875343439,0.9709584782713342,11.585932869586259,0.03723427728260968
51.0,-35.12405644454471,682.3903621959572,0.9704695543204793,11.541183053022978,0.03727471042798509
52.0,-34.48917085162657,665.4946242536173,0.9700370866904683,11.497707962662792,0.037311884969263034
53.0,-33.81160089550393,649.0146847361469,0.9695895430636298,11.45382493724784,0.03734868010164396
54.0,-33.09013108287471,632.9447925187272,0.9690462099301107,11.40775133942458,0.03738792532974143
55.0,-32.322752381851075,617.2789430666661,0.968358419137135,11.35720639972811,0.03743256409219532
56.0,-31.506846437430603,602.0110189687579,0.9675275962347926,11.298652791703594,0.03748525740529014
57.0,-30.638835588486437,587.1345800289844,0.9665899800709513,11.225427578482508,0.037546181119718976
58.0,-29.730207734133703,572.6589257526272,0.9655829574986635,11.11566901007458,0.03761205052612599
59.0,-29.334507506366357,559.1317979073641,0.964529588783754,10.904529619439675,0.03769020810046462
60.0,-28.379273591832803,545.4783436793876,0.9634399255095049,10.78751905087003,0.03775430470937576
61.0,-27.31963882680137,532.159144144356,0.9623330396072025,10.712273422178793,0.03781151750273994
62.0,-26.18616186779054,519.2066706759763,0.961256886817503,10.652480343286589,0.03785892906241564
63.0,-24.972644239333103,506.6174351774791,0.9602773443316275,10.601037682562533,0.037896530935190104
64.0,-23.67256229367153,494.38865800680964,0.9594353685467728,10.554247568288382,0.03792717831346727
65.0,-22.27920241455859,482.5183950183892,0.9587044227597976,10.509721584464502,0.03795391210558841
66.0,-20.784328238426884,471.00415435762966,0.9579864702988107,10.465607047192247,0.037979337857350616
67.0,-19.177259183530776,459.8421227473287,0.9571559149640559,10.420144244798124,0.03800582149337632
68.0,-17.44660049782729,449.02880885275783,0.9561224138451246,10.371280501086929,0.03803582012317009
69.0,-15.580947363306912,438.56182513102243,0.954868974010257,10.316124009820191,0.03807191830094066
70.0,-13.567147150363565,428.4379758351649,0.9534406927264822,10.249886161715951,0.03811575824345869
71.0,-11.41652940800992,418.6787694226872,0.9518975581927414,10.162467043355473,0.03816528445820922
72.0,-9.72654174707988,409.88582972498625,0.9502778366023236,10.017829050036275,0.03821892220059112
73.0,-8.278659095522965,401.8247719237558,0.9485954223584437,9.860554447049179,0.03827235903328681
74.0,-5.792404886450551,393.24257522717994,0.946862490668552,9.769056332417554,0.038318439024058425
75.0,-3.0799392862223622,384.9725307484595,0.9451147328921908,9.701732748304604,0.038357309136677904
76.0,-0.18564750316735062,377.0689833265959,0.9434244442269699,9.646718315922275,0.038386487710297706
77.0,2.8747719849156117,369.55372560888634,0.9418781611396231,9.598882336527998,0.03840745188345953
78.0,6.076719547879448,362.4533199985278,0.9405236790855906,9.555258148645944,0.03842281530286733
79.0,9.394159774910895,355.79128911735125,0.9393249069416304,9.513880186377122,0.038434842844244095
80.0,12.817304717829714,349.5706946115201,0.938160293465572,9.473242442973604,0.0384453075704748
81.0,16.353516364137455,343.7739772348177,0.9368703831603677,9.43198697916077,0.038455719701011006
82.0,20.019667923919,338.3715189638911,0.9353266903172294,9.388651487250316,0.03846758778152527
83.0,23.8089658945549,333.35465765221113,0.9334802547424793,9.341388754058459,0.038482605804124756
84.0,27.67497388262161,328.7486344664414,0.9313631974056406,9.287536353779831,0.03850252163229516
85.0,31.555321165013265,324.58685212475507,0.9290479363318465,9.222830729403775,0.038528098514347006
86.0,35.26900211710604,321.01058056942225,0.9265987316158032,9.139310879576621,0.03855725591367954
87.0,37.85873863138061,318.91217704990845,0.9240507876577305,9.020302620779171,0.03858740660198196
88.0,39.76829308568643,317.76122492968904,0.9214161908443703,8.892828749690093,0.03861642201068982
89.0,42.782112997714876,315.75143295399164,0.9187047137545485,8.804240003182645,0.03864127934880284
90.0,45.89290236941902,313.8731309783901,0.9159429785196447,8.738032486714502,0.0386605360109825
91.0,48.80388697168618,312.38090572659485,0.9131932497852037,8.68447419595805,0.03867183383798039
92.0,51.40500721212315,311.33361503002965,0.9105493852093972,8.638795082595756,0.038675656621630736
93.0,53.60666875306556,310.7672261611195,0.9081055589624142,8.598171361455233,0.03867378348566035
94.0,55.34140149067549,310.69696938236314,0.9059094371153257,8.560787184212018,0.038667915204293045
95.0,56.61632344699303,311.0696488047988,0.9039280287923441,8.525376860720826,0.03865934220985912
96.0,57.5074344817531,311.7740978602272,0.9020461320225783,8.490970811281292,0.03864901152987651
97.0,58.10802763510276,312.6937488822138,0.9000992423576982,8.456745915563209,0.03863766110324022
98.0,58.49418102533782,313.73758516355144,0.8979252009372174,8.42189685579899,0.03862594769770643
99.0,58.73846269155101,314.8240116974128,0.895413061922178,8.38555959291985,0.038614553074910254
100.0,58.90826891621962,315.88365589164187,0.8925277821848431,8.3466881494411,0.03860426769019171
101.0,59.056070119196704,316.8689129226832,0.8893034018291548,8.303906150292491,0.03859599667624318
102.0,59.17909462841158,317.7921703765349,0.8858125840938363,8.25529797138986,0.03859055197435789
103.0,59.2613559708741,318.681082109432,0.8821298969604954,8.198104744782068,0.038588014938674184
104.0,59.21243631842853,319.6381277860483,0.8783088400151335,8.128377008470121,0.03858700419853988
105.0,58.7331832394881,320.9712347587393,0.8743764264558047,8.041757420591324,0.0385855297600204
106.0,57.96451127755345,322.54895245491787,0.8703452729102649,7.946451325976447,0.03858252695114355
107.0,57.84588893155695,323.4541025379465,0.8662229535085754,7.865260269954754,0.03857700896695536
108.0,58.22804696143254,323.86688174626295,0.8620230419824565,7.801067226442637,0.03856798953904133
109.0,58.819003749422684,324.1012164829614,0.8577754176414844,7.7488981605543295,0.03855385111713526
110.0,59.52390599565626,324.26707887675605,0.8535359749380028,7.705046214027136,0.03853394295814103
111.0,60.28755315409206,324.43036363647093,0.8493848759234052,7.667021976402144,0.038508835398566546
112.0,61.058953720885654,324.64980790587157,0.8454106633094904,7.633139917276682,0.0384795372658278
113.0,61.806628643712756,324.96236977722305,0.8416899286625392,7.60223799544559,0.03844699172740045
114.0,62.52211571993324,325.38057864287657,0.838261815056128,7.573490671521499,0.03841193640278038
115.0,63.2131441225077,325.8989195459527,0.8351143236156482,7.546288205655766,0.03837491168490459
116.0,63.89763045922692,326.4998072575896,0.8321807202296322,7.520155008525691,0.03833631281891987
117.0,64.59630927059555,327.16061051367194,0.8293522439621908,7.494705408308648,0.038296429648292156
118.0,65.32973786278353,327.857291167134,0.8264977284779271,7.469608311452834,0.03825548674926837
119.0,66.11804335134367,328.5646531899302,0.8234889410706273,7.444555884827277,0.03821366438233391
120.0,66.98195574599535,329.2560328984368,0.8202215481694592,7.419255047574142,0.03817112625633461
121.0,67.94139689266048,329.9048761719768,0.8166303491640113,7.393395101123317,0.03812803402448361
122.0,69.00099393025164,330.49928726851954,0.8126936421670795,7.366640130557847,0.0380845673724215
123.0,70.14710456508242,331.0455586756979,0.8084288356176015,7.338606708073226,0.03804093127779093
124.0,71.3582851371427,331.5574949195588,0.8038808205606436,7.308839684020395,0.0379973599573487
125.0,72.60532460114061,332.0564961303655,0.7991089783805713,7.276793758056155,0.03795409155755551
126.0,73.8572867820936,332.5658128625324,0.7941717871161429,7.241811093464265,0.03791130627708603
127.0,75.08629629689149,333.105679546284,0.7891187260187441,7.203125405389075,0.037869018628738496
128.0,76.26570219657579,333.6951736624887,0.7839876908911543,7.159920134950326,0.03782695712510263
129.0,77.36599230491032,334.3569121476147,0.7788033200197662,7.1115309587086974,0.037784567920599
130.0,78.3536878271877,335.11745265204183,0.7735816054955588,7.058033065952265,0.03774124142840586
131.0,79.23052311259083,335.96993250048155,0.7683335839585231,7.001463569950726,0.03769655539871761
132.0,80.0721743713491,336.8339933310323,0.7630681389592578,6.946181258545447,0.03765030032973139
133.0,80.94004568465029,337.64520680701975,0.7577927671843064,6.8959652443161215,0.037602243965027544
134.0,81.82530838605709,338.41022267835785,0.7525188500249645,6.851981435440746,0.03755212505201339
135.0,82.7009939176754,339.15433312771387,0.74725892178773,6.813760980379448,0.037499630372430065
136.0,83.55017068700957,339.8929399047734,0.7420310735685101,6.780414815666565,0.03744457595275655
137.0,84.3635637998992,340.6342412996209,0.7368580265578126,6.751057305393842,0.03738700074824039
138.0,85.13422881066691,341.38468779989694,0.731766930964105,6.72493836769771,0.037327116150121534
139.0,85.8552043149436,342.1509561118958,0.7267883722983586,6.701460336418376,0.037265214732157735
140.0,86.51967350537664,342.9396639513839,0.7219530770070592,6.680150810724416,0.03720159586713034
141.0,87.12293668115305,343.75554072672134,0.7172908822676031,6.660638677358679,0.03713653198536353
142.0,87.66442646257607,344.5993196398145,0.7128255113773403,6.642640150614248,0.03707025714172468
143.0,88.14690130270476,345.4682965596471,0.7085753843887151,6.625929784072878,0.03700296863254164
144.0,88.57616388667608,346.3569007007064,0.7045501135897098,6.610327366367999,0.036934827011239735
145.0,88.9596594786877,347.2580061225584,0.7007518877839081,6.595690044742955,0.036865966567243565
146.0,89.30525078525164,348.1639102939726,0.697175915733988,6.581902397561323,0.03679649947943613
147.0,89.6204433193649,349.0673719028152,0.6938095556265804,6.568870071104404,0.03672652058192261
148.0,89.91142373687684,349.9622886481849,0.6906373273432177,6.556512448260818,0.036656111678798745
149.0,90.1828970476358,350.8438374424057,0.6876404228743205,6.544761714744519,0.03658534343498888
150.0,90.43851236386985,351.7082761989919,0.6847985582183269,6.533561168336084,0.03651427635714144
151.0,90.68123055493531,352.5524318554154,0.6820909921901459,6.522867245573059,0.036442965633127405
152.0,90.91293298506244,353.3740871362421,0.679497835802947,6.512643422673715,0.03637145814093045
153.0,91.13534621502322,354.17117329824094,0.6770004325842826,6.50286726697709,0.03629979669624455
154.0,91.34962969756846,354.9420896827508,0.6745819150485077,6.49351951733053,0.03622801964545531
155.0,91.55681117310108,355.6854314778429,0.6722286054021325,6.484590851666793,0.036156164779933206
156.0,91.75720125219515,356.4004375479221,0.6699304475055124,6.4760707144240195,0.036084262849354384
157.0,91.9513116693359,357.0863143360693,0.6676801762116427,6.46795571210105,0.036012347440520086
158.0,92.13891162435932,357.7429598192178,0.6654746258716046,6.460238482052779,0.03594044817491306
159.0,92.3197549487712,358.37048391870275,0.6633135118995543,6.452914454264944,0.03586859396031075
160.0,92.4933718329466,358.96924701673095,0.661199089357667,6.445978627664063,0.03579681434782943
161.0,92.65933782826032,359.5396605499147,0.6591355878668319,6.439426151215941,0.035725138633596054
162.0,92.8170281379984,360.0824002763313,0.6571288635437549,6.433246870892484,0.03565359435909302
163.0,92.96605677713274,360.59817271894576,0.6551857131154861,6.427439153665726,0.03558220954397068
164.0,93.10581744040809,361.08777482115306,0.6533136057773531,6.421999567332534,0.035511012865678
165.0,93.23589144610861,361.5519739454429,0.6515201146304028,6.416925052455229,0.035440033779354445
166.0,93.35572761325658,361.99180696201114,0.649812860721315,6.412210472834888,0.03536929925585077
167.0,93.4646887934194,362.4081441885184,0.6481994149786083,6.407854244460753,0.03529883991380705
168.0,93.56252791640767,362.8019636477777,0.6466865984008504,6.403851728108038,0.03522868492344988
169.0,93.64853175323758,363.1743010973433,0.6452815475593168,6.4002019816750275,0.03515886274284449
170.0,93.72248302113644,363.5261183490752,0.6439898557387541,6.39689885357855,0.03508940320250876
171.0,93.78366738266469,363.85843736289195,0.6428178553715639,6.393943963257794,0.03502033556417934
172.0,93.83197536368674,364.1719244927464,0.6417695708773393,6.391333484842491,0.034951691599539036
173.0,93.86683006418711,364.4677043933489,0.6408500614405838,6.389063834246842,0.03488349910164555
174.0,93.88795502027055,364.74646749464523,0.6400629484105561,6.387131098502544,0.034815788429791356
175.0,93.89491747234152,365.00909602888316,0.6394119213657808,6.385536093493071,0.0347485881707998
176.0,93.88767579977541,365.25601193269756,0.6388988178257413,6.3842763386104515,0.034681929144054026
177.0,93.86587325940059,365.4880141620562,0.6385264660073432,6.383349653345297,0.03461583884234169
178.0,93.82957713833625,365.70535455406196,0.6382953381878178,6.382753940809269,0.03455034714434142
179.0,93.77857896165153,365.90847698350484,0.6382071812162835,6.382490758340641,0.0344854819401835
180.0,93.71295060096358,366.09746801850906,0.6382616603579313,6.382559713065958,0.03442127197290154
181.0,93.6327668244907,366.2726144628208,0.6384589291238616,6.382958910678061,0.034357743363685106
182.0,93.53821268260074,366.43368850576724,0.6387975968059315,6.383690552886738,0.034294924281929935
183.0,93.42948183028874,366.58074400371794,0.6392767670795644,6.384753888302137,0.03423283961297402
184.0,93.30703654243985,366.7132515271995,0.6398936238418769,6.3861510078235355,0.03417151637889456
185.0,93.17114538536326,366.83100495774454,0.6406461660611351,6.387882330723519,0.03411097783391678
186.0,93.02233123913196,366.93337255806557,0.6415309715046762,6.3899508056391925,0.034051248877432785
187.0,92.86122812243381,367.0196978924398,0.6425438409427948,6.392356425787271,0.033992352070978726
188.0,92.68861165711964,367.0889648337407,0.6436799710502774,6.3951049937799,0.033934310897684165
189.0,92.50516344055387,367.14029764800324,0.6449341775964537,6.398195992613511,0.03387714708859397
190.0,92.31180242003002,367.1726929078809,0.6463005298873522,6.4016307888692685,0.033820880072847115
191.0,92.10936108961339,367.18497232788314,0.6477728997780772,6.4054121922887655,0.033765528973620576
192.0,91.89880110871395,367.1758498866533,0.6493439567431487,6.4095427833144525,0.033711112897169514
193.0,91.68110767240279,367.1439945046917,0.6510060105718948,6.414024520777389,0.03365764900008328
194.0,91.45728348256277,367.0880407219417,0.6527511714919068,6.418860618654357,0.03360515256527718
195.0,91.22846814097484,367.0064505609989,0.6545705874609855,6.424054823711332,0.03355364012472273
196.0,90.99550673118084,366.8977802664341,0.6564555543130919,6.429608728847996,0.033503125860636356
197.0,90.75952873430222,366.7606299809225,0.6583975265661368,6.435527857629068,0.033453621847364154
198.0,90.52129948074204,366.5936542696976,0.6603880148025226,6.44181698876529,0.03340513908411883
199.0,90.28181230639129,366.39543131821625,0.662419303166174,6.4484817168723865,0.03335768862721296
200.0,90.04174686905715,366.1648054795841,0.6644848093138415,6.455530639458454,0.033311279660296365
