Time,J,A,S,tau
0.0,100.0,10.0,0.6196048371805468,30.141321033497924
1.0,99.67562945395136,8.993891310094867,0.6183133344743272,31.109956947034835
2.0,99.35724900929183,8.092935618180622,0.6170307274341503,32.07986004109867
3.0,99.04488133738509,7.286309505474544,0.6157571357434438,33.050856999934204
4.0,98.73811989515404,6.56403860321462,0.6144923613353013,34.022855940563836
5.0,98.4365793809336,5.917221976375368,0.6132361697400452,34.995771224827045
6.0,98.13989392798906,5.337905679354325,0.6119882946837252,35.96952286937161
7.0,97.84771542748759,4.81898532003876,0.6107484422186861,36.94403600031987
8.0,97.55971204908948,4.354118396870792,0.6095162943288307,37.9192403702535
9.0,97.27556678758141,3.9376348315286998,0.6082915122926166,38.89506988776294
10.0,96.99497612847884,3.5644691187308344,0.6070737396708326,39.87146218655532
11.0,96.71764885244606,3.230097119097766,0.6058626049399215,40.848358237377916
12.0,96.44330485226656,2.930473063772072,0.6046577239457456,41.825701967808016
13.0,96.17167405285261,2.6619821029925093,0.6034587020762681,42.803439914611126
14.0,95.90249542290609,2.421394515974635,0.6022651362084529,43.781520903238665
15.0,95.63551599361242,2.2058215865791904,0.6010766165219887,44.75989573267814
16.0,95.37048996079506,2.0126822688574113,0.5998927281207901,45.738516884730615
17.0,95.10717784159687,1.8396695074695106,0.5987130525239398,46.71733824806801
18.0,94.84534563741009,1.6847202850608156,0.5975371690598581,47.696314846415376
19.0,94.584764065101,1.5459926015117604,0.596364656150904,48.67540258327359
20.0,94.32520779537268,1.4218379794557805,0.5951950925367253,49.654557988810396
21.0,94.06645472549529,1.31078509423491,0.5940280584331767,50.63373797452789
22.0,93.80828527263627,1.211518126714292,0.592863136667569,51.61289958969676
23.0,93.5504816737444,1.1228626351915856,0.5916999137705761,52.59199978006654
24.0,93.29282730745348,1.0437693041273175,0.5905379811032896,53.57099514336113
25.0,93.03510601275048,0.9733023116129325,0.5893769359427802,54.54984168652747
26.0,92.77710141383253,0.9106264504608338,0.5882163826691852,55.528494570738054
27.0,92.51859624411304,0.8549979687017134,0.5870559339188371,56.5069078589551
28.0,92.25937166265017,0.8057533922275706,0.5858952118580567,57.485034247766116
29.0,91.999206549884,0.7623038641739353,0.5847338495474139,58.462824785246355
30.0,91.73787681851341,0.7241258083310665,0.5835714922950438,59.440228593174176
31.0,91.47515466096264,0.6907548514233961,0.5824077992982074,60.417192546075015
32.0,91.21080780027108,0.66178095432701,0.5812424452975181,61.393660951009814
33.0,90.94459872734282,0.6368423999160532,0.5800751223552516,62.36957521259809
34.0,90.67628387484716,0.6156207402068481,0.5789055419080058,63.34487345781974
35.0,90.40561274121146,0.5978383709042875,0.5777334370307619,64.31949013105319
36.0,90.13232702595428,0.5832536478071708,0.5765585647665491,65.29335558643592
37.0,89.85615965326373,0.5716584268068233,0.5753807088818458,66.26639561600523
38.0,89.57683381963543,0.5628749272508891,0.574199682655563,67.2385309816631
39.0,89.29406187438713,0.556753720589506,0.5730153322800937,68.20967685309796
40.0,89.0075442134253,0.5531716370083071,0.5718275403438993,69.17974224301555
41.0,88.71696798039176,0.5520302909918581,0.5706362300344785,70.14862933299484
42.0,88.4220075751653,0.5532553709116361,0.5694413683531968,71.11623297426837
43.0,88.20440769274059,0.6058525156111011,0.5682429721484252,72.08243973221565
44.0,88.00295396356829,0.6665995147330953,0.5670411122401791,73.04712725988921
45.0,87.8085700865687,0.7295682375561154,0.5658359196069778,74.0101633424117
46.0,87.62187568043838,0.7949832835624836,0.5646275911980796,74.9714050163162
47.0,87.44358291946493,0.8630862514529363,0.5634163964844784,75.93069757911609
48.0,87.27450642512339,0.9341373129721298,0.5622026846400308,76.88787350802829
49.0,87.1155742536238,1.0084168672000084,0.5609868922067831,77.84275131100166
50.0,86.96784010320845,1.0862272989441057,0.5597695513346066,78.7951342947207
51.0,86.83249679650062,1.167894838735444,0.5585512985875468,79.74480924978262
52.0,86.71089110153429,1.2537715212774594,0.557332884307561,80.69154505306292
53.0,86.60453993670221,1.3442372362019368,0.5561151825121642,81.63509118903487
54.0,86.51514797715231,1.4397018612819983,0.5548992012848741,82.5751761940257
55.0,86.44462664122918,1.5406074635037132,0.5536860935950101,83.51150603025499
56.0,86.39511438144119,1.6474305483815006,0.5524771684587625,84.44376239963918
57.0,86.36899811877416,1.7606843330268953,0.551273902325992,85.37160101085207
58.0,86.3689355815177,1.8809210052862457,0.5500779505240021,86.29464982046309
59.0,86.39787816653396,2.0087339292788617,0.5488911585676498,87.2125072714739
60.0,86.45909378320134,2.14475974433764,0.5477155730854077,88.12474056078973
61.0,86.55618893641108,2.2896802938347665,0.5465534520581141,89.03088397426777
62.0,86.69312905338424,2.4442243083953366,0.545407274007333,89.93043733612208
63.0,86.8742557542812,2.609168755148859,0.5442797457057463,90.82286462831307
64.0,87.10429940407897,2.785339751383815,0.5431738079147065,91.70759284485457
65.0,87.38838486133106,2.973612927782913,0.5420926385864195,92.584011155408
66.0,87.73202786091855,3.1749131140491955,0.5410396529035881,93.45147046163837
67.0,88.14111894212034,3.390213209123331,0.54001849947212,94.30928343797044
68.0,88.6218912790722,3.6205320905023486,0.5390330519382264,95.15672515483232
69.0,89.18086821949014,3.8669314137756876,0.5380873952764733,95.99303438627945
70.0,89.82478583727048,4.130511155948734,0.5371858059976046,96.81741570398763
71.0,90.56048542297614,4.412403766082129,0.5363327255622832,97.62904245483439
72.0,91.39477132901193,4.7137667897549616,0.5355327263488981,98.42706071975643
73.0,92.33422621533944,5.0357739357591305,0.5347904698027136,99.21059425639511
74.0,93.38498336567979,5.379604494260163,0.5341106560642538,99.97875063115426
75.0,94.55245217886444,5.746431061909075,0.5334979657099522,100.73062832804455
76.0,95.84098984858704,6.137405634668143,0.5329569927924681,101.46532499666357
77.0,97.25353113712593,6.553644742475198,0.5324921715825068,102.18194656768517
78.0,98.79117840424857,6.996212883552594,0.5321076965745436,102.87961720822645
79.0,100.45272677082318,7.46610493611106,0.5318074330869181,103.55749031563968
80.0,102.23423350679529,7.964228704252416,0.5315948328172798,104.21475917959549
81.0,104.12850424738836,8.491385699780656,0.5314728346333507,104.85066903224404
82.0,106.1248166551715,9.04825882985778,0.5314438017912245,105.46452516919237
83.0,108.20833268127045,9.635388993776493,0.531509391899349,106.05570788793649
84.0,110.36006249806532,10.253165848926553,0.5316705217440578,106.62367738839116
85.0,112.55667151543285,10.901813467663615,0.5319272767293852,107.16798384108874
86.0,114.77060521290149,11.58138169693623,0.5322788613460009,107.6882728399495
87.0,116.97038001649558,12.291738865194048,0.5327235510656396,108.1842902228342
88.0,119.12112215785656,13.032567802334983,0.533258664471377,108.65588428307753
89.0,121.18537867120727,13.803366691358514,0.5338805512334799,109.10300573834455
90.0,123.1241327298946,14.603452263062293,0.5345845954163078,109.5257056684479
91.0,124.89801594202989,15.431966450687822,0.535365234461511,109.92413137611781
92.0,126.46865260999145,16.287885935368358,0.5362159924647208,110.29852040634522
93.0,127.80005783916386,17.170034186974995,0.5371295262226206,110.64919297974187
94.0,128.8599986556979,18.077095503530604,0.5380976819648954,110.97654316441107
95.0,129.62120827808718,19.007630636864036,0.5391115617009626,111.28102904870904
96.0,130.06242514000272,19.960092752539794,0.540161590941927,111.56316272306296
97.0,130.16910753090778,20.932844374262693,0.5412375946187399,111.82349962150076
98.0,129.9336579153407,21.924174546380662,0.5423288810409645,112.06262776982072
99.0,129.35564416546532,22.932314591753205,0.5434243017654459,112.28115884704911
100.0,128.44140283061256,23.955451843910396,0.5445123310523978,112.47971782391333
101.0,127.20297098010329,24.9917456538931,0.5455811523616362,112.65893473294777
102.0,125.65769059262269,26.03933928116347,0.5466186977382768,112.81943729304793
103.0,123.82678248281579,27.096369025431663,0.5476127250654964,112.96184400009491
104.0,121.73426846705048,28.160975320038165,0.54855086890398,113.08675862289182
105.0,119.40581746592004,29.231309874709115,0.5494206911506037,113.19476570428684
106.0,116.86769630412651,30.30554196659568,0.5502097260230944,113.28642687365074
107.0,114.14583024961749,31.38186374457496,0.5509055221520092,113.3622777547645
108.0,111.26506515197688,32.458493228645395,0.5514956806003389,113.42282618535891
109.0,108.24864525841642,33.53367682659337,0.5519678886830732,113.46855110970803
110.0,105.11787863764057,34.60569081846287,0.5523099512023129,113.499901965975
111.0,101.89196444577668,35.6728421405008,0.5525098200845013,113.51729855158402
112.0,98.58794686719116,36.733468987818135,0.5525556249375104,113.52113108244426
113.0,95.22080474220375,37.785940322933534,0.5524357031031295,113.51176083542481
114.0,92.77632318013187,37.861003066357995,0.5760825581594488,92.849332964941
115.0,90.0355715861024,38.20893906878399,0.615526278254832,61.337148197093725
116.0,84.48859316808678,41.30153118152614,0.6300885287569351,50.72650785097187
117.0,77.87704366043374,45.3911868326136,0.6361495570241018,45.302090021556246
118.0,70.73244697411268,49.96154752365118,0.6383107729996664,41.830784515131526
119.0,63.39276849234865,54.688633380029444,0.6382023022253508,39.34738499549887
120.0,56.11709897614662,59.32422777779164,0.6365852169360527,37.44964034277536
121.0,49.11136560825069,63.67160895351804,0.6338785725312128,35.93460692935018
122.0,42.5354470056401,67.57949721436047,0.6303395426362999,34.6865819226755
123.0,36.505458282394045,70.9400793669372,0.6261386914845635,33.633740679603704
124.0,31.095698443883776,73.6869697359044,0.6213959437028985,32.728646138295964
125.0,26.341819205006193,75.79183260889388,0.6161996211095626,31.93844752149786
126.0,22.245527313451657,77.25948966554103,0.6106172777517342,31.23953597996866
127.0,18.780737485911125,78.12164704859063,0.6047022777563137,30.614424657277876
128.0,15.900330346753206,78.43009077270108,0.5984979137610625,30.049849031402744
129.0,13.543212126967399,78.24964945484459,0.5920401553352028,29.53554538643742
130.0,11.64085080734559,77.65173438670485,0.5853595124253421,29.063438198813866
131.0,10.122905553122548,76.7088197114236,0.5784823365533351,28.627085873422732
132.0,8.921650638407154,75.49014602593061,0.5714317602482981,28.22128802212577
133.0,7.9750871320732974,74.05873647290116,0.5642283790214087,27.841804573028465
134.0,7.228810129616421,72.46964862236321,0.5568907610457965,27.485148836880946
135.0,6.636792337842116,70.76929337280922,0.549435832911358,27.148432090830397
136.0,6.1613507461866375,68.99555109564358,0.5418791728403691,26.829246189552965
137.0,5.7725254546028495,67.17845638117572,0.5342352396962696,26.525572188405132
138.0,5.4471298076934955,65.34119317614065,0.5265175502385893,26.2357092783815
139.0,5.167660119876142,63.50121591934016,0.5187388187325307,25.958218597805505
140.0,4.916842444644826,61.67572834136458,0.5109110677593647,25.691878174173958
141.0,4.6829973277801935,59.876381663895536,0.5030457153856019,25.43564646786151
142.0,4.481311887632737,58.0878447422571,0.4951536442117605,25.188633145635173
143.0,4.298774480348734,56.32292285877264,0.48724525705413413,24.9500747909265
144.0,4.125002321836555,54.59184386017002,0.47933052001561105,24.71931492789764
145.0,3.9558350738393058,52.89864309359679,0.47141899625717953,24.495787580412202
146.0,3.7900924415747714,51.24437839760097,0.4635198737235584,24.279003280209352
147.0,3.627601281683456,49.62909233689948,0.4556419870670567,24.068537672411733
148.0,3.4684803163700475,48.052523506705484,0.4477938122263879,23.864023862404444
149.0,3.3129384585587296,46.51433097025141,0.4399835470435623,23.665138915437137
150.0,3.1612247507146662,45.01411900315232,0.4322190081704317,23.471604810574753
151.0,3.0136169031442326,43.55147920287031,0.42450775482468356,23.283173501595062
152.0,2.870434121475023,42.125979905325224,0.416857001948319,23.099629734081994
153.0,2.73204627553488,40.7371724531466,0.40927366044414404,22.920782995374918
154.0,2.598889118783354,39.384597300764376,0.40176435014977413,22.746464213200717
155.0,2.471485268555278,38.067777563056666,0.3943353750391941,22.576523597964844
156.0,2.3504711876188464,36.78622642996861,0.3869927384551828,22.410827653235486
157.0,2.236616152077396,35.539441413559246,0.37974213643828464,22.249256710019786
158.0,2.1308587402693946,34.326910504298354,0.37258896219998977,22.09170327410994
159.0,2.034332227704018,33.14810944072555,0.3655383029469591,21.938070249243975
160.0,1.9484013933581577,32.00250469662614,0.35859494165855366,21.788269621919497
161.0,1.874692193811502,30.889553886886393,0.351763358638412,21.642221203960393
162.0,1.815117953541087,29.808705922009874,0.34504773192662985,21.499851593678176
163.0,1.7719051585319,28.75940260206256,0.33845193898907755,21.361093321854813
164.0,1.7476090858065576,27.741080291129038,0.33197956143098134,21.22588406734493
165.0,1.7451168890778006,26.753170265762087,0.3256338862387904,21.094166013315693
166.0,1.7676420584677877,25.79510092130698,0.3194179121569323,20.96588527933874
167.0,1.8187035583762077,24.866299494835506,0.3133343536606911,20.840991451598796
168.0,1.9020832040624935,23.966193937818662,0.3073856470113716,20.71943715948756
169.0,2.021771909785423,23.094215933061673,0.3015739576225809,20.601177722854878
170.0,2.181895008533432,22.249804024048135,0.2959011864691238,20.486170853688055
171.0,2.386617037380346,21.432407324072436,0.2903689787216162,20.37437638695654
172.0,2.640039865601972,20.64149060226571,0.28497873284352776,20.265756059912363
173.0,2.9460784770285646,19.876539674075314,0.2797316090156064,20.160273321984324
174.0,3.3083308667405236,19.137067865988293,0.2746285397985113,20.057893164473903
175.0,3.729947385169645,18.422623754395076,0.2696702404340858,19.958581982071934
176.0,4.213486658439788,17.732799282943798,0.26485721886847424,19.862307452453205
177.0,4.760797469177088,17.067239276426488,0.2601897881239306,19.769038429828363
178.0,5.3728707976243335,16.425658632240133,0.25569208706777435,19.677114706355216
179.0,6.049738697916406,15.807836763495002,0.2513466785842867,19.58771081468445
180.0,6.79053094013461,15.21360271421613,0.24709778249519415,19.504530111121813
181.0,7.593193633051926,14.64287638253615,0.24294661281830998,19.427393378774788
182.0,8.454555661103266,14.095659875797974,0.23889469655497714,19.356101353831065
183.0,9.3703219413844,13.572037887655092,0.23494349810507806,19.290459695269018
184.0,10.335117663844882,13.072174982756732,0.23109441838360012,19.230278718651082
185.0,11.342557950036248,12.596310020310185,0.22734879365318683,19.17537318152221
186.0,12.38532807650389,12.144745367280382,0.2237078944731464,19.12556204795214
187.0,13.455334011826103,11.717835053309068,0.2201729258119482,19.080668311176648
188.0,14.543879320518059,11.315968879269677,0.21674502777612495,19.04051880031957
189.0,15.641862668228663,10.9395536676668,0.21342527674558284,19.004943994588277
190.0,16.739986772925263,10.588992349987965,0.2102146869051047,18.973777849596235
191.0,17.82898102298888,10.264661969991712,0.2071142124366012,18.946857634731376
192.0,18.899818836976127,9.966890949397545,0.2041247501516142,18.924023779596904
193.0,19.943935128110734,9.695936913838914,0.20124714285762993,18.905119729760415
194.0,20.953418353630145,9.45196569758651,0.1984821833208576,18.88999180123745
195.0,21.92116303286739,9.23503250335312,0.19583061876770289,18.87848903535671
196.0,22.840988043684305,9.045064653014487,0.19329316518788428,18.87046244655371
197.0,23.70806518016057,8.881536456937006,0.19084802585396846,18.867231157536413
198.0,24.518112955614743,8.744296725353754,0.18851763389819506,18.86723115753187
199.0,25.267090258008384,8.63362076296742,0.18634998020880233,18.86723115753187
200.0,25.952507054851264,8.549030540118538,0.1843435338160251,18.86723115753187
201.0,26.572742914085172,8.489884510992125,0.1824968243550598,18.86723115753187
202.0,27.126980487090307,8.455391297452366,0.18080844619657108,18.86723115753187
203.0,27.615151403013538,8.444589759067204,0.17927707799576895,18.86723115753187
204.0,28.037719843802932,8.45637290429179,0.17790148874834338,18.86723115753187
205.0,28.395712513108897,8.48949957917455,0.1766805390700159,18.86723115753187
206.0,28.690547803208307,8.542600243897038,0.175613201316036,18.86723115753187
207.0,28.923988494301557,8.614205098240634,0.1746985593781299,18.86723115753187
208.0,29.098072510410233,8.702766731471536,0.1739358148701841,18.86723115753187
209.0,29.215060876018306,8.806685167279309,0.1733242918983591,18.86723115753187
210.0,29.277390869664774,8.924335247744512,0.172863442279805,18.86723115753187
211.0,29.287636249590737,9.054096432645741,0.17255285093508177,18.86723115753187
212.0,29.248481339291974,9.194380166119,0.17239223593484018,18.86723115753187
213.0,29.162694375777104,9.343654035624477,0.17238144980998682,18.86723115753187
214.0,29.03309417052969,9.500463448374532,0.17252048040200185,18.86723115753187
215.0,28.86252618268371,9.66345046175146,0.17280945379489274,18.86723115753187
216.0,28.653839262561046,9.831373949968116,0.17324863212548536,18.86723115753187
217.0,28.409854270702194,10.003116743100948,0.17383841050458804,18.86723115753187
218.0,28.133405972082503,10.177635011177637,0.17457931494453297,18.86723115753187
219.0,27.827260934317827,10.353985646795007,0.1754719991145339,18.86723115753187
220.0,27.494166855298538,10.531326960844401,0.1765172443503908,18.86723115753187
221.0,27.13681804255893,10.708905404511464,0.17771594827977594,18.86723115753187
222.0,26.757825928158177,10.886045635387593,0.17906912011335774,18.86723115753187
223.0,26.359716371081056,11.062141614015243,0.18057788026547136,18.86723115753187
224.0,25.944993868576212,11.236643990654976,0.18224344636186343,18.86723115753187
225.0,25.516049783389235,11.40904787055941,0.1840671231073578,18.86723115753187
226.0,25.0752040403267,11.578890684630666,0.18605030216205393,18.86723115753187
227.0,24.62474363928529,11.745745940978074,0.18819444456746087,18.867231128104226
228.0,24.166782685951947,11.909275203909731,0.1905027483905181,18.86713674337717
229.0,23.705049485083954,12.067527757822253,0.19293165744795862,18.86947114375857
230.0,23.244060294084292,12.21838002675597,0.1954329299963096,18.87692708864558
231.0,22.78523050338329,12.362565796018416,0.1980376464319908,18.88774264321124
232.0,22.330868292805846,12.49972291074953,0.20074369356750063,18.90202402710908
233.0,21.883156588902352,12.62954385361146,0.2035488982249497,18.919875607557504
234.0,21.44407841837069,12.751774934478433,0.20645102536204787,18.941399744502096
235.0,21.015505620063955,12.866220969939254,0.20944777491346278,18.966696757797394
236.0,20.59916621642915,12.972736473902838,0.21253678693590963,18.99586502256721
237.0,20.196607513147327,13.071225378271983,0.21571564146259836,19.029000809066506
238.0,19.80924479327048,13.161644588178204,0.21898185565151468,19.066198155696195
239.0,19.438380406694655,13.24399312163251,0.22233289401678213,19.10754918833148
240.0,19.08513607933081,13.31831321491895,0.22576616741013603,19.15314369026237
241.0,18.750582990341695,13.384690602661628,0.229279030985122,19.203069283606652
242.0,18.43561349084433,13.443239076920378,0.23286880463408302,19.25741155252476
243.0,18.14107570761597,13.494115658826926,0.23653275424502251,19.31625351751438
244.0,17.86769412855027,13.537497359427343,0.24026812169752632,19.37967646803648
245.0,17.61614178861661,13.573600374853473,0.2440721047528199,19.447758830096028
246.0,17.386990603823,13.602655067662367,0.24794188839382836,19.52057749755556
247.0,17.180811250091775,13.624926430459174,0.25187462002521377,19.598206388388864
248.0,16.998008366100887,13.64068722805358,0.2558675773146798,19.68071198495192
249.0,16.836561135523418,13.652573478920727,0.26000603973710057,19.76388612397574
