Time,J,A,S,tau,r
0.0,1.0,1.0,0.6282252046436325,37.03703703703704,0.0
1.0,1.0775811888696265,0.7366921317553511,0.6265211838026112,38.01343249079989,-0.00308750602854281
2.0,1.1273957324388546,0.5441536631505423,0.6248309700991311,38.991310474584466,-0.0031127436589590374
3.0,1.1579243777510009,0.40367616646184684,0.6231546721765125,39.97051447150903,-0.0031371643960239784
4.0,1.1751386679824978,0.30135599450789785,0.6214919414012747,40.95093459470709,-0.00316077818170742
5.0,1.183227350008642,0.22691014782031663,0.6198426698600206,41.932448102898945,-0.0031835629751884656
6.0,1.1851026233992437,0.1727391924163397,0.6182064478106534,42.91496294603918,-0.003205722899448779
7.0,1.182801004780644,0.1333150147396829,0.6165830891102757,43.898370838579545,-0.00322704602387389
8.0,1.1777218053671723,0.10456251421321888,0.6149724133715071,44.882573574841174,-0.003247679422582814
9.0,1.170830265996166,0.08353192872724839,0.6133738735544874,45.86750214035313,-0.0032676055111088686
10.0,1.162785467080401,0.06807953570601019,0.6117870331777014,46.853082764067054,-0.0032868577532119978
11.0,1.1540351188814884,0.05666602997797485,0.6102113454431741,47.83925636189444,-0.003305348863557438
12.0,1.1448796391717075,0.048167664101288296,0.6086464805097823,48.825950733186396,-0.0033231640857942593
13.0,1.135517768445414,0.041785817631518986,0.6070918152245192,49.81311764972718,-0.003340268610585531
14.0,1.1260788919839624,0.03694515691422706,0.6055469059349076,50.80070133667039,-0.0033566538457344445
15.0,1.1166456408384493,0.03322785374426091,0.6040111595779953,51.78865615546422,-0.0033723845942129514
16.0,1.1072653521231268,0.030345067439069787,0.6024837790368183,52.776944818102415,-0.003387394497931463
17.0,1.0979659635040495,0.028083246440826982,0.6009648438394569,53.76549323298256,-0.0034017017641869325
18.0,1.0887586071163542,0.026291505317211812,0.5994534065198599,54.754284265428176,-0.0034152997503222467
19.0,1.0796445489853779,0.024861946697204124,0.5979489502216303,55.743279003388075,-0.0034281793529018223
20.0,1.0706173092491216,0.023717874655371375,0.5964506634271135,56.73244627417158,-0.0034403204687096407
21.0,1.0616687438512635,0.02279958976534337,0.5949585043702528,57.721732481021775,-0.003451763591076461
22.0,1.0527840108984174,0.022069186091937167,0.593471485453745,58.71111862122597,-0.0034624806063638376
23.0,1.0439475547908188,0.021498269461801608,0.5919893008235023,59.700563507280336,-0.0034724617195556716
24.0,1.0351420302778123,0.021065206816122468,0.5905109748218388,60.69005500145018,-0.003481707987575885
25.0,1.0263496428714682,0.020755487550398008,0.5890365892118298,61.67952544609209,-0.0034902115059211565
26.0,1.0175508790222256,0.0205583191985513,0.5875650082040379,62.66897859963599,-0.0034979694412726778
27.0,1.008726074696251,0.02046711023694767,0.5860961540350167,63.65835075916396,-0.003504971658691381
28.0,0.9998562569958487,0.020474575785523655,0.5846295469971958,64.64761247023654,-0.003511239290357591
29.0,0.9909191830804881,0.020579756957282393,0.5831640139842955,65.6367596161586,-0.003516757316209226
30.0,0.9818942240761825,0.020781580966287773,0.5816997222569911,66.6257211368087,-0.0035215250333198384
31.0,0.9727593881283448,0.02107958818359534,0.5802358237804379,67.61447935088749,-0.0035255487132380024
32.0,0.9634924980465791,0.021475108154045148,0.5787721089215757,68.6029785593488,-0.0035288320708330993
33.0,0.9540695078818577,0.02197266812843142,0.5773079382876939,69.591191841909,-0.0035313666633395168
34.0,0.9444666619801906,0.02257468928133989,0.5758426681367995,70.57908384885701,-0.0035331642735699094
35.0,0.934658732892345,0.0232872462639583,0.5743759883833582,71.56660070393863,-0.003534222529586666
36.0,0.9246206119827147,0.024115104777516716,0.5729077749249292,72.55367622221104,-0.003534555133488482
37.0,0.914324693746844,0.02506661424995203,0.571437317943617,73.54027615514164,-0.00353416309048129
38.0,0.9037421363698646,0.026152412976028237,0.5699642256318617,74.5263435415709,-0.0035330396780852264
39.0,0.8928448176771986,0.027378935991996117,0.5684882695155609,75.511804681727,-0.003531212030116766
40.0,0.8816011120487127,0.028760866057250728,0.5670091151649477,76.49659566785297,-0.0035286718221196342
41.0,0.869978972756817,0.03031149123426205,0.5655264930394581,77.48064235903881,-0.003525424609367884
42.0,0.8579451463768284,0.03204392853404178,0.5640401296070315,78.4638627317179,-0.003521485255801872
43.0,0.8454637914287007,0.0339799639785644,0.562549754152125,79.44617554962261,-0.003516841295330694
44.0,0.8324988898335549,0.036138316495400356,0.5610551370484445,80.42749166406432,-0.003511498711215368
45.0,0.819012923966073,0.03854285673809545,0.5595564740834021,81.40767874063212,-0.0035054524590478566
46.0,0.8049681224330045,0.04121269279724956,0.5580535180467765,82.38663739036967,-0.003498726149282329
47.0,0.7903243065822584,0.044182909801047304,0.5565463489539154,83.36423259673442,-0.0034912979757902654
48.0,0.7750423586400214,0.04748152091714879,0.5550349508706119,84.34033332786976,-0.0034831756206557536
49.0,0.7590830682841775,0.05114706679278097,0.5535196416365394,85.31476993410129,-0.0034743479380733877
50.0,0.7424084519323165,0.05521443648831848,0.5520005031001419,86.28738803605623,-0.003464822297284806
51.0,0.7249826569056825,0.05973089993004571,0.5504783284877421,87.25795646626901,-0.003454583308772977
52.0,0.7067729962284856,0.06474251842019825,0.5489531079794767,88.22631305489281,-0.0034436276758967295
53.0,0.6877523289307987,0.0703051176908426,0.5474255220120002,89.19221898083623,-0.003431940565988333
54.0,0.6679003088052339,0.07647463367903679,0.5458961177200105,90.15544190462087,-0.003419516341883034
55.0,0.6472063565693433,0.0833149398568158,0.5443656171652791,91.1157176573645,-0.0034063410694164264
56.0,0.6256726285891137,0.09089681295113193,0.5428348299022484,92.07276664789048,-0.003392399505074093
57.0,0.6033180500860175,0.09929820414133138,0.5413047696088449,93.0262776527143,-0.0033776725386792518
58.0,0.5801825596552254,0.1085997779023836,0.5397764643242389,93.97592535552184,-0.0033621431961162215
59.0,0.5563336278977278,0.11889407907872436,0.5382510498179421,94.92136255220893,-0.003345785293758684
60.0,0.5318691988047051,0.13027110631011182,0.5367297619090864,95.86222236255178,-0.0033285847397261045
61.0,0.5069271200898888,0.14283299327429547,0.5352140985397909,96.79809550914948,-0.0033105187931227226
62.0,0.48169633120735506,0.15669410828466251,0.5337055694074337,97.72855990735698,-0.0032915549882502142
63.0,0.45641683226778007,0.17195897567800497,0.532206118058878,98.65312842136308,-0.0032716798961806583
64.0,0.4314022648946553,0.1887557131837167,0.530716944004716,99.57139778188073,-0.003250860184450641
65.0,0.40704213219719687,0.2072039535121031,0.5292397926601636,100.48288899631743,-0.0032290739418659093
66.0,0.38382234909250673,0.22744680683555488,0.5277764911913582,101.38710001826269,-0.003206289020194103
67.0,0.36234172410979043,0.24963690257391719,0.5263286064798428,102.28355732240924,-0.0031824713345852914
68.0,0.34330821470057843,0.27389971990759826,0.5248978032491106,103.17176342312851,-0.0031576088617003453
69.0,0.3275905726659767,0.30041508846227216,0.523485710344546,104.05121738164337,-0.0031316619751772454
70.0,0.3161986564037911,0.32932807427977007,0.5220938344362561,104.9214290035203,-0.003104617607065135
71.0,0.310329903173046,0.360820702485924,0.5207236213758493,105.78190399777884,-0.003076451310856968
72.0,0.31139218053665807,0.395094813543831,0.5193764439654168,106.63215452918656,-0.003047137175457982
73.0,0.3210253311070793,0.43236858876549633,0.51805354694767,107.47170223726224,-0.003016652354410648
74.0,0.34114020605746154,0.4728838481299136,0.5167561057683675,108.30006624371534,-0.002984973585972424
75.0,0.3739537897433034,0.5169249198470452,0.5154849731609115,109.11681358409398,-0.0029520759182195054
76.0,0.4220261200214862,0.564809870541252,0.5142410312707761,109.92149212800479,-0.0029179372671771144
77.0,0.48832547982453267,0.6169194840370861,0.5130248740135852,110.71368761284826,-0.002882532262733589
78.0,0.576277364366184,0.6736816053329939,0.5118370194171744,111.49298948515325,-0.0028458389836891564
79.0,0.6898982598727271,0.7356789130080149,0.51067786842101,112.25899544800114,-0.002807819219529301
80.0,0.8338420835394913,0.803549957048071,0.5095476923496649,113.01131497891019,-0.0027684437365150657
81.0,1.0136448005470735,0.8782424698503832,0.5084467946179332,113.74953697558118,-0.0027276544387612772
82.0,1.235802118944489,0.9607521407594863,0.5073751645186655,114.47330299171084,-0.002685410901420686
83.0,1.5081887357128692,1.052634908997974,0.5063329294248871,115.18221500780383,-0.002641629159894609
84.0,1.8404665586621332,1.1558829494666902,0.5053200565106087,115.87589516492594,-0.002596211319306921
85.0,2.2447865639006475,1.2735440312285573,0.504336496009384,116.55395812859307,-0.0025490037991991793
86.0,2.737235971495193,1.4104344611464676,0.5033822202490622,117.21600457892865,-0.002499762695258934
87.0,3.3411070551050286,1.5763904329903844,0.5024571695606725,117.86163204030451,-0.0024479674180330957
88.0,4.09686710553323,1.795984519832601,0.5015613203752749,118.4904218627384,-0.002392339844830751
89.0,5.050774417552671,2.052625399987331,0.5006946524992142,119.10194555068833,-0.002334437319910232
90.0,6.205215326503365,2.3169028108562673,0.4998571692020227,119.69575943511032,-0.002276416069690112
91.0,7.576319197861528,2.5888710130944372,0.49904895648412867,120.27139880366283,-0.002218244943347147
92.0,9.180885214028526,2.8685805357644387,0.4982700779747905,120.82839191710156,-0.002159893493418403
93.0,11.03635704477758,3.156094115463997,0.49752070154739864,121.36623811763282,-0.002101330157387033
94.0,13.16079420993763,3.451471026065862,0.4968009837247011,121.8844286799964,-0.002042523973135381
95.0,15.572824418893804,3.7547674838890464,0.49611107859456305,122.38244611010862,-0.001983444477448228
96.0,18.29160711710841,4.066046005879801,0.4954511820640272,122.85975109606984,-0.0019240606576229093
97.0,21.336766285747746,4.385363027307961,0.4948214750830105,123.31579924957377,-0.001864342248858436
98.0,24.728317047144095,4.712747965943987,0.4942219241992962,123.75006954507046,-0.0018042618626639508
99.0,28.486585230829697,5.048236332184759,0.4936525638552214,124.16201943708667,-0.001743791440753081
100.0,32.63210745248989,5.391828054904388,0.49311313298650294,124.55114168437092,-0.0016829065257447729
101.0,37.185529984622754,5.743501318393293,0.49260318782472945,124.91694561163825,-0.0016215847036868312
102.0,42.16742209621164,6.103193933512459,0.4921219919567387,125.25898391668892,-0.0015598074516561726
103.0,47.598186902896096,6.470798760483645,0.4916684057299341,125.57685859756111,-0.0014975604100868276
104.0,53.49780798061184,6.846168833742317,0.49124099271753235,125.87021563024068,-0.0014348328185787805
105.0,59.88583092897502,7.2290905959919955,0.4908376802449008,126.13878051006974,-0.0013716199124190528
106.0,66.78087991706799,7.619290976423573,0.49045598526351714,126.38235314054711,-0.0013079223151423822
107.0,74.20066593517336,8.016435569493602,0.49009283009384785,126.60080812191617,-0.0012437458973022803
108.0,82.16165322850819,8.420123769551026,0.4897445854822693,126.79410391747962,-0.001179102232116097
109.0,90.67867226873209,8.829903677182784,0.489407231570556,126.96226528264292,-0.0011140072269942166
110.0,99.76517285628606,9.2452664709048,0.48907611824288627,127.10538580846801,-0.0010484812186021038
111.0,109.43241165591354,9.665651950702085,0.4887461897139226,127.22362763501006,-0.0009825488360471182
112.0,119.6893778382368,10.090468846326342,0.4884121748128434,127.31719347300408,-0.0009162370578959984
113.0,130.54249879671545,10.51909354041514,0.4880684719156472,127.38632852664425,-0.000849575346674707
114.0,141.99623909721112,10.950893011260176,0.4877092775857476,127.43128214791828,-0.0007825931697341235
115.0,154.05164903227333,11.385212391508526,0.4873286770502442,127.45233811935742,-0.0007153219837016956
116.0,166.70725271090961,11.821411357639949,0.48692080794554354,127.449754433474,-0.0006477914367056263
117.0,179.95883116081768,12.2588537900042,0.48647975541145616,127.42377772274425,-0.0005800304250788781
118.0,193.79842518410172,12.696913494646635,0.485999851763508,127.374647652577,-0.0005120673960510923
119.0,208.21549163506415,13.134969386780078,0.4854754105021886,127.30259107141812,-0.0004439301168165963
120.0,223.19624948609663,13.572434136539968,0.4849009370566798,127.20778411499643,-0.00037564342434518214
121.0,238.7234834448275,14.008726172590944,0.484271162603223,127.09040041786793,-0.0003072322651562191
122.0,254.77737780907745,14.443291800505357,0.48358094233993,126.95056667768213,-0.00023871911719898942
123.0,271.3347543690905,14.8755883831393,0.48282530570672233,126.7883971830734,-0.00017012613717143493
124.0,288.36969052095645,15.30509342928372,0.48199945197078287,126.60397450046752,-0.00010147409768842913
125.0,305.8533565650797,15.731297423533992,0.4810987518739573,126.39736358436912,-3.278327878326011e-05
126.0,323.75412828255753,16.153700751298327,0.48011873624866647,126.16861701513848,3.5926181277044626e-05
127.0,342.3324051077056,16.0873896951216,0.5582761768644463,68.52939421525234,0.0004370821322212762
128.0,360.57204586890987,16.03430475396235,0.5773206641161835,56.447205945229996,0.0006064895903264881
129.0,378.449618366173,16.317169818848978,0.585689747368083,50.51621389848774,0.0007285329849969534
130.0,396.2923022811089,17.00663159898884,0.5903251281055906,46.55374123753192,0.000835021653881563
131.0,414.443856584102,18.26723087620206,0.5930196363065289,43.56549967190698,0.00093433045892609
132.0,433.319854282245,20.45208018682307,0.5940711269985269,41.36457041979057,0.0010277157602177536
133.0,453.6346022032228,23.72530692876165,0.5947288738725967,39.34291464815769,0.0011209137586722802
134.0,475.93363372530956,28.02076175439064,0.5949580227772885,37.49234222023544,0.0012133808766017242
135.0,500.3728857909693,33.18320405085853,0.5944665124611795,35.94614971413482,0.0013036218281742495
136.0,526.6987396767613,39.100372635098005,0.5933596199732863,34.6080762871247,0.001391608700304116
137.0,554.1429508592773,45.765671490555206,0.5917790896642765,33.5084494662631,0.0014786516393095063
138.0,581.7599581099811,53.14744745263566,0.5899095668445336,32.483343949858,0.0015648788678851145
139.0,608.5157384739878,61.1738110868562,0.5877317115629872,31.524126080975222,0.0016500947583737596
140.0,633.3430193672881,69.78895667849731,0.585265127885226,30.62879915194987,0.0017343612901579597
141.0,655.1864337000243,79.00098213358399,0.5826600299839576,29.839745183329583,0.0018186837764140782
142.0,673.2250129825196,88.7321328594754,0.5798477475567267,29.254485709307332,0.0019032994031449586
143.0,686.8656605240852,98.87342829447633,0.5767842633930251,28.51226148170947,0.0019858735231700255
144.0,695.5871594628118,109.45292657506505,0.5736102563409967,27.840953476809357,0.0020683871177606793
145.0,699.1199582150462,120.47751512423183,0.5705773843307262,27.35731557083832,0.002152427194056044
146.0,697.5806852264224,131.76009496131587,0.566958476289982,26.704015438547017,0.002233566471750264
147.0,691.0208649598692,143.36121147259036,0.5639144357851507,26.295396386141856,0.002317349190964323
148.0,679.7869099129649,155.18112348845472,0.5600847036737484,25.696855752155344,0.002397919293802517
149.0,664.3962945464931,167.05630775345813,0.5569805495840935,25.33155924457383,0.0024805571739693827
150.0,645.0555186892548,179.19642081614802,0.5530294614138844,24.790385918979755,0.002560569689774953
151.0,622.6348520498686,191.17519053331327,0.5497415493325065,24.44062608986238,0.002641754149648611
152.0,597.8918208746468,202.75450893831766,0.5460338693937474,24.030242945540884,0.0027217986001631775
153.0,571.271227196172,213.9777636687534,0.5421437791403029,23.60760331956396,0.0028009512390513697
154.0,543.0701882171209,224.95638237299633,0.5389105921613074,23.323989072776264,0.002879264624669005
155.0,511.65065661034924,237.57928500887033,0.534791989507074,22.907016794911968,0.0029567125446946186
156.0,476.92925158287824,252.06832857823568,0.5309898536610701,22.580871041647008,0.0030337514852214515
157.0,439.4727801102402,268.04782085042274,0.5276837188769324,22.335776880860827,0.0031086551872330876
158.0,397.6413349336266,287.3690252054357,0.5235718044758838,21.99490915780358,0.0031835718024192904
159.0,353.6988348322052,308.0235206226444,0.5194281390373039,21.671802968921842,0.00325748099529446
160.0,311.4380824250065,326.58093384592223,0.5160184419047281,21.458442253868593,0.0033286545938096546
161.0,269.9697477873189,344.239120717584,0.5123729786833582,21.237680635147804,0.0033991790781135087
162.0,227.92593581155003,362.5796765134781,0.5080083048792441,20.9313090706311,0.003469408601739669
163.0,190.282724876015,376.8004368711627,0.5038357101689592,20.679758073882503,0.003538352456434716
164.0,158.463036859669,385.6454848408659,0.5002823578437396,20.50305006462559,0.0036040674254848256
165.0,130.61210025902844,391.07628344023084,0.49674603726958105,20.336293432204396,0.003668183191773843
166.0,105.6309780207316,394.2571115980629,0.49265093032988566,20.136881035926073,0.0037325500605980416
167.0,82.81954342920706,395.92867410173733,0.48818321053673236,19.894892953709515,0.0037959134568055298
168.0,65.2900948780728,393.0214756543318,0.48395200537298394,19.70722464736279,0.003857546854785817
169.0,51.75999532222036,386.8618492169346,0.4801822416059246,19.56796014371973,0.003916162376282442
170.0,40.89014015263252,378.8185319245738,0.4766638858325688,19.444121369146632,0.003972560212809886
171.0,32.22930516290173,369.36640162289046,0.4729585310811932,19.321765693574623,0.004027937150731597
172.0,25.295223030044838,359.01065811300424,0.4688814286372524,19.187273235372658,0.004082933584719093
173.0,19.606466154370363,348.2573147701759,0.4645363214369917,19.030991583073206,0.004137122554650023
174.0,15.429886820577018,336.86941494508136,0.46015327027286584,18.877525682355458,0.004189846590441711
175.0,13.092387947560448,324.56140295651585,0.455937399931404,18.755807476137115,0.004240709384876489
176.0,12.182704066196145,311.7957970084158,0.4519690112342163,18.659775455936956,0.0042893034749171945
177.0,12.473743925218063,298.8599497354212,0.4482537690360839,18.577101450590362,0.0043358500961108585
178.0,13.837429397740616,285.9510598160811,0.4447173884284466,18.501232167935843,0.004380751943624288
179.0,16.208590542002835,273.2103833285267,0.4412147311259146,18.429980386228,0.0044242976797156846
180.0,19.548298467119196,260.7566218103005,0.4376263929501509,18.36249018951643,0.004466675084123168
181.0,23.857579489804863,248.67037051871063,0.43391812928805984,18.29744352574303,0.004507997150594715
182.0,29.165541290376613,237.002479281101,0.43011683742029755,18.233222691640115,0.004548310548216965
183.0,35.513562887743,225.78679751687855,0.42626711100111875,18.16876836964723,0.004587586726824269
184.0,42.955280584394814,215.03767302738777,0.42241154017997473,18.10433911710923,0.0046257466365643065
185.0,51.54746844712188,204.75612303322293,0.41858654510818455,18.041687862206338,0.004662714672273052
186.0,61.339625679670505,194.93725700324327,0.41482152315997445,17.98330830339294,0.00469845363345832
187.0,72.36308045949869,185.57802868474306,0.4111377666227374,17.93113954068663,0.004732958115689077
188.0,84.63185488936122,176.6737455499229,0.407549004446504,17.88584362579119,0.004766238487333087
189.0,98.13693878233356,168.22143891255052,0.40406327483400717,17.847068189649406,0.004798318620617755
190.0,112.84466438704527,160.21964514828852,0.4006852474336478,17.81397682945257,0.004829237982544807
191.0,128.69487901565546,152.66867730896254,0.39741793376926027,17.78565099653427,0.004859047349102104
192.0,145.59961938992788,145.57239301348073,0.3942628596184689,17.761302912272132,0.004887801430702393
193.0,163.44165183077746,138.93823690152462,0.39122155699849526,17.740270164008376,0.004915556503086977
194.0,182.07532482100189,132.77788977097532,0.3882952212931566,17.722041099386562,0.004942365786130961
