Time,J,A,S,tau,r
0.0,1.0,1.0,0.6510406561416919,27.027027027027028,0.0
1.0,1.0131678513428761,0.6748592018114858,0.6499240571270364,27.95629335268259,-0.004000242876638948
2.0,1.01073238056357,0.45766740618586904,0.6488063121692412,28.887936577037777,-0.004056212719466017
3.0,1.0003874862526374,0.31231178595320797,0.6476886160144444,29.821690845884998,-0.00411351863174998
4.0,0.9870042373071231,0.21424071367513978,0.6465712454301542,30.757407773250456,-0.0041739190291944185
5.0,0.9738110107430282,0.14697689092216432,0.6454547831610655,31.694902301688558,-0.004238727471105484
6.0,0.9635346839059762,0.09894544324499094,0.644339040246235,32.63411528855266,-0.004312300666226454
7.0,0.96096308787366,0.06001313031852911,0.6432253293732445,33.574761402282526,-0.004410543375014271
8.0,0.9584193138015121,0.036399629539389765,0.6421128064640864,34.51685626798968,-0.004484225453137486
9.0,0.955901336831291,0.022077375583217474,0.6410018544888002,35.46024172135616,-0.00454153373612221
10.0,0.9534076493168291,0.013390528010456494,0.639892776387331,36.40479925985362,-0.004587380362509987
11.0,0.95093630765717,0.008121718176377269,0.6387856401503869,37.35040354403531,-0.00462489123864544
12.0,0.9484854933020566,0.004926045800698711,0.6376805770138119,38.29692989010668,-0.0046561503020916516
13.0,0.9460536623420379,0.0029877818877426243,0.6365775506909797,39.24428702284743,-0.00468260027885383
14.0,0.9436394459427208,0.0018121701140914681,0.6354766696320895,40.19238000831699,-0.0047052716875071315
15.0,0.9412409675533656,0.0010991307312510816,0.6343780881301231,41.141074530163316,-0.004724920241673324
16.0,0.9388568589326843,0.0006666528348636507,0.6332816135642624,42.09030332946878,-0.004742112726568741
17.0,0.9364855535453431,0.00040434313616372606,0.6321872575860337,43.03996474249445,-0.004757282566182343
18.0,0.9341255480840228,0.0002452451304019717,0.6310950113462883,43.98996235196083,-0.0047707668680611005
19.0,0.9317753674405868,0.0001487478426885172,0.6300048458427141,44.940202656383626,-0.004782831769742093
20.0,0.9294337857805517,9.021956770082402e-05,0.6289164436427563,45.89063691256284,-0.004793690181254988
21.0,0.9270991985729898,5.472057937165515e-05,0.6278299265280786,46.84114608788855,-0.004803514458338084
22.0,0.9247697960241377,3.318949087254994e-05,0.6267456324205127,47.7915742735729,-0.004812445619322718
23.0,0.9224449554851717,2.013029880586379e-05,0.6256629231256007,48.74194333405697,-0.004820600157613037
24.0,0.9201226306353674,1.2209544017932171e-05,0.624581522539427,49.692141178269786,-0.004828075151045825
25.0,0.9178016329464089,7.405397103659521e-06,0.6235016940763619,50.642058938563885,-0.004834952145003992
26.0,0.9154806595854603,4.4915549675059185e-06,0.6224239206022489,51.59155668411241,-0.004841300139426916
27.0,0.9131583711013151,2.7242310170505144e-06,0.6213471845474893,52.54064255502498,-0.004847177912040733
28.0,0.910834031412547,1.6522904784851811e-06,0.6202726909639071,53.48914058413957,-0.004852635843753563
29.0,0.9085048291031503,1.0021501752559546e-06,0.6191993636826335,54.43696202377098,-0.0048577173663827515
30.0,0.9061711106095185,6.078203509264561e-07,0.6181282087656333,55.38402340038448,-0.004862460120836659
31.0,0.9038299119344174,3.686563000736633e-07,0.6170578758983265,56.330251359291665,-0.0048668968911322495
32.0,0.9014813788939214,2.2359606347084577e-07,0.615990222795662,57.27545974078846,-0.004871056363284365
33.0,0.8991225242178041,1.3561588703994928e-07,0.6149238923749011,58.21957174289926,-0.004874963746215141
34.0,0.8967537036485892,8.225327216922519e-08,0.6138601275896243,59.16247642774702,-0.004878641283091165
35.0,0.8943718090980401,4.9888408012736895e-08,0.6127978748174884,60.10405510348449,-0.004882108675002844
36.0,0.8880502851760205,0.0030894417286848933,0.6117375241182663,61.04428985372917,-0.004881701501824814
37.0,0.874008590602671,0.011288516934404337,0.6106805360882669,61.9828309532472,-0.004874246670839436
38.0,0.855443104963164,0.020437166655431677,0.6096268524090818,62.91957543301472,-0.004863029531503182
39.0,0.8332190435404908,0.02974434035038923,0.6085755312969283,63.854554960555674,-0.004849021191955329
40.0,0.8077697236363753,0.039022305785446104,0.6075282701163919,64.78741119166313,-0.004832754082691227
41.0,0.7793543836673621,0.048276613592633036,0.6064843870169159,65.71816431204891,-0.004814573903270599
42.0,0.748141631350281,0.0575779804595613,0.6054448305975768,66.64655413781863,-0.0047947247952809455
43.0,0.7142508752187963,0.06701576155916504,0.6044101383010827,67.57239736458926,-0.004773387771667989
44.0,0.6777723225093649,0.07668156320923136,0.6033807505790244,68.49550903596213,-0.004750700539604285
45.0,0.6387804777182735,0.08666304468232021,0.6023578940160311,69.41562554311925,-0.004726769936981563
46.0,0.5973437967103912,0.09704201025953936,0.6013412737680041,70.33267019747626,-0.004701680187045699
47.0,0.5535366027491977,0.10788582163707594,0.6003322091444313,71.24633954077343,-0.004675504445612215
48.0,0.5074147278414358,0.11929607748178599,0.5993316520835582,72.15639877149444,-0.0046482787826063274
49.0,0.4590692923210804,0.13132937202425668,0.5983402949564195,73.06261299058127,-0.004620051105234493
50.0,0.4085971329745346,0.14405863986629452,0.597358849549134,73.96476880435503,-0.004590852011158498
51.0,0.3561089445790387,0.1575671197132251,0.5963885149576023,74.86260735797183,-0.004560697730198008
52.0,0.3017556602550441,0.17190821229592682,0.5954305471942587,75.75579554987948,-0.00452961534923951
53.0,0.2456963324820487,0.18718089303113533,0.5944858268079276,76.64406651946767,-0.004497603208248194
54.0,0.18815390993419043,0.20342148739510552,0.5935558322631582,77.52706082137966,-0.0044646873557376366
55.0,0.12935698733180329,0.22075622354351068,0.592641498911992,78.4045400190571,-0.004430849674688179
56.0,0.06960951689861822,0.23924477459210977,0.5917444391331331,79.2761516966164,-0.004396096802635293
57.0,0.009254188379875895,0.2590038904642895,0.5908658356216601,80.1415344949598,-0.004360411777797259
58.0,-0.051283463196730585,0.28009752695913953,0.590007172367301,81.00036351998448,-0.004323795948676436
59.0,-0.11151669253860708,0.30263226759908324,0.5891701337556555,81.8522353666862,-0.004286235142588372
60.0,-0.17086956765103203,0.3266971152507556,0.5883557200493005,82.6968246394433,-0.004247720803636211
61.0,-0.2286768489833668,0.35242341741581795,0.5875660781691753,83.53367449105967,-0.0042082300431073826
62.0,-0.2841575137773356,0.37989825394705645,0.5868016998224419,84.36250038841425,-0.004167755015971791
63.0,-0.3364156067156454,0.40924676775768426,0.5860646764794795,85.18283879348222,-0.004126276714512334
64.0,-0.3844188817181992,0.4405702448875996,0.5853563797910781,85.99430252759413,-0.004083784097600842
65.0,-0.4269865811415181,0.474037545870191,0.5846784028254102,86.79647531915283,-0.004040249689763755
66.0,-0.46276199414499974,0.5097707795563379,0.5840321480592217,87.5889288509736,-0.003995658736584582
67.0,-0.4901971846508521,0.5479235490821232,0.5834189427764016,88.37124527900585,-0.00394998977858626
68.0,-0.507548983708009,0.5886157334233801,0.5828391597515985,89.14310268957108,-0.0039032341263324204
69.0,-0.5128274033926262,0.6320821338366601,0.5822947566706677,89.90400143062182,-0.003855359677039284
70.0,-0.503780679904816,0.6784627323559884,0.5817869045909344,90.65350977043107,-0.003806354791425999
71.0,-0.4778738187312751,0.7279687714886757,0.5813158739866184,91.3912874503818,-0.003756198873729061
72.0,-0.4322429726686789,0.7808406913373096,0.5808836704712464,92.11680136824286,-0.003704869732590942
73.0,-0.3636771827569159,0.8372674195869034,0.5804900172748837,92.82974563196005,-0.003652356426975371
74.0,-0.26855985681661043,0.8975664502138057,0.5801355580609923,93.52971121810593,-0.0035986333438749567
75.0,-0.14282202606034844,0.9620256862817362,0.5798207184233298,94.21629753348283,-0.003543682529695893
76.0,0.018114558010994302,1.0309914574328316,0.5795452044662015,94.88918244911719,-0.0034874825296088087
77.0,0.21938844062135288,1.1048371711788183,0.5793092935217966,95.54795623240669,-0.003430014188869981
78.0,0.46678600305846635,1.184007710054546,0.5791138612263058,96.19212166059533,-0.003371254600231518
79.0,0.7668878199219941,1.2691104485207283,0.5789568644375414,96.8215253452941,-0.0033111683099260034
80.0,1.127024737576342,1.3606092371782001,0.5788385349020554,97.43571929797007,-0.003249743561736236
81.0,1.5555755767990316,1.4592961305672536,0.5787592463407231,98.03422434642059,-0.0031869420671307015
82.0,2.0620156151949827,1.5659745918681736,0.5787168395990723,98.61685373573272,-0.0031227339924659522
83.0,2.6572688088921654,1.681719703153583,0.5787105847303958,99.18322983526001,-0.0030570738051987107
84.0,3.3538716816328873,1.8077858535432987,0.5787389999552144,99.73304877517711,-0.0029899138182179976
85.0,4.16635407688398,1.9457189704641014,0.5788001001625614,100.26605114251545,-0.0029211978719076337
86.0,5.111644388859652,2.0974142661765316,0.5788926717232443,100.7818611773933,-0.002850861870694313
87.0,6.209945307215873,2.265473013733451,0.5790138370873441,101.28029417722786,-0.002778813680220788
88.0,7.485500063688649,2.4532989688983804,0.5791620724934483,101.76097382026963,-0.002704940477310768
89.0,8.968220843972786,2.665645399040046,0.5793344645686357,102.22367365873004,-0.002629088373094082
90.0,10.696328872566738,2.9096796300831507,0.5795279023888171,102.66817163519582,-0.0025510283636307274
91.0,12.720478000019574,3.1966170945474954,0.5797392001925374,103.09423018127666,-0.0024704210637379893
92.0,15.116219920972185,3.5501014281172325,0.5799645406901285,103.50166439756524,-0.0023865366988621538
93.0,18.01975811203643,4.029862934274103,0.5801998821738875,103.89029790139406,-0.002297605247839038
94.0,21.582393414409125,4.591454189011572,0.5804407306409609,104.25998042700694,-0.0022056677654048577
95.0,25.785825200021225,5.160908026775178,0.5806820974848267,104.61059653377231,-0.0021135744584897176
96.0,30.657631848242833,5.73794720522437,0.5809185972779137,104.94205465382339,-0.002021319125149006
97.0,36.22391214136039,6.322254629981025,0.5811443495768364,105.25429223115076,-0.001928899650605943
98.0,42.508958717194425,6.9134587967322,0.5813528978571991,105.54728977447581,-0.0018363194336790411
99.0,49.53485975839193,7.511145565737869,0.5815373593414414,105.82105930868438,-0.0017435860591327266
100.0,57.32127187118406,8.114842607398181,0.5816901257207755,106.07565852280133,-0.0016507127346531473
101.0,65.88494653275758,8.724029468152326,0.5818031258825695,106.31118122274285,-0.0015577172046644723
102.0,75.23951706380221,9.33814084006288,0.5818677864194243,106.52775335855792,-0.0014646213071033399
103.0,85.39502960679376,9.956561687743177,0.5818750481980016,106.7255377640974,-0.001371451420790717
104.0,96.35788014950357,10.578624284361936,0.5818152144973424,106.90473630857069,-0.001278238641954613
105.0,108.13021844542858,11.203611296452664,0.581678157719517,107.06558753585111,-0.0011850185177321156
106.0,120.70989030957665,11.830762543215858,0.5814532862901969,107.20835929816194,-0.0010918302812980229
107.0,134.0901433289779,12.459283689757507,0.5811297876481532,107.33334093815841,-0.0009987160690275313
108.0,148.60106837378646,12.586430835756302,0.5894315394373936,99.3581288069568,-0.0008708904831109565
109.0,163.37831176889136,12.305163075226124,0.6073892088748035,82.44807295274218,-0.0007038677908658333
110.0,177.87046015317958,12.033671562638434,0.6235139977554788,67.60714779447731,-0.0005418863272755609
111.0,192.02499963318732,11.844059579779792,0.6331581757682008,58.46548027073682,-0.00040428292759950134
112.0,205.90277819047446,11.77739867491704,0.6387102340125757,52.38656193906518,-0.00028324592209106654
113.0,219.6339614730924,11.839996160097266,0.642290910543578,47.628814256540174,-0.00016987087073818972
114.0,233.3456300040944,12.061486874710573,0.6432631614159201,44.47843290024345,-6.738244861848807e-05
115.0,247.21514726658447,12.444025332362553,0.6436114956465357,41.62574689551663,3.34376607114512e-05
116.0,261.4077398238634,13.01560289785439,0.6425447098048349,39.530502506504725,0.00012878044684145045
117.0,276.1245862874108,13.78954620841297,0.6410247123037912,37.602364908440265,0.00022317231127916618
118.0,291.5243511072231,14.830554900957962,0.6383633144254193,36.26247245606116,0.0003134356485658597
119.0,307.90653177623267,16.07266508424996,0.6359940468295381,34.61695392606644,0.0004059949960385773
120.0,325.3529719679848,17.67121115841619,0.6326503067452672,33.49299689494749,0.0004953106405089473
121.0,344.08582622866436,19.63812194409818,0.6290047645334704,32.4412265124161,0.0005841173684619197
122.0,364.2511633100616,22.052444450682138,0.6250263884349564,31.454665577189164,0.0006720712739045481
123.0,385.90527962122053,25.08129771523623,0.6206805558309993,30.5294118017612,0.0007588706337987742
124.0,408.9109858425716,29.122777557193515,0.6160175509362942,29.670528160002043,0.0008447919805568625
125.0,433.39601839803305,34.13501718426316,0.6110109277066108,29.09017446029923,0.0009305051034724254
126.0,459.0055716256403,40.11162744402091,0.6059362395136385,28.418566988336234,0.0010161297096336547
127.0,485.299177793167,46.78032556406844,0.6002522483109776,27.704683996999297,0.0010984569734609913
128.0,510.9803660494277,54.45158193451748,0.594799617968984,27.29781379444987,0.0011838644552574667
129.0,535.5303261604797,62.53721313557884,0.588488653000346,26.6641128136786,0.0012638051606003386
130.0,557.2219835165916,71.65203293641703,0.5827912825078455,26.30820415362458,0.0013483255210811529
131.0,575.9121282368691,80.92537147097387,0.5759653181384171,25.753379136015507,0.0014262549011674393
132.0,589.9944427429735,91.13314098690321,0.5698784748076839,25.429761220702833,0.0015086989930320409
133.0,599.6363447987732,101.49566652701937,0.5630499930702485,25.047455672494188,0.0015874502723947426
134.0,605.3300193354861,111.31842489813737,0.5558314596143665,24.638569490173634,0.0016641718303842562
135.0,606.9420511725107,120.88171882614083,0.5496010873046513,24.371566927543764,0.0017446502629039644
136.0,605.3368235310842,129.61647637117449,0.542213797604088,24.03783995255846,0.0018202986822545735
137.0,600.4290778293579,137.9579861286659,0.5344970971346389,23.690519110402587,0.0018940664432607979
138.0,591.8626598704407,146.54166684421705,0.5278973291219401,23.456041609360373,0.0019710863677727176
139.0,580.0930967282337,155.17319970225034,0.520843119676051,23.216030134648673,0.0020462016243741775
140.0,565.4625055955679,163.7753306459657,0.5127051757385264,22.898856956161318,0.0021163412251415303
141.0,547.4110441913183,173.13642800816547,0.5049502265389346,22.650949335766462,0.0021877831614216486
142.0,526.0736269222987,183.31807509491824,0.49821306693920997,22.45368455794665,0.0022598859129368495
143.0,501.61122552445977,194.38530507130355,0.4910824145006545,22.252763013672276,0.0023303968425757724
144.0,474.24512663508955,206.36421752215483,0.482907620933128,22.006139534677434,0.0023971638416656876
145.0,443.8809401435997,219.62082106998085,0.47466968762488104,21.76660142183028,0.0024627100619864176
146.0,410.6882311626274,234.27792644426813,0.46734569127099274,21.58246295014542,0.0025291449937431204
147.0,375.4717970992071,249.86690438488606,0.4606344004174798,21.41757231702598,0.00259385763364968
148.0,338.7048623697673,266.2849371777776,0.45339418903879636,21.244895466765822,0.0026572273113191036
149.0,301.0584545844443,283.23121108056756,0.4453081923345301,21.043266544170052,0.002717922303556165
150.0,263.76213840329086,299.8149969207561,0.43707267809560757,20.836128128409847,0.002776700336544917
151.0,228.80148837885218,314.3439843627963,0.4294813703699179,20.666509120623346,0.0028354451537630555
152.0,197.00408553269253,326.21448979413987,0.42273194303238354,20.520956016338335,0.002892228406963523
153.0,168.36082055119232,335.5836832798884,0.41618331738299086,20.381633614871646,0.0029470374758077634
154.0,142.82091373874806,342.58842850853927,0.4090966990112449,20.23365421972328,0.003000783829829708
155.0,119.80367336107288,347.85084533682186,0.40137835731860844,20.066835546932403,0.003052616219791886
156.0,99.42680900275138,351.2690129914722,0.3935102490617135,19.892881278444555,0.0031024288229728417
157.0,82.53557590036459,352.00385532562825,0.38606497537636936,19.7401818940015,0.003151307567119473
158.0,68.57664996308978,350.6081712164219,0.3793696943434524,19.60956232738023,0.0031982428805020957
159.0,56.84275957622261,347.7806217569215,0.37325412202760877,19.490936809386106,0.0032426380486611063
160.0,47.13183240735303,343.71149240948426,0.3671971581349759,19.374680157300354,0.003285335734707065
161.0,39.307425599806706,338.5262650719773,0.36075296054567796,19.252637975086024,0.0033270870008470736
162.0,33.11534461903303,332.4714498359286,0.35385212111430386,19.119272521523616,0.0033676101215090104
163.0,28.398873896484027,325.70109441331357,0.34676020703196236,18.977474835677175,0.0034063423631846357
164.0,25.368988002795778,318.0088079821704,0.339846085594046,18.842176953784584,0.003443587570250267
165.0,23.927335493835127,309.5059758907925,0.333418139840576,18.72294366319991,0.003479232269449338
166.0,23.74091081415798,300.5452482652474,0.327602098438143,18.617835092443293,0.00351260370087054
167.0,24.625536494758432,291.3357379889585,0.3222758664248624,18.521529427071908,0.003543728280577337
168.0,26.490597848810886,281.9977355160734,0.3171468634693491,18.428915732786894,0.003573169767848836
169.0,29.27248092065156,272.62649562174823,0.31191910981649146,18.335681199507995,0.0036014902614868094
170.0,32.90125517982956,263.3229789834648,0.3064342318635267,18.23835028390918,0.0036289773644081038
171.0,37.31149142622862,254.18019951537562,0.30071425405262575,18.13504761405848,0.003655496747875009
172.0,42.46638481739463,245.25705287211676,0.2949077651275213,18.027354085671046,0.00368072983771178
173.0,48.3620119208939,236.57280822397547,0.2892025421417495,17.92125236702913,0.003704599129885613
174.0,54.99731864612967,228.13587007705618,0.2837669513759787,17.82309244846488,0.0037270959111684143
175.0,62.348810101997785,219.9683264768788,0.27871768151065845,17.73508953242145,0.003748009860525762
176.0,70.38544711094738,212.08960566883104,0.27409449237270544,17.656163731878745,0.003767184399265896
177.0,79.06998301717033,204.5153276688947,0.26985370834012634,17.584155001393437,0.0037847253704146786
178.0,88.3627216086373,197.25309643277959,0.26589062340665404,17.516947478330444,0.0038008813322568773
179.0,98.2221998877576,190.30118254985743,0.26207843872639824,17.45279320015955,0.0038159005938432143
180.0,108.60252985403494,183.65205986443564,0.2583057054942192,17.39033557216106,0.0038299807780145284
181.0,119.44288355770412,177.303240937646,0.25450138360297936,17.32857698555322,0.0038432618202848554
182.0,130.66393866145626,171.26163108373376,0.25064197043411696,17.266888869085232,0.0038558189809957534
183.0,142.17291393813647,165.5397260043963,0.24674313598597217,17.205084427573738,0.0038676577009333444
184.0,153.8677253284754,160.15203951428052,0.24284498648374025,17.1434967952067,0.003878729359172061
185.0,165.64276015633894,155.11156410607884,0.23899530617300854,17.08300547726574,0.0038889749707998397
186.0,177.39245827434385,150.4280669462415,0.23523844152888815,17.024867250037385,0.0038983611282176946
187.0,189.01338453283512,146.10739814568132,0.23160907176911347,16.97037937506129,0.003906885778501648
188.0,200.4056409771924,142.15333561146662,0.22813070135886016,16.920521867977012,0.003914560003512972
189.0,211.473467534312,138.56882514237324,0.22481625886762027,16.87578398461268,0.0039214003429219125
190.0,222.12545854489167,135.35647594021987,0.22166903883415595,16.836251743553454,0.003927430408699545
191.0,232.27941693485985,132.5174917635503,0.2186860984345907,16.801715799810417,0.003932684113252636
192.0,241.86370749936262,130.0502985454295,0.21585996096401805,16.77184008000757,0.003937206512243058
193.0,250.8191354989851,127.94987082364784,0.21318053552724298,16.746281728897173,0.003941048450482492
