Time,J,A,S,tau,r
0.0,1.0,1.0,0.893215943878429,10.309278350515463,0.0
1.0,4.144547384214895,4.86004508661697,0.8807015314951924,9.938424743408726,0.04069862881294067
2.0,15.075934120704837,8.492505148819072,0.8672687900071894,9.542435464673893,0.04077438091503854
3.0,31.89516180471953,11.911135989151608,0.8529033355666127,9.121516213665714,0.040825751791649614
4.0,53.05780618740634,15.127437511788662,0.8375946197510716,8.676014509796293,0.04085105316475456
5.0,77.30123819068325,18.150819182392713,0.8213362490938011,8.206452248089269,0.04084851334848001
6.0,103.58812163619864,20.98876521808806,0.8041264880480739,7.7135567181363,0.04081631396285607
7.0,131.06257690067577,23.64699178514459,0.7859685478408334,7.198294484068015,0.04075261093432254
8.0,157.39002276477908,27.9046152001468,0.7777926805339808,7.034656082577986,0.03867504095253036
9.0,179.0944498599109,40.543437842939035,0.7691977303732305,6.872883526546307,0.036979058296743174
10.0,200.08444638994158,57.853690507077154,0.7608271250387064,6.751743092045396,0.03542810078107754
11.0,219.83079390699453,77.14653112873935,0.7528825079097535,6.664196568608664,0.03396825793345003
12.0,236.47677060168797,97.39071548783873,0.74519536630738,6.5964432587040385,0.032636429169338704
13.0,248.89273598142546,118.07610263648118,0.7374938051856774,6.540579928096438,0.03143737778239364
14.0,256.85654765713144,138.81134288624273,0.7294771856245849,6.49347330841237,0.030355132068140632
15.0,259.34470018431057,160.55818766296215,0.7208546388167519,6.454969535600328,0.029370164060403346
16.0,254.15040085669145,185.65307727049412,0.7114487742077195,6.425857017032446,0.028464918526094042
17.0,243.21665387662065,212.43264514929774,0.7012076292312788,6.406847563792678,0.02762494284331326
18.0,229.7557210624983,238.316657596536,0.6901307511881013,6.398417684710642,0.0268389198234667
19.0,216.33032354534205,261.54787972998304,0.6782023650581278,6.400830348882315,0.02609833934885623
20.0,204.4292574920605,281.3733848828702,0.6653427446890553,6.414389080467262,0.025396845145111722
21.0,194.70771336443113,297.7051230521395,0.6513425209236178,6.440258916164639,0.024729383725471357
22.0,187.4587374440155,310.656099297812,0.6357913196638021,6.4815962858375284,0.024091526324297417
23.0,182.95552427532826,320.2324818662593,0.6184700602089495,6.5409056565878245,0.02347925523152736
24.0,180.89567397452925,326.90770081546265,0.6005865299514453,6.609852988997431,0.022889228431843073
25.0,180.51501011225878,331.5164421613367,0.5834703997109099,6.679821384222465,0.02231798555521501
26.0,180.85273912098282,335.0108468853722,0.5671527062652661,6.755944002748752,0.021760195446215106
27.0,180.86664417241235,338.37620912743154,0.5514650084233466,6.846780629208911,0.02120791664972366
28.0,180.44468000945446,341.63693380462195,0.5362427377426989,6.955497494927567,0.020657593321295468
29.0,179.96810879332818,344.28907580129686,0.5211497802682248,7.071210037357617,0.02012382888317099
30.0,179.77074988267245,345.9764585001326,0.5057607365464781,7.1750744384139065,0.019627251648628774
31.0,180.43755663737167,346.2370693015042,0.4897125116840559,7.262034582209583,0.019167999341585397
32.0,182.12244663255936,345.053327049057,0.4721249940222892,7.348442716480659,0.018732678125692664
33.0,185.920047013233,341.4039829907311,0.4433822321612288,7.5478160711071265,0.018310098456746613
34.0,188.4645976119458,338.6434893787058,0.42029914246197586,7.701094999565368,0.017898391521051833
35.0,189.08748663175402,337.40625474520675,0.40369296654053316,7.798496958550073,0.017494491551356874
36.0,188.5467950518026,336.81623233245284,0.3884760985851734,7.903734432707963,0.01709431118787769
37.0,187.39651467597096,336.13368522613035,0.3739620879487686,8.017169681765218,0.016701041585418696
38.0,186.12356804590755,334.67671545093845,0.3597028739304809,8.123111088487766,0.016325554763389743
39.0,185.32888641466914,332.2056417351178,0.3453462549601703,8.212865848383613,0.015971785790260984
40.0,185.28935907912756,328.6238507272246,0.33014805375488365,8.301576459842012,0.015634180934914362
41.0,187.6803937798324,322.3273031125355,0.2965682000491512,8.641659308648725,0.015305849496397532
42.0,187.4880214116689,318.31408634514565,0.28025661447173106,8.769242082286837,0.014987164505929598
43.0,186.13605406488483,315.1154521260398,0.26723768954204064,8.863362095924913,0.014675268166650577
44.0,184.16414591152088,312.0744999989839,0.2551614380940993,8.96371566893787,0.014369738536270415
45.0,181.90149076528678,308.56342763472605,0.24363865330558138,9.064214261924095,0.014073673527631402
46.0,179.7569146503683,304.40897789417784,0.2323945767647017,9.154861833421737,0.013790377400376868
47.0,178.0032137654933,299.552734047398,0.22107098611832363,9.239731650778129,0.013518953053591737
48.0,177.88155574813476,292.82692043480506,0.19284613628698133,9.638937240544593,0.013255828621504399
49.0,176.19993259747912,287.42197359209354,0.17988821806966507,9.794887956312463,0.013000831080617085
50.0,173.62033027474345,282.6504400282637,0.17048970465621188,9.88702365814866,0.012752411760645654
51.0,170.63105382252883,277.9506032043859,0.16185795654698126,9.982188322991046,0.012510417263721228
52.0,167.46131723404892,272.86288727142914,0.15371029985419976,10.075799454147047,0.012276139509228593
53.0,164.3573669400097,267.4358567043947,0.14584361924828024,10.162051359609638,0.012050607833025577
54.0,161.4549948565319,261.64590690294267,0.13762956465532067,10.262912434559151,0.011832980328006086
55.0,159.40009585705874,254.8885364277052,0.11501857653615118,10.774742673197979,0.011621555623179545
56.0,156.0119851095397,249.3512517532264,0.10845767571432681,10.871043005963523,0.011416545978054068
57.0,152.39101103328426,243.91458811449243,0.10265655641155937,10.961642717617618,0.011217106603593
58.0,148.6555663531619,238.33584855977784,0.09728671676802263,11.051550432830759,0.011023580649341037
59.0,144.95785928127273,232.60702986076691,0.0921946470892823,11.136442478996756,0.010836426265191053
60.0,141.37881581258043,226.75949140188092,0.08701262923326179,11.23414350288312,0.010655325096743143
61.0,138.32876108618711,220.42498046906562,0.07094544267573274,11.793804909032898,0.010479376176942702
62.0,134.59633714110956,214.83258995898538,0.06694871203586476,11.887319809423985,0.010308662264496452
63.0,130.83594181956855,209.33095830585904,0.063458108797815,11.971841777272196,0.010142675100970907
64.0,127.11191163773135,203.78338293680034,0.060262819192549694,12.053873261425244,0.009981464519192094
65.0,123.48733680378696,198.24339014452673,0.057264067144461056,12.132324782847869,0.00982511207617449
66.0,120.01194021807083,192.71386480459475,0.05416180985975943,12.232587328431697,0.009673373434918031
67.0,116.87781361762362,187.02705322205256,0.04344512671665909,12.815773723674763,0.009525800400450085
68.0,113.49472058077757,181.78455541104825,0.041251353603952094,12.898755680857695,0.009382419232097676
69.0,110.2099790369738,176.64516160807742,0.03935518111394286,12.97119779317269,0.00924292119378665
70.0,107.04480220856976,171.55285365866266,0.037647986877303835,13.039653552841024,0.009107229530326397
71.0,104.01955760305837,166.5392823017904,0.036081820644291204,13.104436949973593,0.008975289598068698
72.0,101.14626410119959,161.62061126604814,0.034586061443730595,13.173435790529222,0.008846959138338321
73.0,98.56258870914822,156.66728436249076,0.027638135598619565,13.744428167320347,0.008721983589007654
74.0,95.9713607635515,151.98110298442802,0.026301000807031485,13.852048872162724,0.008600364839900027
75.0,93.49776796103403,147.43753443067416,0.025367002549802113,13.909050071836328,0.008481897051377026
76.0,91.17224052636534,143.00662759178186,0.02457412522543439,13.957378371321155,0.008366464855935984
77.0,88.99666408187913,138.68308972112646,0.023891018219864356,14.000217679489971,0.00825397298825244
78.0,86.96842342760058,134.4507367644843,0.023304430285684616,14.037910147621732,0.008144316312602944
79.0,85.0880444123063,130.332231686067,0.02280587911369231,14.070748841177824,0.008037408755183717
80.0,83.35405832704448,126.33004162057979,0.022389918144363977,14.099139284175337,0.007933150889732654
81.0,81.76461690381257,122.44392848654243,0.022052914830117003,14.123512922069436,0.007831445520165464
82.0,80.31779942281379,118.67298172275902,0.021793410823367713,14.143962518518824,0.007732200622953049
83.0,79.01116597960139,115.01640048058115,0.021613633655324458,14.159719560969153,0.007635329937546396
84.0,77.84198981693272,111.4737025796066,0.021520881308315934,14.168853355791112,0.007540752555424839
85.0,76.80715791366974,108.04466553731328,0.021524371282872247,14.169116917553598,0.007448392074045948
86.0,75.90449846024084,104.72832688043064,0.021626068553932485,14.160081804551783,0.0073581756161090256
87.0,75.13280871270713,101.52301800264978,0.0218185489928091,14.143623907882592,0.007270033499647074
88.0,74.49106226650396,98.427285294262,0.022093897090814052,14.121877025249399,0.00718389966900039
89.0,73.97777869559738,95.44040735509024,0.02244902952135553,14.095922367234998,0.007099711927877062
90.0,73.59138239144622,92.56232898010254,0.022885290046636596,14.065864560940446,0.007017411609869835
91.0,73.33070920725248,89.79334706033451,0.0234068622573152,14.031359065617242,0.00693694263633915
92.0,73.19597026805401,87.13500244000441,0.02402065541252705,13.9919383210436,0.006858251131775715
93.0,73.19044059640109,84.59682291273405,0.02473736020775693,13.947069189635487,0.006781290942908938
94.0,73.31606712165721,82.16705064388435,0.025579960872813806,13.894590174575079,0.006705999268159026
95.0,73.5717214448544,79.84818409251376,0.026646021985920455,13.818985797455682,0.006632329514380655
96.0,73.87994997112915,77.7223945285502,0.03471593625111665,13.175937179393125,0.0065603176586357245
97.0,74.38947551594714,75.64580003310975,0.036325580059460155,13.094690808741369,0.006489820575111036
98.0,75.03536055821462,73.68765315062963,0.03795852136992061,13.026702334306657,0.006420865473115819
99.0,75.82368820773097,71.86310884077453,0.03974089810154389,12.956613797595242,0.006353419457630361
100.0,76.77329436876322,70.15773205293394,0.04175722473035925,12.87911534189371,0.006287410714798911
101.0,77.83503810698559,68.62834006803044,0.052161299341727384,12.37290914818275,0.006222855818014454
102.0,79.05365351209073,67.24813076060471,0.05771120013363038,12.119868380724519,0.006159750049686595
103.0,80.483370029102,65.97390592208419,0.060839764998209554,12.037600698706465,0.0060980603518204345
104.0,82.09151300017166,64.86719075939315,0.06416640157859432,11.955770502551651,0.006037811250403382
105.0,83.92976579499499,63.897476828206635,0.06786675346091417,11.868120511524015,0.005978888013411269
106.0,85.90589325854656,63.176708053327474,0.0867695769718038,11.266339791622203,0.005921382809443895
107.0,88.18349066273618,62.57592532705084,0.09298874569095196,11.118946263768736,0.005865229719178217
108.0,90.70724453230049,62.17224946720135,0.09827188614261438,11.032781142635349,0.00581057585493666
109.0,93.49015090387219,62.00223929943073,0.10384402592937116,10.945920152259125,0.005757423173786252
110.0,96.64059467059056,61.98698105097623,0.10996185245791479,10.855292442010448,0.005705542162041796
111.0,100.05846097771376,62.270431554892845,0.13658151252587036,10.308795596559587,0.005655087233191326
112.0,103.91637105238325,62.73834484630372,0.1470508852944046,10.14069395384959,0.005606063308827327
113.0,108.1364512783841,63.50566794582337,0.15517554101721884,10.05421507003664,0.005558757852814899
114.0,112.69892018086779,64.64073524589651,0.16358284584931787,9.965715622770738,0.005513269315457356
115.0,117.78694801954168,66.03489705077527,0.1725569379707994,9.876243287045096,0.005469225880437619
116.0,123.54181659335524,67.59161808195583,0.18282638352263947,9.773480594472002,0.00542636481917051
117.0,129.60587095542354,69.7460431097681,0.22241212377422734,9.219699274579945,0.005385424140101365
118.0,136.413193283579,72.12180644811072,0.23423571623018216,9.128266999096734,0.005346158901481429
119.0,143.5297793420027,75.18192518971446,0.24576308891472415,9.041044348520806,0.005309446572459232
120.0,151.03065261788223,78.89230668156817,0.257612457840498,8.948497760661162,0.005275191907483442
121.0,159.17369293672806,83.01358208609186,0.27011902529955817,8.856399423662861,0.0052425148647670386
122.0,168.12534086638098,87.39695074628159,0.28408723601109476,8.75855586185054,0.005210994560516924
123.0,177.20889478214426,92.73925187416522,0.33134269638788433,8.282829004104643,0.005181797557609672
124.0,186.90484159698232,98.51706436021044,0.347546269336994,8.181575810956694,0.005154670533153734
125.0,196.2611730566431,105.55498297020759,0.3621941013549685,8.093798917451156,0.005131173588941525
126.0,204.95510161332697,113.95972616471634,0.37677473713797904,7.995338773871204,0.005111961267887071
127.0,213.10830262997516,123.3975097813314,0.3917021877533139,7.893205130753725,0.005095726391776866
128.0,220.9403832428435,133.40874228161059,0.4074947692938531,7.796632048121538,0.005080564157978582
129.0,228.36677980603312,143.9040776819488,0.4259569028862912,7.687750302287236,0.005066625042290463
130.0,233.8554798366008,156.1711929762776,0.4733949136531062,7.322819609343729,0.005055862690906064
131.0,238.21317068313485,169.07172291906505,0.4920459756385591,7.226900816919488,0.005047971288378281
132.0,239.95834023977386,183.71223838784678,0.5083168328765169,7.141549436092944,0.0050451696757443645
133.0,239.16436569134277,199.65904677321265,0.5239373816062165,7.0438978908089505,0.005049036438745748
134.0,236.51479367328008,216.02062085221368,0.5393387909406167,6.939823270921064,0.005058399828693374
135.0,232.24718388625925,232.4542381015524,0.5549306905035287,6.843400120778561,0.005069737002379073
136.0,226.50628891108556,248.73963690861135,0.5710359846301838,6.761040780167839,0.00508154965895294
137.0,219.55101639330923,264.53903798046537,0.5879987034208984,6.687638636764405,0.0050948425943350036
138.0,211.33077367079483,279.8160161548168,0.6069990626473207,6.607279084783567,0.00511086886498113
139.0,201.68887803103155,294.66501374509323,0.6299434357524036,6.503330969210904,0.005130316319618516
140.0,191.508238685624,308.1896406903779,0.6499897213549896,6.427868934835305,0.0051531441457625645
141.0,181.3817634459283,319.8326408941814,0.6653320762614936,6.392285550367914,0.005179304374317651
142.0,171.40204111759564,329.56667678599644,0.6785355712375118,6.376735544532765,0.005208831896374053
143.0,161.73719806799153,337.3091468302817,0.6904472844574769,6.374685765033818,0.005241672305399332
144.0,152.56749012775276,342.9821207209784,0.7012895923346267,6.384366348876398,0.005277760650072039
145.0,144.0439118555271,346.5533675446304,0.7110705420691305,6.405283599742628,0.0053170648153501
146.0,136.2876823529432,348.0331265227313,0.7197102544810482,6.437313163154265,0.00535957624818499
147.0,129.36377453804383,347.49609865799044,0.7272122851827432,6.479793491472292,0.005405271971802753
148.0,123.20686420048972,345.15174398181784,0.7339715713590129,6.529802077535433,0.005454075673652991
149.0,117.60471779901953,341.36079214142615,0.7406818699763377,6.583404500735663,0.005505786202669382
150.0,112.25190880157386,336.58189145187674,0.7476965766577972,6.641150448666788,0.005559875612263335
151.0,106.66203446960782,331.46017657137537,0.7550452628394295,6.709112696959643,0.005615020515056239
152.0,100.59475903280699,326.40167911219925,0.7627907562874964,6.796734636863328,0.005668228023796992
153.0,94.6824563107698,320.94189094785537,0.7709539913705135,6.914845788913956,0.005715583920262375
154.0,89.47682981709501,314.69115087532947,0.7792035996650404,7.060595377917097,0.005759032518245164
155.0,85.16079991023909,307.62218608950343,0.7868194587197348,7.200192890001434,0.005807677072947272
156.0,82.21306355912563,299.40598833122095,0.7931119625615893,7.315350875266351,0.005867875585098239
157.0,81.43001930752936,289.38649373230885,0.7978678099890937,7.414954708007868,0.005936802189175202
158.0,82.37126706787646,278.1390451997592,0.8015399216217769,7.510656884591841,0.006010182908712915
159.0,83.76810989054302,267.0790366562007,0.8053475445411291,7.609669139498095,0.006085018261124346
160.0,84.52470505097685,257.46604044585075,0.8102525789193424,7.725340693705683,0.006156618471207749
161.0,85.13178908513531,248.98896866430366,0.8164675199812838,7.883313181065144,0.006216653228046635
162.0,86.76561030518218,240.63679919121537,0.8232737730577063,8.087464450334663,0.006268742490999449
163.0,89.63479845470546,232.36758890751113,0.829209052813264,8.262308464932627,0.0063291980702768645
164.0,94.78711133763647,223.32156959120388,0.8334320493087081,8.393913727046254,0.006405014578036224
165.0,102.72902091800952,213.15066709117602,0.836414527249672,8.509436116444054,0.00648806222823981
166.0,111.73016686918255,203.72682443596955,0.8395218520209309,8.62928498886391,0.006571024309266473
167.0,120.59341307018389,196.40143312340686,0.843927718571318,8.78008277335662,0.0066445470790002905
168.0,130.8080041012508,189.81633247656913,0.8496339167735258,9.000169720210735,0.006703672046370295
169.0,142.86286001475455,183.50703631206687,0.8551198390734516,9.224484226635576,0.006763949958710218
170.0,156.80505068171814,177.51503992860012,0.8589467233214078,9.383290179298763,0.006839419160368978
171.0,173.5262048788814,170.9179440456227,0.8614408920397012,9.515349728443805,0.006924510274067693
172.0,191.240430573323,165.3773641464847,0.864132013524873,9.654272446470124,0.007007460218264523
173.0,208.7752270341454,162.0083849394214,0.86825889728048,9.843444937681124,0.007075681726579398
174.0,228.86585523810513,157.89676328034847,0.8733392588466171,10.113151013367178,0.0071353886658361175
175.0,248.65743580575344,155.6113424705385,0.877387608819926,10.324356010285891,0.007201126570305574
176.0,269.597389697039,153.5473612908381,0.8797631728976791,10.478138703532615,0.007281019815413777
177.0,290.5729076578308,152.44351790820758,0.8818538937992764,10.628526703859691,0.0073614404816682135
178.0,310.57404983676963,153.20565086407865,0.8852560756230483,10.830871192701483,0.007427127768977243
179.0,334.3310937785405,150.74971290179394,0.8896843037201649,11.130621023068374,0.007485896259990926
180.0,354.0744853182292,152.45321926824056,0.8929953528079203,11.354541399680876,0.007548502493315275
181.0,373.227094438229,154.9258442916884,0.8947791573327794,11.51995662664164,0.007623004500810105
182.0,390.9387385931775,158.73888828127588,0.8968121624002448,11.697941702542836,0.007692286951121476
183.0,410.92240181171513,160.27132214973952,0.9003592046447992,11.978909896344442,0.007747693012615656
184.0,431.53778584161125,160.36602161098037,0.9038791216315494,12.281409776344656,0.0078025945564377305
185.0,446.1746630315232,166.05779192521905,0.9056868327995299,12.475844792397922,0.007865645742895081
186.0,459.8174206801943,172.3539903433263,0.9071720547782576,12.663271465022925,0.007928565740717127
187.0,477.01358974946487,174.8959286152361,0.9101300164778404,12.956432619461989,0.007978373768442066
188.0,496.6368873295942,173.9176423614928,0.9132256597742533,13.292276613675554,0.008027689728352824
189.0,507.8591986652926,180.96375557843004,0.9146112421032397,13.502276634768783,0.008081888496835908
190.0,518.7567929527988,188.20154385720286,0.9160199466819806,13.720460017590044,0.008132168613538276
191.0,540.6187156426735,184.23817070756976,0.9189320052623863,14.098607282647702,0.00817645902554439
192.0,554.3075751638232,187.4421298820253,0.9210124614336784,14.396529977071156,0.008217528562785993
193.0,564.1401709896139,194.68896069907262,0.9218382498998059,14.616047330142722,0.00826281317297567
194.0,580.9622628454434,195.31481447064624,0.923949560748043,14.951494424455959,0.008298981622611392
195.0,601.9925959282563,190.73516842675488,0.9262328429809675,15.342128764860238,0.008334890290653988
196.0,611.6374105098577,197.78983796874797,0.9269008407805378,15.58391864473161,0.008370680709947053
197.0,629.0763077122541,197.8071462678642,0.9286033775986906,15.929975548816193,0.008399842277007538
