Time,J,A,S,tau,r
0.0,1.0,1.0,0.49494008878236023,23.809523809523807,0.0
1.0,12.056980250722692,3.8519520346020144,0.49509922838612247,23.770614974366993,0.03006308133990053
2.0,37.247737207839094,6.515963872483268,0.49526427632442255,23.730228198229174,0.030089632072794702
3.0,73.9054212529187,9.004376211907944,0.4954352088932266,23.688372417849887,0.03011622816708882
4.0,119.82877194258162,11.328741963620464,0.4956120141830357,23.645054012998145,0.03014288833306269
5.0,173.19528769618367,13.499858856645615,0.4957946587681627,23.6002840166868,0.030169589144030347
6.0,232.4916084514066,15.52781460121635,0.4959830824189066,23.554080269089834,0.030196289442662488
7.0,296.45845766136927,17.422073464589353,0.49617727815212853,23.506447861605793,0.0302230244820211
8.0,364.0454721602024,19.19146695457175,0.49637719769954186,23.457402068615497,0.03024977473782216
9.0,434.3752309581657,20.844261249321896,0.49658280644643876,23.406955061119564,0.030276539269022924
10.0,506.7144184211314,22.388185401427272,0.4967940598353634,23.35511993514862,0.03030331458325508
11.0,580.4496790902126,23.830485647436277,0.4970109581318218,23.30189851235373,0.030330128370093638
12.0,655.0648016408813,25.17788787091122,0.4972334013056656,23.247322381127514,0.030356926555261107
13.0,730.1303901102145,26.43671967776545,0.4974613604846781,23.19139907714847,0.030383725341311025
14.0,805.2859062122142,27.612886032850696,0.49769479209829354,23.13414315275114,0.03041052161878421
15.0,880.2303309436487,28.71191159692628,0.4979336675723846,23.075564977056906,0.030437321176238964
16.0,954.712007808762,29.7389434410489,0.49817791011160717,23.015687553800845,0.030464105046936307
17.0,1028.5225001744318,30.69880464110874,0.4984274784369206,22.954523419817807,0.030490876633486597
18.0,1101.489801787673,31.59599870576077,0.4986823121932424,22.892087705296216,0.030517634052275495
19.0,1173.4709947111298,32.43472878877462,0.4989423478426268,22.828400213940736,0.030544368541114343
20.0,1244.3489051030679,33.21892349291978,0.4992075275828162,22.763479922422846,0.030571074154447674
21.0,1314.0288363891739,33.952271422323804,0.4994778508130962,22.69733050954318,0.03059776732682024
22.0,1382.4359180627857,34.63819963463845,0.49975325377138635,22.629968639783378,0.030624444094614102
23.0,1448.9039336843407,36.01415069738643,0.4999936149413441,22.570998780233413,0.030645333651726635
24.0,1510.4778361811036,43.98559814462035,0.5001003979023608,22.544551649266086,0.03065102859795805
25.0,1567.8118604723534,58.336816077818646,0.5002053015852037,22.51858940736502,0.030657408871044525
26.0,1614.1678008109282,77.52473802201669,0.5003085981263938,22.49304753312339,0.030664412263408415
27.0,1640.7005006685065,100.30773973479062,0.5004105537104139,22.467863320579912,0.030671992545578838
28.0,1642.5166237288863,125.68682357885218,0.5005114075651086,22.442980407127543,0.030680100658128876
29.0,1619.8903615848317,152.85909986244909,0.5006113478588419,22.4183543836667,0.03068868845841382
30.0,1576.5377366363095,181.18078314320778,0.5007105706527741,22.39393905864548,0.030697712587361214
31.0,1517.4300586358754,210.13689664259266,0.500809206318604,22.369702029773425,0.030707121542223596
32.0,1447.3199334596766,239.31739577094436,0.5009073677496862,22.345614842458172,0.03071686288399855
33.0,1370.0865941586565,268.3977632660168,0.5010051446189959,22.321652540907465,0.030726879873852073
34.0,1288.6234438255349,297.12280008643137,0.5011024739681554,22.297830028342133,0.03073711319576383
35.0,1204.9678406060698,325.29513418562755,0.5011994906598254,22.274109022052446,0.030747519495995305
36.0,1120.5102813417834,352.7630491479306,0.5012961295525075,22.25050307884434,0.03075804344278637
37.0,1036.1795751914499,379.41278671571496,0.5013923094011082,22.227030057528335,0.030768637345958014
38.0,952.5907242157031,405.1611182440839,0.5014879249038687,22.203710491931123,0.03077924744229925
39.0,870.1472354038624,429.95035142110106,0.5015829034517898,22.180557006591712,0.03078984294493483
40.0,789.1166134731577,453.7423861106003,0.5016770253812048,22.15762381318618,0.030800380612404428
41.0,709.6717159345774,476.5163076306605,0.5017701748245226,22.134935680032648,0.030810842882428583
42.0,631.9255948229118,498.26418735089055,0.5018621350467773,22.11254729116474,0.030821209395036842
43.0,555.949956107856,518.9881118338635,0.5019527102456557,22.09050450172005,0.03083144677674618
44.0,481.78624869321646,538.6991202111261,0.5020416983079227,22.068856389618798,0.0308415597466025
45.0,409.41029348197316,557.4619766453332,0.5021289152353795,22.047651392168525,0.030851527275932815
46.0,337.2947970285089,576.809356808723,0.5022141798296739,22.026931811424394,0.030861340186155037
47.0,264.8536425404778,597.2602964150553,0.5022973222442154,22.006742694977063,0.030870994085186485
48.0,196.25352901005056,614.6621952617646,0.5023781879093784,21.987121713715897,0.03088049417118693
49.0,136.74438588181016,623.9815928401372,0.5024566336804493,21.968104952552487,0.030889824816610574
50.0,89.34750097999648,622.566017756637,0.5025325383627822,21.949722269820167,0.030898977752501944
51.0,54.22096536900965,610.6599988946896,0.5026058079163445,21.931996213255484,0.03090794759729863
52.0,29.637068997414406,590.3309379172068,0.5026763709948601,21.914943133561625,0.03091672669037612
53.0,13.188849987359824,564.220489389865,0.5027441772524246,21.89857404079156,0.030925307994606775
54.0,2.5888560094726403,534.7479221042661,0.5028091919591664,21.88289583106009,0.030933685315322774
55.0,-3.9853831135102404,503.7899889437824,0.5028713963394195,21.867911111974255,0.030941851571776015
56.0,-7.833308723440124,472.65544069125286,0.5029307951200361,21.853616825186958,0.03094980202194991
57.0,-9.800462374860281,442.1858332155808,0.5029873986158584,21.840008602023726,0.03095753194996937
58.0,-10.378123493089266,412.8825886511167,0.5030412348757762,21.827077524760618,0.030965037559112764
59.0,-9.790839566505806,385.01733898338716,0.5030923011707051,21.814821946897688,0.03097231316697447
60.0,-8.06102673226483,358.7138585974711,0.5031406379016656,21.803230425805616,0.030979357309866177
61.0,-5.052924326528456,334.00442191399463,0.5031862287575929,21.792304882528516,0.030986163038516448
62.0,-0.5030702316869975,310.8668540406599,0.5032291266245683,21.782031182528257,0.0309927311353524
63.0,5.956448430325731,289.247734771499,0.5032693697223215,21.772398919068603,0.030999061219402095
64.0,14.776511666335576,269.07682954500007,0.5033069994260666,21.763396854963766,0.031005153567567348
65.0,26.46850314500034,250.27595555537545,0.5033420448005538,21.755016905514292,0.031011007880866765
66.0,41.579194391324414,232.76426014263672,0.503374532163647,21.747251967689348,0.03101662439790986
67.0,60.66278657458475,216.4613157584652,0.5034044950814904,21.740092930099227,0.031022003890566474
68.0,84.25272423632552,201.28823536139063,0.503431960461335,21.733532710938476,0.031027146982971782
69.0,112.8313492552391,187.16966232126282,0.5034569492249086,21.727565570048313,0.031032054396835845
70.0,146.8007527970858,174.03602391608848,0.5034794843277655,21.722186311650734,0.0310367278288575
71.0,186.4585045478227,161.82240160475754,0.5034995843743812,21.717389461078845,0.031041167415456924
72.0,231.97988992102358,150.4677580442331,0.5035172645045923,21.71317125825737,0.031045374225271358
73.0,283.4044420398849,139.91528239349006,0.5035325560193988,21.709524699385437,0.03104935129378499
74.0,340.6277223467418,130.1132973556935,0.5035454617246794,21.706446925439398,0.031053096306573012
75.0,403.4015149536199,121.01640738244336,0.5035559800977659,21.703939655099397,0.031056611172866386
76.0,471.33425817025335,112.58716416170743,0.5035641210732463,21.702000036985176,0.031059896715832296
77.0,543.8982526935225,104.79853163734678,0.5035699082371315,21.70062191196892,0.031062953476718513
78.0,620.4376000240403,97.63697506965907,0.5035733726315811,21.699798542097504,0.031065785837984337
79.0,700.1806570345195,91.10649861019185,0.5035745127102134,21.69953053615011,0.031068393022569085
80.0,782.2533917686028,85.23263337810741,0.5035733173522285,21.699822167554895,0.031070778084792743
81.0,865.7017585135073,80.06676865346894,0.5035698037642191,21.700666719190583,0.03107293948274071
82.0,949.5226323409765,75.6893350519503,0.5035639423870031,21.702067729789277,0.031074872193234956
83.0,1032.704630213078,72.21133825557496,0.5035557441718176,21.70402859312233,0.031076583735550164
84.0,1114.2630293606617,69.77451917431671,0.5035451867017955,21.706549242799934,0.03107806684246334
85.0,1193.2657248734104,68.54739564848629,0.5035322531260947,21.709638588494737,0.031079325587876936
86.0,1268.8113519808117,68.72033440674203,0.5035169641575387,21.71329167151904,0.031080360560254906
87.0,1339.9502496254233,70.49626773390929,0.5034992852824342,21.71751639864103,0.03108117077897336
88.0,1405.5444340956174,74.08034416135501,0.5034792147588499,21.722312980359405,0.03108175680171256
89.0,1464.1134129385064,79.66741843341177,0.5034567395171146,21.727684833111244,0.03108211912713762
90.0,1513.7486584730568,87.42968466373895,0.5034318474388175,21.73363541889895,0.03108225825969089
91.0,1552.1921415624363,97.50452808294563,0.503404521433222,21.74016930056254,0.03108217465563911
92.0,1577.1233789345679,109.98392379522781,0.5033747519974243,21.74728880172354,0.03108186836567735
93.0,1586.6033461199881,124.90490475274993,0.5033425013494641,21.755004217308894,0.031081340015244468
94.0,1579.5228205493122,142.24524403927538,0.5033077563946609,21.763318624026198,0.03108058953422567
95.0,1555.887753093601,161.91981505504106,0.5032704850170746,21.77224072411489,0.031079617644957223
96.0,1516.8299404875077,183.78193987350213,0.5032306661745604,21.781776727458077,0.031078425422018077
97.0,1464.3596115900543,207.62629178747585,0.5031882660905777,21.79193536249901,0.031077013434448332
98.0,1400.9748304933942,233.19436828645195,0.5031432528735795,21.802725577505672,0.031075381938758816
99.0,1329.2664326530644,260.1809774066592,0.503095617821424,21.81415136190295,0.031073534617212486
100.0,1251.6273609683108,288.2432256240366,0.5030453296544996,21.826220023933374,0.03107146893549826
101.0,1170.0982622158465,317.0066245962839,0.5029923474045996,21.838944771745226,0.031069190335514127
102.0,1086.327662778983,346.08063189133435,0.5029367138213198,21.852316379935424,0.031066701520773714
103.0,1001.61147843509,375.06666123138456,0.5028783236270253,21.86636274389971,0.0310640010862924
104.0,916.9486071783273,403.5802323662452,0.5028172626288079,21.881063714176694,0.031061093666413093
105.0,833.1100393403018,431.2632400403514,0.5027534948461166,21.896430564123307,0.0310579827387788
106.0,750.6859987379592,457.8038097889637,0.5026870543321591,21.9124551744069,0.03105466698730669
107.0,670.1327366050003,482.9378906759427,0.5026179289933207,21.929142950141383,0.031051146533275096
108.0,591.8199308478831,506.43402201936686,0.5025461937962213,21.946478247936195,0.031047429637545185
109.0,516.0983035801148,528.050693623388,0.5024719306136565,21.964440460637903,0.03104351398038118
110.0,443.3856818054164,547.4645450053147,0.5023951910258705,21.98301833467548,0.031039402652171075
111.0,374.24864465634073,564.2038223435865,0.5023160988165569,22.002182058684877,0.031035093730048594
112.0,309.4514135037329,577.6098561139764,0.502234783713522,22.021899480197582,0.03103059427780117
113.0,249.92341944155683,586.8804347377712,0.5021513963558849,22.042132342417073,0.031025903346032876
114.0,196.6357987225933,591.1979878934778,0.5020660944855159,22.06284103959487,0.03102101901349507
115.0,150.4087656111611,589.9203283378362,0.5019790612968315,22.083982246293147,0.03101594608905379
116.0,111.71193843311342,582.7695322906578,0.5018905137718797,22.10550097724257,0.03101068505049432
117.0,80.5436604924821,569.9368290116015,0.5018006365932774,22.12735287360481,0.031005240237321905
118.0,56.422092586501996,552.074688806421,0.501709622027485,22.14949142643147,0.030999614324696445
119.0,38.49373230627384,530.1754502551073,0.5016176523366429,22.171872869919856,0.030993811249411318
120.0,25.707518788137847,505.39264929684134,0.50152489782799,22.194457748526172,0.030987836241652793
121.0,16.994872244798884,478.86597191909016,0.5014315119832297,22.21721165526145,0.030981695476220126
122.0,11.410723935074948,451.5933754857161,0.5013376230026075,22.240106702990076,0.03097539516278408
123.0,8.217518012114807,424.3656898040878,0.5012433273448295,22.26312322635864,0.03096894115302654
124.0,6.916410530537937,397.75546692023255,0.501148717067211,22.28624212333161,0.03096234040881217
125.0,7.242099177650119,372.14140677823303,0.5010538253093062,22.309459414483353,0.030955597561541124
126.0,9.137740458987748,347.7480315080771,0.500958652964681,22.33277858186388,0.03094871617757415
127.0,12.722449010912019,324.68730447085227,0.5008632060671384,22.356201486919684,0.03094169943036289
128.0,18.257826878165343,302.99467989552363,0.5007674219214564,22.37974528851797,0.030934547018962814
129.0,26.11585538782401,282.65667018290566,0.5006712101446356,22.403433024365746,0.030927256896024505
130.0,36.748052787495475,263.63046942279317,0.5005744515347293,22.427293651846416,0.030919824964605776
131.0,50.65518698927452,245.85707399642746,0.5004769980425032,22.451362030473927,0.03091224521551593
132.0,68.35732075142865,229.26967450463954,0.500378672442942,22.475679489629687,0.030904509843720767
133.0,90.36367299262403,213.79877823575242,0.5002792796820729,22.50029073131484,0.030896609998788238
134.0,117.14366547455785,199.37527992356183,0.5001785942874979,22.525247320330926,0.030888536040576887
135.0,149.1007464056027,185.9322068829621,0.5000763708387757,22.55060573538653,0.030880277709564283
136.0,186.54877174895634,173.40568255107235,0.49997234753258213,22.576426795583625,0.03087182531839803
137.0,229.69329860167178,161.73546604856548,0.49986625094615444,22.602774675415457,0.030863170244355982
138.0,278.61864968422054,150.86533953979765,0.49975779766180695,22.6297176650053,0.030854305752743172
139.0,333.2796298838001,140.74343253478003,0.49964671663458426,22.657322506271626,0.03084522815015021
140.0,393.49972661238337,131.3227025257626,0.4995327493167945,22.685655513321233,0.03083593771280947
141.0,458.9747026347466,122.56177317067788,0.4994156315096487,22.714786827302063,0.03082643609203729
142.0,529.2775937031594,114.42595569638405,0.49929518967814707,22.744767534991666,0.030816731700598905
143.0,603.8689276263133,106.88895758874419,0.49917123054111323,22.77565617392206,0.030806834978686887
144.0,682.1067981425655,99.93508081870705,0.4990437569423386,22.807462076843205,0.030796759905729942
145.0,763.2619184666452,93.56165000170067,0.49891274947279435,22.840201566748345,0.030786520469662
146.0,846.5312291478709,87.78166633412737,0.49877843783953557,22.873827241496926,0.030776133151912723
147.0,931.0619445153432,82.62697594561273,0.4986410816490476,22.908281723824203,0.0307656063544249
148.0,1015.972312997335,78.15081547920012,0.49850110383807417,22.943462002236387,0.030754947051215998
149.0,1100.3853355265594,74.43112552659387,0.4983590631465557,22.979225939575226,0.030744155077755318
150.0,1183.4596291789833,71.57261828509459,0.4982156440817039,23.015394655318357,0.030733227495067836
151.0,1264.4131976405606,69.70793218944439,0.4980715995295932,23.05176768320009,0.03072215914020747
152.0,1342.5252398024459,68.99565471406916,0.49792768510772484,23.088144004506162,0.03071094458914649
153.0,1417.094200335102,69.61466764027764,0.49778459309563294,23.124341725704202,0.030699581316379124
154.0,1487.3447241923486,71.755711107922,0.4976429242150765,23.16020663373765,0.030688071617634375
155.0,1552.2966568102395,75.61058932227546,0.4975031378616113,23.195624999421398,0.030676422594797335
156.0,1610.6395056210158,81.36045135720943,0.49736554848107056,23.230524031511738,0.03066464522858375
157.0,1660.6788194326855,89.16397158697089,0.49723029881464964,23.2648765920528,0.030652751677274975
158.0,1700.4175488771573,99.14661932107543,0.49709738398669706,23.298693525898116,0.030640753296638346
159.0,1727.7916601151003,111.39195869388672,0.4969666841443914,23.332013015982586,0.03062865902480822
160.0,1741.017413315269,125.93460617861045,0.49683797052266354,23.364897757608013,0.030616473708432058
161.0,1738.94531806104,142.75624747266153,0.49671091733375067,23.397430917221843,0.030604196527064986
162.0,1721.3054493592506,161.78355183724952,0.49658512343429806,23.42971141305809,0.030591822052071
163.0,1688.7646579930013,182.889154808436,0.49646013901725355,23.46184743205936,0.0305793410862844
164.0,1642.7918686419944,205.89468468064,0.49633547868176897,23.493953569779915,0.03056674145594708
165.0,1585.3937067065704,230.57497830255258,0.49621061914485126,23.52615306398609,0.03055400967297751
166.0,1518.8079939704296,256.66508198469865,0.496085068759335,23.558560893545575,0.030541134092498992
167.0,1445.2454006321157,283.86589788019023,0.4959582712464455,23.591310795294373,0.03052810338473823
168.0,1366.7067989457787,311.8546251159032,0.4958297494157938,23.624518876583007,0.03051491066226373
169.0,1284.8991175758947,340.29176020491104,0.49569902809640515,23.658305141410708,0.030501555278214357
170.0,1201.2186451522152,368.83373806673575,0.49556570734629113,23.692775278930792,0.030488040772480823
171.0,1116.7781798084347,397.14264741798104,0.49542940776819594,23.72803544915912,0.030474376537727697
172.0,1032.446387496865,424.90269424546005,0.49528995955476923,23.764143635331212,0.030460579621444432
173.0,948.8940011712143,451.8313347515441,0.49514727026917227,23.801138874552432,0.03044666684267377
174.0,866.6311574707136,477.69022059085006,0.495001401939168,23.839023127038367,0.030432656805167695
175.0,786.0368747836915,502.2924592387177,0.49485270866556624,23.877717797521726,0.03041856401667233
176.0,707.3985525490614,525.4904507531986,0.49470164677784045,23.9171140793795,0.03040439564765467
177.0,630.9510813957065,547.1536586050337,0.4945489579140652,23.957018845033762,0.030390155518246958
178.0,556.9388750737774,567.1217089788125,0.4943955027567947,23.997198785345986,0.030375836534636675
179.0,485.67820274162983,585.1532155311438,0.4942422426805378,24.037390765180387,0.03036142438367001
180.0,417.6149127401814,600.8748209607097,0.4940901279927931,24.077329144226212,0.03034691217164395
181.0,353.34491916392903,613.7729962543679,0.49394005324925294,24.116766758062873,0.0303322871849326
182.0,293.59062300879793,623.223240623378,0.49379272119267953,24.155511445870584,0.03031754568540736
183.0,239.12254152196869,628.5733505031396,0.4936486615144842,24.193428039773217,0.030302692711580616
184.0,190.64303124772692,629.2594184792047,0.49350819010544483,24.230441352386816,0.03028773824058474
185.0,148.66079711254469,624.925687466923,0.493371393266581,24.266537212607812,0.0302726934574654
186.0,113.38919034453028,615.5161862689603,0.4932381826106068,24.30174792373424,0.030257570554989358
187.0,84.69696531198367,601.3123417866374,0.4931083441041697,24.336137254942845,0.030242380080407662
188.0,62.126338698210304,582.9047738796146,0.49298153528018973,24.36979790257619,0.030227128088647366
189.0,44.97187712506887,561.1083928386115,0.4928573507343455,24.402835098730176,0.030211817002423272
190.0,32.39722992932113,536.8457883196467,0.49273533275486203,24.435364121422193,0.0301964455428384
191.0,23.557402077414665,511.03092000593387,0.49261499611618037,24.467504352217205,0.030181009704684982
192.0,17.69920487485148,484.4794311173391,0.492495843080605,24.49937682824868,0.030165503843203625
193.0,14.225429210983132,457.8579135596612,0.49237738198790026,24.53110054632909,0.030149922027763048
194.0,12.722546367324483,431.67022057800796,0.49225914348207045,24.56278964380841,0.03013425951350894
195.0,12.96126888677057,406.2694480702705,0.4921407077213092,24.594547221401974,0.030118513837487763
196.0,14.880890627284328,381.88348155012835,0.49202162071520544,24.626488009576438,0.030102684218272086
197.0,18.565930207742017,358.6435644422565,0.4919015407602561,24.658701741742163,0.03008677453441099
