Time,J,A,S,tau
0.0,100.0,10.0,0.8390213972957805,2.272727272727273
1.0,89.44292433476372,11.812591506278189,0.8012499244125537,2.272727272727273
2.0,79.46795731298872,13.24454042769368,0.7651679146895402,2.272727272727273
3.0,69.88777619485283,14.65233393131887,0.7556407773859796,2.272727272727273
4.0,61.45122894876805,15.419555500534495,0.755699706288014,2.272727272727273
5.0,54.309963301610814,15.616478346860633,0.7557876080728017,2.272727272727273
6.0,48.386101598144286,15.413262697122407,0.7559044313501779,2.272727272727273
7.0,43.4141889148866,15.073852698665164,0.7560501082269034,2.272727272727273
8.0,39.16101563407617,14.757534664539168,0.7562245543706363,2.272727272727273
9.0,35.435963065341895,14.545295858468819,0.756427669090624,2.272727272727273
10.0,32.109883072310296,14.450005354699206,0.7566593354255107,2.272727272727273
11.0,29.10601561111647,14.446791957089726,0.7569194202610353,2.272727272727273
12.0,26.388048559394566,14.495173046017497,0.7572077744490878,2.272727272727273
13.0,23.941828957168603,14.557360309281535,0.7575242329524804,2.272727272727273
14.0,21.759222769077706,14.608169260010337,0.7578686150040206,2.272727272727273
15.0,19.827987470008477,14.63718161682481,0.75824072424442,2.272727272727273
16.0,18.12873211641999,14.645305052747421,0.7586403489387767,2.272727272727273
17.0,16.63657370816676,14.639357757402278,0.7590672621664258,2.272727272727273
18.0,15.324674274649718,14.627270332958684,0.7595212220354762,2.272727272727273
19.0,14.167482477162201,14.615165269116426,0.7600019718846353,2.272727272727273
20.0,13.14274087581327,14.606351093191286,0.7605092405668451,2.272727272727273
21.0,12.232205416692182,14.601612599606803,0.7610427426498696,2.272727272727273
22.0,11.421318678033627,14.600132633928789,0.7616021787132086,2.272727272727273
23.0,10.698437683074754,14.600466726964724,0.7621872356348394,2.272727272727273
24.0,10.053919128996698,14.601265094295323,0.7627975868309285,2.272727272727273
25.0,9.479396974656055,14.601636693829148,0.7634328926322593,2.272727272727273
26.0,8.967312599731164,14.60121407481486,0.7640928005237988,2.272727272727273
27.0,8.510715137126631,14.600028592574258,0.7647769455194703,2.272727272727273
28.0,8.103197493194607,14.598325601909798,0.7654849505019894,2.272727272727273
29.0,7.738942748750731,14.596399121814077,0.7662164265090442,2.272727272727273
30.0,7.4127424827432336,14.594488326016497,0.7669709731879146,2.272727272727273
31.0,7.1200110613840035,14.592737126349286,0.7677481790659906,2.272727272727273
32.0,6.856750092541639,14.5912014446198,0.7685476219751115,2.272727272727273
33.0,6.6194873885579,14.589879331448206,0.7693688694380449,2.272727272727273
34.0,6.405200206555401,14.588744625737865,0.7702114790667085,2.272727272727273
35.0,6.211245135250948,14.587772707479997,0.7710749989318367,2.272727272727273
36.0,6.035301421545462,14.586954150841853,0.77195896798699,2.272727272727273
37.0,5.875314594931018,14.586297879117385,0.7728629165008816,2.272727272727273
38.0,5.729464269693108,14.585827618635825,0.7737863664501456,2.272727272727273
39.0,5.596136058311403,14.585575775170273,0.7747288319809504,2.272727272727273
40.0,5.4739002282395015,14.585577785250829,0.7756898198009723,2.272727272727273
41.0,5.361493064642364,14.585868299517816,0.7766688296580518,2.272727272727273
42.0,5.257799560885444,14.586479523812208,0.7776653547420913,2.272727272727273
43.0,5.161838903078513,14.587441172386312,0.778678882168587,2.272727272727273
44.0,5.07274490129869,14.588781272713607,0.779708893412908,2.272727272727273
45.0,4.989762106098619,14.590527362690459,0.7807548647292647,2.272727272727273
46.0,4.912219964362334,14.592707194289394,0.7818162676335402,2.272727272727273
47.0,4.839529957086235,14.595349353625384,0.7828925693186045,2.272727272727273
48.0,4.77117026675361,14.598483170301998,0.7839832332161966,2.272727272727273
49.0,4.706682343079541,14.60213884983546,0.78508771936453,2.272727272727273
50.0,4.64566937068842,14.606347636048572,0.7862054847545356,2.272727272727273
51.0,4.587765009203769,14.611140116165082,0.7873359840077473,2.272727272727273
52.0,4.5326645935335375,14.616548352717638,0.7884786697199678,2.272727272727273
53.0,4.480092758832124,14.622604007802229,0.7896329927817428,2.272727272727273
54.0,4.429793355651398,14.629337581311468,0.7907984030904966,2.272727272727273
55.0,4.381576414952734,14.636782878907688,0.7919743497322765,2.272727272727273
56.0,4.335220489368388,14.644968414702726,0.7931602815324241,2.272727272727273
57.0,4.2905998736684685,14.653929776200274,0.794355647635153,2.272727272727273
58.0,4.247575670477389,14.663699564221679,0.7955598975850154,2.272727272727273
59.0,4.205989756384573,14.674306690908226,0.796772481949502,2.272727272727273
60.0,4.165713320625192,14.685779897251098,0.797992852758287,2.272727272727273
61.0,4.126697113040672,14.69815606472596,0.79922046403088,2.272727272727273
62.0,4.088834946102049,14.711464725782163,0.8004547717325098,2.272727272727273
63.0,4.0520455386979615,14.725736997140244,0.8016952345805882,2.272727272727273
64.0,4.016263261849396,14.741003425987868,0.8029413142689289,2.272727272727273
65.0,3.9814310780056026,14.75729487576306,0.8041924758597561,2.272727272727273
66.0,3.947497565573786,14.774641771135833,0.8054481881460088,2.272727272727273
67.0,3.914388560016472,14.793070392408275,0.8067079235631185,2.272727272727273
68.0,3.882088259502497,14.812613472708982,0.8079711603301334,2.272727272727273
69.0,3.8505911264336854,14.833304959722911,0.8092373796483123,2.272727272727273
70.0,3.8198213464307855,14.855168318599548,0.8105060693238838,2.272727272727273
71.0,3.7898072382922225,14.878239359443878,0.8117767215301449,2.272727272727273
72.0,3.7604630072747964,14.902537085872808,0.8130488345299003,2.272727272727273
73.0,3.7318336774249947,14.928097404371883,0.8143219128880724,2.272727272727273
74.0,3.703836780960554,14.954937917127612,0.8155954663304075,2.272727272727273
75.0,3.676515671007324,14.983092693433434,0.816869012955125,2.272727272727273
76.0,3.6498061100150623,15.012580330455716,0.8181420750782473,2.272727272727273
77.0,3.6237316762652743,15.043430514791522,0.8194141851260749,2.272727272727273
78.0,3.598262220051845,15.075664947845011,0.8206848793066643,2.272727272727273
79.0,3.573386395378252,15.109306648441393,0.821953704802114,2.272727272727273
80.0,3.5491164799968007,15.144381387645476,0.8232202131346769,2.272727272727273
81.0,3.525404701549402,15.180905230179905,0.824483966463296,2.272727272727273
82.0,3.5022950274319444,15.218906368773865,0.8257445328517257,2.272727272727273
83.0,3.479718700209014,15.258396054748376,0.8270014897479747,2.272727272727273
84.0,3.457734424849178,15.29940242750491,0.8282544226718753,2.272727272727273
85.0,3.436268747552942,15.341934173492543,0.829502924793921,2.272727272727273
86.0,3.415378073700406,15.386016900278658,0.830746599654367,2.272727272727273
87.0,3.395000424349076,15.431658907693663,0.8319850567394012,2.272727272727273
88.0,3.3751733938385255,15.478880878080078,0.833217917793633,2.272727272727273
89.0,3.355862091693668,15.527692754739892,0.8344448093965863,2.272727272727273
90.0,3.337070615226825,15.578108190424276,0.835665371298205,2.272727272727273
91.0,3.3188030793640815,15.630140214249685,0.8368792481106638,2.2727272727272725
92.0,3.3010250114286994,15.683794718586277,0.8380860971457152,2.2727272727272725
93.0,3.283772357862358,15.739086577915952,0.8392855818224575,2.2727272727272725
94.0,3.2669858753910144,15.796015804668468,0.8404773766778064,2.2727272727272725
95.0,3.2507175700190762,15.854596705207125,0.8416611643575462,2.2727272727272725
96.0,3.234899655189436,15.91482558071364,0.8428366364812886,2.2727272727272725
97.0,3.2195843360967054,15.976713785936196,0.8440034949695755,2.2727272727272725
98.0,3.2047104289810484,16.040255870378694,0.845161448572108,2.2727272727272725
99.0,3.190315772935269,16.10545808567968,0.8463102181697255,2.2727272727272725
100.0,3.17635952384287,16.172314927172675,0.8474495298774875,2.2727272727272725
101.0,3.1628522807093824,16.240825687161347,0.8485791228789834,2.2727272727272725
102.0,3.149785284123572,16.310986156847708,0.8496987410594776,2.2727272727272725
103.0,3.137135245657305,16.382787724764217,0.850808141007615,2.2727272727272725
104.0,3.124922956897443,16.456226829905205,0.85190708472028,2.2727272727272725
105.0,3.113100366185702,16.531288181375565,0.8529953453535754,2.2727272727272725
106.0,3.1017046690761343,16.607966792477704,0.8540727030320775,2.2727272727272725
107.0,3.0906777945434087,16.686242636226755,0.8551389468856276,2.2727272727272725
108.0,3.080064405872327,16.76610775010533,0.8561938750489151,2.2727272727272725
109.0,3.0698348016331645,16.84754247845035,0.8572372924037035,2.2727272727272725
110.0,3.059967242296887,16.930526504219618,0.858269012891115,2.2727272727272725
111.0,3.050453676599401,17.015038120016783,0.8592888582331063,2.2727272727272725
112.0,3.041284655135776,17.10105422247328,0.8602966579751807,2.2727272727272725
113.0,3.032450388501888,17.18854988378178,0.8612922493584411,2.2727272727272725
114.0,3.023940711609972,17.277498184954645,0.8622754771701716,2.2727272727272725
115.0,3.0157454182452392,17.36787008465855,0.8632461935883269,2.2727272727272725
116.0,3.007854009230883,17.45963430940188,0.8642042580350269,2.2727272727272725
117.0,3.0002559008778804,17.55275733761345,0.8651495370094183,2.2727272727272725
118.0,2.9929404148352416,17.647203376086996,0.8660819039384251,2.2727272727272725
119.0,2.9858967311727875,17.742934348305756,0.8670012389973045,2.2727272727272725
120.0,2.979114018616534,17.839909902521725,0.867907428958985,2.2727272727272725
121.0,2.9725812601501214,17.938087382734828,0.868800367004187,2.2727272727272725
122.0,2.9662913416296472,18.037418445299668,0.8696798003780091,2.2727301029928344
123.0,2.9609166341829036,18.137201393860988,0.8705168464598043,2.2732733969345196
124.0,2.960300355693247,18.23407200768473,0.8711666430613896,2.27708837003629
125.0,2.965644691707659,18.327703820897913,0.8716192538983083,2.284423645404397
126.0,2.974115713378575,18.421397315268063,0.872010371643665,2.292760989613759
127.0,2.9834377250491495,18.517122580360603,0.8723946856343436,2.3010681551468766
128.0,2.9925129813093596,18.615449874557807,0.8727720523872429,2.3093435284366945
129.0,3.000889670256871,18.71626819743112,0.8731424231057472,2.3175837182539
130.0,3.0084963617502942,18.819163315029616,0.8735057533873057,2.325785258956812
131.0,3.0154825570905053,18.923652935070177,0.8738620034749759,2.333944605612713
132.0,3.022008748045024,19.02930389579744,0.874211137777789,2.3420581420146798
133.0,3.028250629564556,19.13577369431633,0.8745531250357125,2.350122177353219
134.0,3.0343233296101615,19.242816290784706,0.8748879386487752,2.358132940733699
135.0,3.0403123323057937,19.350253439127755,0.8752155556054967,2.3660865994091966
136.0,3.046252467269399,19.457967528592974,0.8755359581817581,2.3739792297197018
137.0,3.052162119519827,19.565865776663482,0.8758491317865823,2.381806854091056
138.0,3.0580319425905427,19.673873529560876,0.8761550663881957,2.38956541812439
139.0,3.063846435157831,19.78192090123095,0.8764537558936644,2.3972508009041635
140.0,3.069585226552625,19.889937564900027,0.8767451981275254,2.4048588165538307
141.0,3.0752267205430552,19.997849514049275,0.8770293947358562,2.412385216949326
142.0,3.080749865510789,20.10557816721988,0.8773063510840101,2.4198256948217223
143.0,3.0861348778686755,20.213040476462304,0.8775760761387321,2.4271758872587945
144.0,3.09136338085463,20.320149544951303,0.8778385823461875,2.434431379573128
145.0,3.096418291253966,20.426815366608107,0.8780938855028988,2.4415877095218605
146.0,3.1012835485798242,20.53294550166872,0.8783420046244119,2.448640371838412
147.0,3.1059437830507988,20.638445623650057,0.8785829617918034,2.4555848233408923
148.0,3.1103841841165276,20.743219939339582,0.8788167819946755,2.46241648837835
149.0,3.1145903622091073,20.84717148489126,0.8790434929694048,2.4691307646075162
150.0,3.1185489251479845,20.950202422492968,0.8792631250159805,2.4757230292009424
151.0,3.1222605681178055,21.0522158152223,0.8794757106695332,2.482188646310873
152.0,3.1256977259597742,21.153110485801975,0.8796812854055936,2.4885229711753323
153.0,3.1288304883994327,21.252784620186098,0.8798798857612123,2.4947213587814607
154.0,3.1316623841745277,21.351139480208605,0.8800715506020929,2.5007791743790073
155.0,3.134195511483234,21.448076246573827,0.8802563203011331,2.5066917949648944
156.0,3.136417290043889,21.543494390856,0.880434236939141,2.512454631195745
157.0,3.138283517633767,21.637289383091854,0.8806053434449922,2.5180631170252505
158.0,3.139799588334002,21.72936229680686,0.8807696838399293,2.5235127275904747
159.0,3.140971851959536,21.81961460587393,0.8809273030558494,2.5287989875745667
160.0,3.141802641818312,21.907948372634092,0.8810782465862106,2.533917490892285
161.0,3.1422431968015463,21.994259872685735,0.8812225601017214,2.5388638985364413
162.0,3.1423199498758443,22.078454496022186,0.8813602896189493,2.543633924888429
163.0,3.1420100228388947,22.16043321127918,0.881491480824387,2.5482234219798476
164.0,3.141297885247373,22.24009842231609,0.8816161793323202,2.552628278358763
165.0,3.140210375307996,22.317359526301075,0.8817344300903028,2.556844542695543
166.0,3.13869905972748,22.39211797037202,0.8818462772115923,2.560868355024135
167.0,3.1368073864545774,22.464287761541872,0.8819517642978918,2.5646959645549967
168.0,3.134500410261562,22.53377589965304,0.8820509330035252,2.5683238149370333
169.0,3.1317831265377447,22.600495061235957,0.8821438245986256,2.5717484063158613
170.0,3.1286758790056273,22.664363205544145,0.8822304778984945,2.574966484966246
171.0,3.1251356566320965,22.725291912803552,0.8823109304554496,2.5779748945104664
172.0,3.1212187015069546,22.783207709006383,0.8823852180800345,2.5807706630728484
173.0,3.1168791541166887,22.838027835047267,0.8824533735906559,2.5833510435571516
174.0,3.1121488306160168,22.889680559420068,0.8825154290024105,2.5857133776083816
175.0,3.107032987659863,22.938095765585228,0.8825714122789624,2.587855324554797
176.0,3.1015026279285167,22.983200555442753,0.8826213500926661,2.589774636105301
177.0,3.0956196276596715,23.024937721425555,0.882665265967387,2.5914693305471204
178.0,3.0893324061480567,23.063239482465903,0.8827031801066075,2.5929376490330553
179.0,3.082696777888253,23.09805391833294,0.8827351112472023,2.5941779700019545
180.0,3.0757015478793437,23.129326673290734,0.8827610731383186,2.595189025436013
181.0,3.068338182422278,23.15700530150984,0.882781078336792,2.5959696357217554
182.0,3.06066508603689,23.18105182918903,0.8827951350275816,2.5965189579098475
183.0,3.052632070293031,23.2014179703804,0.882803248379677,2.596836342597947
184.0,3.0443123786098107,23.218074813209498,0.8828054212960066,2.5969213349839335
185.0,3.0356794269954466,23.23098716801164,0.8828016515947418,2.596773826335026
186.0,3.026750444276174,23.240127279035963,0.8827919359607242,2.596393800573681
187.0,3.0175702916447382,23.245478303088554,0.882776266026513,2.595781617383672
188.0,3.0080980971677613,23.247015357218423,0.8827546311008356,2.594937786144279
189.0,2.9984158035875295,23.244734482540224,0.8827270175582002,2.59386306200425
190.0,2.9884843158936687,23.2386223043725,0.8826934073560603,2.5925584998039413
191.0,2.978349272078909,23.228678772715938,0.8826537812882949,2.591025261500031
192.0,2.9680332635285107,23.21490895092158,0.8826081152157371,2.589264879106019
193.0,2.9575121479694535,23.197314235492467,0.8825563834533852,2.587278991858646
194.0,2.9468667273718316,23.175916069123716,0.8824985571576827,2.585069512967281
195.0,2.9360521099773136,23.150724851401463,0.8824346042385509,2.582638584213333
196.0,2.925134819293717,23.121768694886804,0.8823644913990599,2.5799884738830863
197.0,2.9141160430188218,23.08907509786034,0.8822881813832013,2.577121768404683
198.0,2.9029919806679456,23.05267291346745,0.8822056360179427,2.5740411317481215
199.0,2.8918325204485535,23.01260783286348,0.8821168144201981,2.570749495100209
200.0,2.880594576253879,22.968914822186566,0.8820216737685195,2.56724994174121
201.0,2.8693552050074027,22.92164864091388,0.881920170232043,2.5635456921330064
202.0,2.858098126241013,22.870858693607264,0.8818122575385362,2.5596402035111327
203.0,2.846841328542661,22.816600769802125,0.8816978889861372,2.5555369934590066
204.0,2.8356353187570944,22.75894213341305,0.881577016304695,2.5512398035654664
205.0,2.824445847362156,22.69794170437624,0.8814495904189968,2.546752462370513
206.0,2.813350123149958,22.633677653866844,0.8813155619020948,2.542078926216388
207.0,2.802319609140509,22.566219548637196,0.8811748805243917,2.53722329906311
208.0,2.7913929601507044,22.495647763268305,0.8810274961083903,2.532189734467783
209.0,2.7805958879536297,22.422047283243284,0.8808733585475096,2.5269825391949143
210.0,2.769908302122094,22.345498845986896,0.8807124177340324,2.521606062027662
211.0,2.7593983709213585,22.26609934339407,0.880544624397107,2.5160647462470203
212.0,2.7490331446558955,22.18393590346987,0.8803699298429485,2.5103631049523853
213.0,2.7388624621614177,22.099108574684667,0.8801882860952042,2.5045056875491243
214.0,2.7288914279024614,22.01171622560744,0.8799996470115969,2.4984971161434304
215.0,2.7191016337231786,21.921856022283126,0.8798039671042983,2.4923420296676366
216.0,2.709537784295373,21.82963638718742,0.8796012029267595,2.4860451059663773
217.0,2.7002152664014623,21.735164306577506,0.8793913128004871,2.479611041900029
218.0,2.691145946709661,21.638549080042438,0.8791742570788644,2.4730445459646546
219.0,2.682341689904162,21.539901378074557,0.8789499983657931,2.466350330649429
220.0,2.6738138381276233,21.439333399696327,0.8787185017133319,2.459533104757257
221.0,2.665573208799611,21.33695866487578,0.8784797348118341,2.452597566085685
222.0,2.6576300521318146,21.23289184579079,0.8782336681742119,2.4455483944696015
223.0,2.6499940018151564,21.127248547772133,0.8779802753102001,2.438390245223654
224.0,2.642674067349769,21.02014508601591,0.8777195328954466,2.431127742956186
225.0,2.63567864966029,20.911698256598687,0.8774514209291813,2.4237654758171896
226.0,2.6290155136272855,20.80202510056183,0.8771759228862036,2.4163079901169136
227.0,2.6226918891612088,20.691242685814355,0.8768930258581175,2.4087597853873954
228.0,2.616714348845894,20.579467862810205,0.8766027206900112,2.40112530976517
229.0,2.6110888512818193,20.466817047119854,0.8763050021023278,2.393408955872993
230.0,2.6058207742553297,20.353406005693017,0.8759998688046221,2.385615057093243
231.0,2.6009149400576614,20.239349648669087,0.8756873236012631,2.3777478842180217
232.0,2.5963756274140444,20.124761825774762,0.8753673734877394,2.369811642485572
233.0,2.592206590958037,20.009755130863017,0.8750400297380201,2.361810468988951
234.0,2.588411077213723,19.894440713348253,0.8747053079831798,2.353748430441382
235.0,2.5849918394194167,19.778928095723746,0.8743632282817463,2.345629521283367
236.0,2.581951137297055,19.66332499987298,0.8740138151838177,2.337457662071246
237.0,2.5792907778139247,19.54773718723807,0.8736570977799828,2.329236698306552
238.0,2.577012138987235,19.43226830607776,0.8732931097441405,2.3209703995285436
239.0,2.5751161917509044,19.317019746638625,0.8729218893705608,2.3126624586535143
240.0,2.573603514235381,19.202090506536933,0.8725434796003354,2.3043164916266954
241.0,2.572474328637021,19.087577067873955,0.8721579280442188,2.2959360372591093
242.0,2.5717284892102255,18.973573278582926,0.8717652869933633,2.287524557375703
243.0,2.57170173815908,18.85984400792582,0.8713493492338279,2.279396867686297
244.0,2.575549415080498,18.743659280137376,0.8707690014375219,2.274235393724201
245.0,2.5848429502042514,18.624291801668523,0.8699818032029911,2.272789453017311
246.0,2.597638313058221,18.504350967016357,0.8691046502362464,2.272796233206768
247.0,2.6117343974109226,18.3860541034528,0.8682143616133674,2.27279623320594
248.0,2.626252168698518,18.27007005581784,0.8673106749455255,2.27279623320594
249.0,2.640759015753515,18.156544883403114,0.8663936919658766,2.27279623320594
