Time,J,A,S,tau,r
0.0,1.0,1.0,0.9812480540680941,9.25925925925926,0.0
1.0,7.10584902322263,4.255168087450606,0.9811233539661174,9.585384335033705,0.033610350653192074
2.0,23.699506869448545,7.43483542947539,0.9809940372902873,9.910869529781811,0.03362419463264899
3.0,49.474858292669815,10.54125873850472,0.9808593351444638,10.23560875717985,0.0336397503887803
4.0,83.2879234141515,13.576606664598055,0.9807185012095623,10.55950052608499,0.033656953026610315
5.0,124.1356362930709,16.543017011480053,0.9805707432769126,10.88243672230431,0.03367585009272939
6.0,171.13629065102714,19.442518851371318,0.9804152374187584,11.204318690183555,0.03369637319526648
7.0,223.51498090079292,22.277127968340707,0.9802511624621723,11.525038345824484,0.03371855589867393
8.0,280.5882005096254,25.048760300016877,0.9800776681734132,11.844495962545228,0.033742358551099465
9.0,341.75388162088353,27.759283338558834,0.9798938778234859,12.162590334628812,0.03376776354319807
10.0,406.4789196938853,30.410533599666312,0.9796989188430482,12.479215325889545,0.03379478142346775
11.0,474.2927059091208,33.00429860401994,0.9794917334604508,12.794263550170067,0.03382342101752544
12.0,544.7785045062301,35.542277012691265,0.9792717473209421,13.107635583627813,0.03385365203840764
13.0,617.5649307942149,38.026127810587624,0.9790375235468419,13.419229271545811,0.03388546093156853
14.0,691.4969385138515,41.53517693621723,0.9786478903364724,13.55529112908567,0.03407801476039605
15.0,760.2156900740871,54.576066973749136,0.9785584351246711,13.539868149343933,0.034288425988943966
16.0,822.5203210544096,77.28026626343498,0.9784678927928749,13.523490318547797,0.034475439093826346
17.0,871.3305855993464,108.18185818205214,0.9783747965141626,13.50610896755739,0.03464350697154225
18.0,899.4788017420685,146.00826817465548,0.9782760996518182,13.487652743990589,0.03479626728550325
19.0,904.6777185202119,189.65614795367637,0.9781671703601077,13.467986514516602,0.034936767620937496
20.0,888.9635524462541,238.17051856125627,0.9780417517070588,13.446939526580262,0.03506765456462681
21.0,856.1556766822953,290.7265977871181,0.9778928038917546,13.424260388420603,0.03519130520674039
22.0,810.035019865316,346.615103649006,0.977713440701498,13.399596102257393,0.035309928862999884
23.0,753.6723021652543,405.22966506774014,0.9774981968338129,13.372445900196782,0.03542560492603101
24.0,689.3886879813796,466.0576905531382,0.9772441582634033,13.34208741275224,0.035540182172721195
25.0,618.8911713550917,528.6817041327841,0.9769517728213527,13.307407967641918,0.03565507612267976
26.0,543.4045668369262,592.7910148650599,0.976624237253862,13.266575526757464,0.035770677019851135
27.0,463.6724126950466,658.2850861362479,0.9762667228239711,13.215934491366587,0.03588592089339874
28.0,378.1467123875555,727.134634168056,0.9758832126838454,13.143838996800673,0.03600101466134475
29.0,281.23247799698635,805.1379482511137,0.9754774146077126,12.982991500014709,0.03613697899757463
30.0,186.81045842090245,878.6337720263667,0.9750509108539623,12.84106590584357,0.036261331015083734
31.0,113.5187684807256,929.458508856593,0.9746068047608348,12.770270052836013,0.03636226314511487
32.0,61.61543472863688,957.8978049060571,0.9741517597389178,12.71616118190146,0.03645616969712328
33.0,26.49371828443382,969.0354573450493,0.9736988121409909,12.669849903395543,0.036541073758441366
34.0,3.058206586986004,968.3265546539188,0.9732664555411648,12.628220011492886,0.036615751793290796
35.0,-12.492055301416244,959.8212183736042,0.9728729860644811,12.58950827902553,0.03668123711030912
36.0,-22.739098974228636,946.2669429160369,0.9725273125305359,12.55245413148043,0.036739717730377014
37.0,-29.40393807679683,929.4922021905276,0.9722202673051802,12.516041017778658,0.036793629463104605
38.0,-33.642956750069914,910.7218095568503,0.9719210825447104,12.479328897744027,0.03684536853285112
39.0,-36.24803766148243,890.7896514818775,0.9715858065791513,12.441307734972138,0.036897318694505424
40.0,-37.7612563160794,870.2621211393162,0.9711715957498266,12.400755042336627,0.03695197517434912
41.0,-38.53539546564016,849.5049340639102,0.9706544130306864,12.355981885713817,0.03701196544567794
42.0,-38.80229380285791,828.7555247055632,0.9700355604777967,12.304340798398858,0.037079608531678125
43.0,-38.77006602519739,808.2221848387326,0.9693359583256652,12.241033505530966,0.037155070814320006
44.0,-38.58224508770724,788.0442545724164,0.9685796712977887,12.152820708097577,0.037235058314013955
45.0,-38.4261062620055,768.4025943736553,0.9677821041569548,11.966299230834942,0.03733023224388943
46.0,-38.12061617191058,749.1080119766607,0.966951997275829,11.819285967012048,0.037415691414262965
47.0,-37.730432175695064,730.2193064388244,0.9660975742668629,11.739551154011608,0.0374890148661215
48.0,-37.302373534875066,711.7768476440572,0.9652465286657644,11.67804908155309,0.03755367071593132
49.0,-36.837228639163385,693.77474006285,0.9644438819244524,11.625815412217058,0.03760706280015964
50.0,-36.334648740344605,676.2067441233507,0.9637335758741841,11.578865769758629,0.03765095958116318
51.0,-35.79331129614819,659.066132492548,0.9631260159138816,11.534731958941789,0.037688601499157405
52.0,-35.21130069872475,642.3460778460387,0.9625747932118411,11.491586437568667,0.03772313772821544
53.0,-34.58595650431686,626.0397395857685,0.9619888891654208,11.447798415663097,0.03775742489493621
54.0,-33.914056974704714,610.140290785575,0.961273831063882,11.401603132593756,0.03779429368656541
55.0,-33.191526478587114,594.6409897389215,0.9603775100618859,11.350670191392128,0.037836786476657565
56.0,-32.413518873598726,579.5352006966193,0.9593074039031492,11.291390493007183,0.03788772973457751
57.0,-31.574324333558042,564.8163110218392,0.9581103137921967,11.217002870930083,0.03794733503168915
58.0,-30.683111698995692,550.4938123368735,0.9568295382052528,11.107123566074259,0.038011726791146824
59.0,-30.103781648087253,536.9302359027487,0.9554901327670715,10.915812168015005,0.03808474440977003
60.0,-29.123195082359718,523.414119431049,0.95410185336846,10.797854470990021,0.03814680846983179
61.0,-28.015984253883303,510.22735340294315,0.9526859702378934,10.720835517850725,0.03820161485144188
62.0,-26.80930270060158,497.40336545824425,0.9512962981989189,10.65993854562746,0.0382455837953133
63.0,-25.492934286431673,484.9395642269067,0.9500129772252456,10.607856401588567,0.03827871866621161
64.0,-24.056787526451412,472.8349136325434,0.948893307533682,10.560754638429763,0.038304113508417566
65.0,-22.490626416223964,461.08990587306744,0.9479177974689066,10.51618178800005,0.038324979818515494
66.0,-20.78179571299245,449.70399567012333,0.9469769393699732,10.472271876015055,0.03834397378386572
67.0,-18.913296567375156,438.673817327432,0.9459164194849288,10.427303598867999,0.03836343223164292
68.0,-16.866597825505934,427.995965355337,0.9446134463615106,10.379334598780494,0.03838575859194043
69.0,-14.624703283348971,417.66996813406774,0.9430318160078788,10.325720510074321,0.03841362777528083
70.0,-12.171705742311346,407.697428423446,0.9412171669625138,10.262257052653577,0.038449327480271855
71.0,-9.504999268378933,398.09338922372933,0.9392442700273896,10.181081964539269,0.038492081928794025
72.0,-6.860434347254889,389.10841307258863,0.937165550232951,10.060538522476588,0.03853791070279447
73.0,-4.74571846644382,381.2484835087991,0.9350015400177143,9.901680742824631,0.038585373352929296
74.0,-1.5989743053621952,372.96907005908974,0.9327629370125403,9.798195556940406,0.03862641330056486
75.0,1.9180047095143995,364.95878121084047,0.930480355428475,9.72478841403033,0.038660495734491464
76.0,5.688675754286195,357.3466468850383,0.928228132343029,9.66619916227879,0.038684091633352014
77.0,9.681867408059809,350.1692788674901,0.9261144254570961,9.616199281702066,0.038698080715244096
78.0,13.85069425142926,343.471789178852,0.9242254336711264,9.571302203269038,0.03870525739675698
79.0,18.142021405804023,337.29755734051344,0.9225590767530187,9.52928389122488,0.038708155682745
80.0,22.523862441042844,331.66107832740477,0.9209991322424366,9.4885241527191,0.038708696697654886
81.0,26.992767535012128,326.5414497803605,0.9193533014009126,9.447649435098446,0.03870840962229355
82.0,31.55890411622767,321.89842649753456,0.9174353355709968,9.405270377312018,0.03870872120551862
83.0,36.21506184976811,317.7040851622499,0.9151409221745069,9.359735115281769,0.03871122163845101
84.0,40.905862866198866,313.97171281566403,0.9124744839717817,9.308777953369821,0.0387177600813609
85.0,45.54724141533968,310.73431706299505,0.9095153148679277,9.248944496590571,0.038729939511099105
86.0,50.00359101232282,308.0666131705734,0.9063537935219098,9.174506523167034,0.03874731916485989
87.0,53.79758485590528,306.3693769518825,0.9030489132402211,9.074882122270678,0.038766446649165
88.0,56.20200793452944,306.2691546272924,0.8996245769795665,8.948691706951802,0.03878510242225425
89.0,59.07192502468739,305.83664146540656,0.8960899257218312,8.84554906645707,0.03880041294240204
90.0,62.19085952169223,305.2532861416097,0.89246505938824,8.770110795175427,0.0388106365840645
91.0,65.01239519034644,305.01640278058306,0.8888055277156321,8.710719686384481,0.038812639952832295
92.0,67.37421177360814,305.2308877268742,0.8852146361395927,8.661232790825729,0.03880593048591673
93.0,69.18245492272025,305.9348323509425,0.881820678536641,8.618063668889274,0.03879225700072619
94.0,70.36734453681203,307.14861922110845,0.8787229028575356,8.578960807709255,0.03877360624968358
95.0,70.94657277143446,308.81584599932074,0.8759335232659582,8.5424132509104,0.038751517716205164
96.0,71.02815036225836,310.8042898601662,0.8733528115119646,8.50731220335555,0.03872708514068389
97.0,70.76374059360506,312.9535339168032,0.8707906444952446,8.47276300183513,0.03870110723481582
98.0,70.29423553836735,315.1259107125524,0.8680257650882004,8.437949651555838,0.03867423612901816
99.0,69.74452452130332,317.20748902145624,0.8648759758168181,8.402021180753046,0.038647096806199314
100.0,69.2263753361783,319.10400944842957,0.8612484067161854,8.36400560461714,0.03862039869197434
101.0,68.8299553918865,320.7488458920954,0.8571500757134368,8.322665470853616,0.038595010568241765
102.0,68.5794363813374,322.1453497756096,0.8526598273870697,8.276305418022586,0.03857190794869861
103.0,68.45598840259152,323.34116768903755,0.8478794018858583,8.222540141649404,0.03855176895817078
104.0,68.41634796419477,324.4062860356973,0.8428931348541138,8.158055997078897,0.03853408509106874
105.0,68.31503020866776,325.51015509826055,0.8377502607134698,8.07896815255122,0.038516799986041066
106.0,68.01878670767692,326.80583395337237,0.8324729620131138,7.986627351823307,0.038498055362342125
107.0,68.07670135363549,327.7655197739949,0.8270724449627181,7.899002786377783,0.03847682609959565
108.0,68.69261904458351,328.21141855967664,0.8215615660344235,7.8276881617029,0.03845202738059969
109.0,69.59842885936021,328.43162416956477,0.8159695683652933,7.770132270009521,0.038421892154704464
110.0,70.659369666168,328.57321614754204,0.8103564711601972,7.722390962303214,0.03838536829637119
111.0,71.8003065720385,328.7187371192385,0.8048169869875939,7.681529727509932,0.03834289216801649
112.0,72.9445568661366,328.9478330543226,0.7994675064156306,7.645523747876469,0.03829558433266709
113.0,74.03431885460537,329.3178987775032,0.7944197831923413,7.612981728559306,0.038244549438804176
114.0,75.04761939088364,329.84854208092224,0.7897462619204578,7.582932759892406,0.038190653553894394
115.0,75.99277794149592,330.52750745184403,0.7854538964351099,7.554666382375616,0.03813451915561318
116.0,76.89309158003057,331.3259632408566,0.7814755850150851,7.527641443187337,0.038076594198200746
117.0,77.77416383903805,332.2112250366813,0.777679881974414,7.501424878814655,0.038017198451805685
118.0,78.65882487161822,333.15190644831097,0.7738963039026491,7.475653399015625,0.037956568996113
119.0,79.56861669482709,334.11693352391933,0.7699487368820962,7.450000613251749,0.037894886490794435
120.0,80.52615447468169,335.0732237590688,0.7656882420746118,7.42415303325716,0.03783230478535317
121.0,81.55516490503989,335.9867075828418,0.7610163444402039,7.397790484640216,0.03776896780363373
122.0,82.67079245711967,336.8319292743628,0.75589483916322,7.3705664072373835,0.03770503346480906
123.0,83.86873430890772,337.6038644823375,0.7503404159044824,7.342081162806316,0.037640688454971594
124.0,85.13146406850764,338.3112856251957,0.7444105749897969,7.311878753906203,0.03757615359280987
125.0,86.42908990449715,338.9762859513288,0.7381837191597899,7.279409812744202,0.03751166867263926
126.0,87.72707590195337,339.6263323745672,0.7317390531369637,7.244015463773297,0.03744744232717434
127.0,88.99428839936415,340.28594045180324,0.7251453523657331,7.204945563624028,0.03738354610376182
128.0,90.20652026530412,340.973644486249,0.718453665643622,7.161429061654325,0.037319779212848486
129.0,91.34297399797529,341.7052231735799,0.7116979898098705,7.1129237385441035,0.037255626857441014
130.0,92.38468432053757,342.49531265603514,0.7049004522802083,7.059705342043589,0.037190436537949505
131.0,93.33480078017979,343.3376508278218,0.6980757052266905,7.00383619124533,0.037123693531503126
132.0,94.2377047877345,344.18420022007155,0.6912351389474347,6.949279244652565,0.037055131985645993
133.0,95.13127251425972,344.9961865158998,0.6843904136694715,6.899508463442298,0.036984472268697076
134.0,96.01366467295996,345.7729248701151,0.677552404089669,6.855810117257735,0.036911438858056984
135.0,96.8712418757594,346.52742408828357,0.6707380755929743,6.817890725920295,0.036835773942809964
136.0,97.6950191952177,347.2677785853348,0.6639677619390487,6.7849553344837945,0.036757388178785586
137.0,98.47927003808668,347.998985723017,0.6572663461802123,6.756148402923491,0.03667641422698733
138.0,99.21878837054886,348.7257817861649,0.6506624499333429,6.730737858326044,0.03659312206952827
139.0,99.9087201976319,349.4530743884335,0.6441841437529737,6.70813017549533,0.036507833450203454
140.0,100.54498830601477,350.1849699375418,0.6378587295006695,6.687860161947711,0.03642085788643754
141.0,101.12646007192652,350.9228051905387,0.6317100814795032,6.669570082170502,0.036332464130883965
142.0,101.65643150298962,351.6638768988774,0.6257529056124252,6.652982699003925,0.036242879785928904
143.0,102.1409695285007,352.40239995385184,0.6199952298877726,6.637884255054552,0.036152289408982984
144.0,102.588393284118,353.13089957429327,0.6144382714081372,6.62410847123488,0.036060844068667317
145.0,103.00793656610053,353.84093322084135,0.6090738597182802,6.611524362536533,0.03596866931279862
146.0,103.40801773995783,354.52472704534796,0.6038900232399856,6.600028077360991,0.0358758682869757
147.0,103.79597285823569,355.17561145389976,0.598869902382185,6.589532525378168,0.03578252877131832
148.0,104.17752186472549,355.7887844538675,0.5939958473406486,6.5799685787307,0.03568872444817293
149.0,104.55712538242801,356.3606677845353,0.5892492552418299,6.571271226953159,0.03559452049620765
150.0,104.93724193733192,356.8894084152233,0.5846143951833589,6.563387192995677,0.035499972786560474
151.0,105.3195490206556,357.37413296180466,0.5800774083863699,6.55626805575915,0.03540513158544115
152.0,105.70484771093588,357.8148648398049,0.5756266210952937,6.549872389817132,0.035310042278115066
153.0,106.09320283269045,358.21219509731776,0.5712532756360115,6.544166456326182,0.03521474544866829
154.0,106.4846362290468,358.5669685053494,0.5669509591780056,6.539120270258829,0.03511927989753949
155.0,106.8787046294814,358.8804492478071,0.5627152324607155,6.534706847531327,0.035023683079151505
156.0,107.2749197717738,359.1540078331803,0.5585437527568192,6.530905330354087,0.03492798972109534
157.0,107.67261621857361,359.3892652055482,0.5544362664830761,6.527691844388426,0.03483223491111835
158.0,108.07108964368476,359.58794802492173,0.5503942823087937,6.525044497134631,0.03473645381265943
159.0,108.46931913565724,359.7521445486709,0.5464216134411145,6.5229362419125705,0.034640679634910646
160.0,108.86620383231015,359.8839252790031,0.5425233863967532,6.521340197703004,0.03454494943249119
161.0,109.26055971306712,359.9856989068149,0.5387058466917872,6.520226027662098,0.03444929838055078
162.0,109.65113129510198,360.05990993601205,0.5349767810742053,6.519560660195193,0.03435376310517933
163.0,110.03652122888121,360.10914549321535,0.5313450154716454,6.519308635646706,0.034258381077332305
164.0,110.41515013035783,360.1363017242549,0.5278205613551222,6.519429159106045,0.03416319087361529
165.0,110.78539027642327,360.1441784986651,0.5244143921741425,6.519881835016956,0.03406823156114115
166.0,111.14548433171,360.13577541290726,0.5211381384600121,6.52062274395713,0.03397354329694551
167.0,111.49354848083459,360.1142216883578,0.5180042936793591,6.52160472345408,0.033879167174124945
168.0,111.82797434569197,360.08240652810275,0.515023861054844,6.522785516868439,0.03378514457499033
169.0,112.14654234357091,360.0437285441024,0.5122108716634726,6.524111037862744,0.03369151775974272
170.0,112.44741638961327,360.00121669345845,0.5095777908099586,6.525534915521304,0.03359833001147538
171.0,112.72871816686843,359.95793144944537,0.5071373054993837,6.527008334659705,0.03350562469929921
172.0,112.98882414034045,359.9165172295797,0.5048987909169983,6.5284955496806,0.03341344570317026
173.0,113.22567566518998,359.88013300744996,0.5028754415924613,6.52994331591104,0.03332183667257116
174.0,113.43780852984013,359.8512263861647,0.50107566418913,6.531316471925424,0.03323084088016983
175.0,113.62357858690277,359.83223954648474,0.49950852951392355,6.532581631283004,0.03314050190422977
176.0,113.78156632999399,359.82556285314126,0.4981829265522087,6.533699166499001,0.03305086410442553
177.0,113.91085954243496,359.8328632131457,0.49710317679149785,6.534652890520801,0.03296197014524068
178.0,114.01000042940605,359.85618140715525,0.4962757659311618,6.535413378079677,0.03287386197541151
179.0,114.07835846035877,359.89677636126953,0.49570342781468996,6.535970016834117,0.03278658134949823
180.0,114.11504715711825,359.95600576118414,0.4953894919189293,6.536309231810793,0.03270016924640784
181.0,114.11935096250659,360.0349583671347,0.4953365332413897,6.536423253591724,0.03261466543681638
182.0,114.0907848515819,360.13444969112436,0.49554478925422535,6.536308740250212,0.032530109428565136
183.0,114.02884460669216,360.25509227123996,0.49601405194778225,6.53596760370078,0.03244653958889395
184.0,113.93364491702255,360.3969368370967,0.49674198689518406,6.535411945815783,0.03236399178227173
185.0,113.80496811227998,360.56014547270917,0.49772648029601485,6.534651171962314,0.03228250185110727
186.0,113.64263736093703,360.74464388308064,0.4989647967384734,6.533699387621918,0.032202104196733125
187.0,113.44743519096144,360.94950453420444,0.5004496147403457,6.532586608147904,0.03212283096229675
188.0,113.21976884185115,361.1740444759805,0.5021766049349073,6.53133408591429,0.032044713957899554
189.0,112.96060657028607,361.4167286859397,0.504134958279964,6.529985502422608,0.03196778143730303
190.0,112.6705488060354,361.67640582094583,0.5063180425159156,6.528567802119042,0.03189206160294421
191.0,112.35105292373676,361.95090902226946,0.5087127737034333,6.527131871689732,0.03181757953974456
192.0,112.00376839800745,362.2379592332872,0.5113073071118156,6.525723399510682,0.031744360192042624
193.0,111.63013709571906,362.535164274511,0.5140877260911181,6.524393140888308,0.03167242508880619
194.0,111.23217218409506,362.8396108474122,0.5170401013716963,6.523194984518673,0.031601795168528374
195.0,110.81135627160668,363.1488053652722,0.520152394133428,6.522173037317457,0.0315324888341079
196.0,110.37026854063365,363.45913062275883,0.5234058192817109,6.521391256078392,0.03146452278732233
197.0,109.9105857569435,363.76773127775067,0.5267882723442209,6.520894465935907,0.03139791202630954
198.0,109.43441033226154,364.07132361735233,0.5302852452474774,6.520733070435674,0.03133266977709494
199.0,108.94356541779764,364.3668824729438,0.53388526300949,6.520946764928743,0.0312688078485367
