Time,J,A,S,tau
0.0,100.0,10.0,0.737611814190134,22.05900797678472
1.0,98.15709883236715,15.302194306812307,0.7356906400856283,22.029632094012527
2.0,93.15165110379584,20.377519797211583,0.7336940919541506,21.999135834454155
3.0,86.80530902528017,25.233628318571636,0.7316275571358282,21.967596108218054
4.0,79.98090579562286,29.878243559917706,0.7294917707199983,21.93502149440071
5.0,73.0382600937692,34.31882604323997,0.727287520037951,21.901420899422323
6.0,66.12219459754664,38.56258161792537,0.725015644214701,21.86680355513836
7.0,59.290958694646065,42.61647254306997,0.7226770334837883,21.831179015766768
8.0,52.5682077614428,46.48722307840218,0.7202726287853456,21.794557157177458
9.0,45.96377267060126,50.1813273359197,0.7178034208720631,21.756948173457225
10.0,39.481781407254026,53.70505794092298,0.7152704498659089,21.71836257667775
11.0,33.12395600762251,57.064481870860455,0.7126748031994605,21.678811186380518
12.0,26.89093189784018,60.26542964902775,0.7100176161000663,21.638305137930175
13.0,20.78284659910785,63.31356213338269,0.7073000703643918,21.59685587578015
14.0,14.799577810944518,66.21436010924016,0.7045233921672212,21.55447514428154
15.0,8.940854913520791,68.97308218055683,0.7016888505658468,21.511174984736144
16.0,3.2062985362615097,71.59481086004953,0.6987977598850219,21.466967755612107
17.0,0.0,74.08448605949069,0.6958514724128909,21.421866086297186
18.0,0.0,76.44688393377946,0.6928513818119536,21.375882908426323
19.0,0.0,78.6866055510961,0.6897989195814392,21.329031439072192
20.0,0.0,80.80809797680685,0.6866955550830657,21.28132518848281
21.0,0.0,82.81560982032151,0.6835427906065952,21.23277793347983
22.0,0.0,83.74295654246177,0.6817474684752116,21.20665237640826
23.0,0.0,82.17575910294458,0.6803617916985073,21.187340220603303
24.0,0.0,79.50028401695909,0.6789904597618349,21.168306942010247
25.0,0.0,76.45728723781235,0.6776340544664808,21.14955733868654
26.0,0.0,73.35018504670431,0.6762931538214373,21.131096112719586
27.0,0.0,70.29578910085758,0.6749683316355571,21.112927869827782
28.0,0.0,67.33696203949135,0.6736601571137055,21.09505711902649
29.0,0.0,64.48780338175918,0.6723691944382779,21.07748827201566
30.0,0.0,61.75125808021079,0.6710960023990944,21.060225643412885
31.0,0.0,59.12588529949942,0.6698411340066567,21.043273450516764
32.0,0.0,56.60856058799211,0.6686051358575253,21.026635809537737
33.0,0.0,54.19553363693772,0.6673885483204168,21.010316744025406
34.0,0.0,51.88292988334806,0.6661919044085548,20.99432017322784
35.0,0.0,49.666812100556804,0.6650157297945429,20.978649919157395
36.0,0.0,47.54336642140978,0.6638605429818117,20.96330971140906
37.0,0.0,45.508896418936246,0.6627268533328268,20.94830316855451
38.0,0.0,43.55980365628276,0.6616151627300705,20.93363382185601
39.0,0.0,41.6926395942002,0.6605259638556077,20.919305098911085
40.0,0.0,39.90408567251009,0.659459739942358,20.90532032550473
41.0,0.0,38.19093866440342,0.6584169651575376,20.891682732971084
42.0,0.0,36.55012115830092,0.6573981036015671,20.878395451212892
43.0,0.0,34.978679049614136,0.6564036092625954,20.865461511597914
44.0,0.0,33.47377020595201,0.6554339256187814,20.85288384620525
45.0,0.0,32.03266645208282,0.6544894853449472,20.84066528803277
46.0,0.0,30.65274730896236,0.6535707100537472,20.82880857140906
47.0,0.0,29.331497073473454,0.6526780099710595,20.817316331765564
48.0,0.0,28.06650464571441,0.6518117836750646,20.806191105903135
49.0,0.0,26.8554645846764,0.6509724177759189,20.795435331711285
50.0,0.0,25.696177201570226,0.6501602867349386,20.785051348944567
51.0,0.0,24.586554724577315,0.6493757525581829,20.77504139891538
52.0,0.0,23.52463260043608,0.6486191645646148,20.765407624743204
53.0,0.0,22.508581487168293,0.647890859176595,20.756152071660125
54.0,0.0,21.536731027129022,0.6471911596906353,20.747276687133397
55.0,0.0,20.607600093702235,0.6465203760480531,20.73878332091752
56.0,0.0,19.71993456418182,0.645878804669281,20.73067372548329
57.0,0.0,18.872758504846413,0.6452667282399205,20.722949556058254
58.0,0.07311525550566,18.065433384186903,0.6446844155505135,20.715612370958326
59.0,3.0486694029084576,17.297728790058702,0.6441321213254312,20.70866363178464
60.0,6.328965876551359,16.569901933798565,0.643610086066785,20.70210470365558
61.0,9.920529155959917,15.88278252358571,0.6431185359326937,20.695936855597928
62.0,13.824006845621678,15.237866479264442,0.6426576825216197,20.690161260256485
63.0,18.03317517664123,14.637405105685263,0.6422277228122772,20.684778994630403
64.0,22.533487865056493,14.084482640393718,0.6418288390435539,20.679791040172244
65.0,27.30107037413128,13.583085106786655,0.6414611986838535,20.675198283548745
66.0,32.30154994257248,13.138162560828611,0.6411249541970852,20.67100151598601
67.0,37.4893323644211,12.755653374081337,0.6408202430752742,20.667201434272478
68.0,42.80689580804016,12.4424885149759,0.6405471877010903,20.66379864057402
69.0,48.18468701281855,12.206558608542116,0.640305895345786,20.660793643078037
70.0,53.541210293131314,12.05664858180573,0.640096458069806,20.658186855930346
71.0,58.78375724642636,12.002331885622903,0.6399189527293304,20.65597859979147
72.0,63.80962226438204,12.05383094248427,0.6397734409220063,20.65416910194818
73.0,68.50798718846595,12.221835780569577,0.639659968963978,20.652758496541107
74.0,72.76286809608317,12.517287595181632,0.6395785679180116,20.651746825049543
75.0,76.45742920861134,12.951131022520272,0.6395292535749402,20.65113403643679
76.0,79.47989304712108,13.534026588050354,0.6395120264544824,20.650919987334852
77.0,81.73105482768152,14.276031751350768,0.6395268718712347,20.651104442565156
78.0,83.13287065328927,15.186249259055813,0.6395737599480135,20.651687075295968
79.0,83.63667171653418,16.27242464503282,0.6396526456552702,20.65266746726135
80.0,83.22937200606393,17.540514240637965,0.6397634688593726,20.65404510902129
81.0,81.93570631139569,18.994190844608923,0.6399061543284577,20.655819399890678
82.0,79.81504703992478,20.634336575426637,0.6400806120300571,20.657989649497736
83.0,76.95459570626613,22.458430569240832,0.6402867369820248,20.66055507665621
84.0,73.45874685619108,24.459978735117026,0.6405244094329986,20.6635148101959
85.0,69.43813017622129,26.627910815994788,0.6407934949906323,20.6668678893308
86.0,65.00044522450989,28.946027683474856,0.6410938447026379,20.67061326376572
87.0,60.244623402057776,31.392514436934015,0.6414252951726002,20.674749793890875
88.0,55.25873829685493,33.939626652465705,0.6417876687450885,20.679276251383378
89.0,50.12081819671641,36.55349685011695,0.6421807735768001,20.684191319034404
90.0,44.90150692038197,39.194207411729266,0.6426044038503411,20.689493591390573
91.0,39.6671845226786,41.81606177422689,0.6430583399090036,20.69518157487817
92.0,34.48273188614596,44.36812026422179,0.6435423484087965,20.701253687936653
93.0,29.413374291684626,46.79507950414139,0.6440561825452736,20.707708261606008
94.0,24.525372327668293,49.038554677971135,0.6445995821930489,20.71454353948112
95.0,19.885429815444226,51.03901037609302,0.6451722741334831,20.721757678175617
96.0,15.558756739650335,52.73849665534219,0.6457739722417017,20.729348747482234
97.0,11.605798501222969,54.084330961417045,0.6464043777163062,20.737314730745517
98.0,8.077843215099312,55.03359983242956,0.6470631792882887,20.745653525048926
99.0,5.012088103701945,55.55797424513467,0.6477500534548873,20.754362941512873
100.0,2.4271139483083704,55.64794374156541,0.6484646647172482,20.76344070556562
101.0,0.3199388720543792,55.31535053703222,0.6492066658194595,20.772884457177355
102.0,0.0,54.59326306932579,0.6499756980221305,20.782691751270324
103.0,0.0,53.53282603628041,0.650771391344939,20.792860057878364
104.0,0.0,52.19748860364192,0.6515933648391807,20.8033867624594
105.0,0.0,50.65580460923056,0.6524412268641403,20.814269166190183
106.0,0.0,48.97435999649249,0.6533145753689651,20.825504486254957
107.0,0.0,47.21220188204951,0.6542129981810669,20.83708985613678
108.0,0.0,45.41755399900366,0.6551360733025905,20.849022325927425
109.0,0.0,43.62686135367578,0.6560833692102811,20.86129886261796
110.0,0.0,41.86565117003581,0.6570544451648442,20.87391635042674
111.0,0.0,40.15042962961758,0.6580488515216513,20.886871591092444
112.0,0.0,38.490906921547065,0.6590661300501142,20.900161304203934
113.0,0.0,36.89205318305713,0.6601058142755866,20.91378212772114
114.0,0.0,35.355727217183365,0.6611674297334581,20.927730617523594
115.0,0.0,33.88189239609851,0.6622504944152385,20.942003248947465
116.0,0.0,32.46939123310734,0.6633545190299792,20.956596416333852
117.0,0.0,31.116458305881267,0.6644790073664795,20.971506433616224
118.0,0.0,29.82102410285056,0.665623456634426,20.986729534642784
119.0,0.0,28.58089301028101,0.6667873578164872,21.002261873605878
120.0,0.0,27.393845598661745,0.6679701960171119,21.01809952540448
121.0,0.0,26.257696607957943,0.6691714508168672,21.03423848605628
122.0,0.0,25.170329655624133,0.6703905966261517,21.05067467307396
123.0,0.0,24.129719369670255,0.6716271030460428,21.067403925939036
124.0,0.2763465772698923,23.133949317315647,0.6728804352257888,21.08442200651259
125.0,1.2954393414538234,22.18122984621877,0.6741500542234343,21.101724599492776
126.0,2.4794416892839957,21.269919398655507,0.6754354173666749,21.119307312873964
127.0,3.8460541052783324,20.398550804840223,0.676735978613952,21.137165678418214
128.0,5.412815829151456,19.565863400891143,0.6780511889160924,21.155295152157702
129.0,7.19668513857629,18.770841158157715,0.6793804965771234,21.173691114901406
130.0,9.213544814552828,18.012755817236087,0.6807233476140822,21.19234887276426
131.0,11.477632527772249,17.29121465561509,0.682079186115844,21.21126365772405
132.0,14.0008888024213,16.60621314902616,0.6834474545990806,21.230430628083425
133.0,16.792194245738564,15.95818735144437,0.684827594365044,21.249844869297014
134.0,19.85653451143042,15.348072828931958,0.6862190458483723,21.269501394339738
135.0,23.194082426363032,14.777369499709538,0.6876212489734563,21.28939514382899
136.0,26.799243887960777,14.248185824736076,0.6890336435003196,21.309520987799363
137.0,30.659537581061038,13.763293967940404,0.6904556693595622,21.32987372567098
138.0,34.75461293286873,13.326177299469897,0.6918867669992224,21.350448086806715
139.0,39.0553194249942,12.941055562563704,0.6933263777096704,21.37123873173062
140.0,43.52284926263978,12.612911880359418,0.6947739439653671,21.392240252182606
141.0,48.10824729854266,12.347491258862025,0.6962289097456876,21.41344717226576
142.0,52.7520873031997,12.151280770878675,0.6976907208474813,21.43485394927928
143.0,57.384504657552526,12.031475098496378,0.6991588252098608,21.45645497414309
144.0,61.92585088586182,11.995912826617065,0.7006326732077719,21.478244572631045
145.0,66.28782738998588,12.05299869184553,0.7021117179706762,21.500217005785526
146.0,70.37535380723028,12.211591122387013,0.7035954156583114,21.522366471141048
147.0,74.08947659878267,12.480877354723516,0.7050832257635865,21.544687103343996
148.0,77.33124140088768,12.87021229064335,0.7065746113822959,21.567172975204535
149.0,80.0069299604055,13.388940717734862,0.7080690394884386,21.589818098622604
150.0,82.03416495811548,14.046179086842596,0.7095659812032541,21.612616425447726
151.0,83.34853407137186,14.850575475797232,0.7110649120394237,21.635561848671582
152.0,83.90967946971641,15.810018809822125,0.7125653121637405,21.65864820322606
153.0,83.70557422179894,16.93131642624192,0.7140666666331088,21.68186926712471
154.0,82.75373146133153,18.21981548483565,0.7155684656271379,21.70521876251583
155.0,81.09876609072587,19.67898220494876,0.7170702046701349,21.728690356820533
156.0,78.80657214385953,21.30993131519858,0.7185713848098405,21.75227766409445
157.0,75.95640065953684,23.11089032794156,0.7200715128873986,21.775974245666433
158.0,72.6322238977363,25.076672418741865,0.7215701016826995,21.799773611787767
159.0,68.91566499650834,27.19811224150573,0.7230666701033219,21.8236692227735
160.0,64.88136901164461,29.461502028595795,0.724560743397359,21.847654490018254
161.0,60.59545327724878,31.84813389181089,0.7260518532720766,21.871722777642145
162.0,56.11633756159111,34.33388603036804,0.7275395380714091,21.895867403631897
163.0,51.49712029148184,36.888950042377274,0.729023342945173,21.920081641097177
164.0,46.788503410544244,39.477792546666876,0.7305028199377946,21.94435871995439
165.0,42.041398063895,42.05927475572143,0.7319775281587378,21.968691828077947
166.0,37.30880411737745,44.58710000319277,0.7334470338842812,21.993074112884642
167.0,32.64673167962919,47.01060765641794,0.7349109106541027,22.0174986828557
168.0,28.114144687297912,49.275978297555795,0.7363687393943951,22.041958608970535
169.0,23.77188856427923,51.32803264056123,0.7378201084862461,22.066446926346426
170.0,19.680643558876167,53.11266209332227,0.7392646138555784,22.090956635801575
171.0,15.89793036863276,54.57996933693448,0.740701859039709,22.11548070550003
172.0,12.474336152915377,55.68799747045373,0.7421314552493223,22.14001207261455
173.0,9.449323574377877,56.40671929159709,0.7435530214224574,22.164543645022164
174.0,6.847268047024154,56.72166931302634,0.7449661842620536,22.189068303059262
175.0,4.674482451721803,56.636488680550634,0.7463705782806046,22.213578901265716
176.0,2.918135924082938,56.173531930483826,0.7477658458060348,22.238068270252164
177.0,1.5474325700877571,55.37223186655259,0.7491516370120249,22.262529218493878
178.0,0.5171977989772737,54.28512363004659,0.7505276099232726,22.28695453422889
179.0,0.0,52.97224561588138,0.7518934304144923,22.31133698737539
180.0,0.0,51.49498673820737,0.7532487722018291,22.335669331484144
181.0,0.0,49.91056898049639,0.75459331682685,22.359944305726412
182.0,0.0,48.268089706460266,0.7559267536324066,22.384154636918076
183.0,0.0,46.6065327986932,0.7572487797312354,22.40829304157881
184.0,0.0,44.95461115270917,0.7585590999672389,22.43235222802649
185.0,0.0,43.33192352144585,0.7598574268704655,22.45632489850622
186.0,0.0,41.750785360914904,0.7611434806035016,22.48020375135465
187.0,0.0,40.21817519945898,0.7624169889043604,22.503981483197933
188.0,0.0,38.737446147121695,0.763677687019528,22.527650791183095
189.0,0.0,37.30964749612626,0.7649253176292584,22.551204375239433
190.0,0.0,35.93445104806219,0.766159630795745,22.574634940409542
191.0,0.0,34.610758607511144,0.7673803838430656,22.597935199142835
192.0,0.0,33.33706731619166,0.7685873412911515,22.621097873670656
193.0,0.0,32.11168702495254,0.7697802747590862,22.644115698408662
194.0,0.0,30.932860435714385,0.7709589628707064,22.66698142238624
195.0,0.0,29.798828882835306,0.772123191148936,22.689687811697024
196.0,0.0,28.70786682255077,0.7732727519152469,22.712227652000944
197.0,0.0,27.658299740394693,0.7744074441749967,22.734593751027496
198.0,0.0,26.648513278636173,0.7755270735073154,22.756778941131905
199.0,0.16416076442124114,25.676958061966076,0.7766314519471946,22.778776081863985
200.0,0.5797564563885096,24.742152937936734,0.7777203978661039,22.800578062569958
201.0,1.0782415546069701,23.842688237770663,0.7787937358495335,22.822177805020427
202.0,1.6718966597670675,22.97723007958569,0.7798512965715326,22.843568266059982
203.0,2.3738577195185724,22.144526634352506,0.7808929166675098,22.86474244028456
204.0,3.198009273666792,21.34341697249878,0.7819184386041049,22.88569336273681
205.0,4.158843720879375,20.57284284244843,0.7829277105468517,22.90641411161742
206.0,5.271284554262586,19.831863873145718,0.7839205862298784,22.926897811050278
207.0,6.550467693214597,19.119676082150455,0.7848969248169851,22.947137633802456
208.0,8.0114776162656,18.43563438044001,0.7858565907690996,22.967126804087396
209.0,9.669032228205914,17.779279128456782,0.78679945370631,22.98685860034612
210.0,11.537109910625274,17.15036708800479,0.7877253882700724,23.00632635804946
211.0,13.628507360541601,16.54890708677839,0.7886342739899559,23.025523472580158
212.0,15.954325686763918,15.975198336369544,0.7895259951317043,23.04444340186107
213.0,18.523381748511582,15.429876218442885,0.7904004405825102,23.063079669561155
214.0,21.341536803272447,14.913955104711064,0.7912575036844526,23.081425867489965
215.0,24.41093482215745,14.428872060833612,0.7920970820904194,23.099475658177038
216.0,27.72922210946761,13.976562487466838,0.792919077750882,23.1172227805527
217.0,31.288671028482067,13.559458584377621,0.7937233965421735,23.134661047761576
218.0,35.07519368094007,13.180567377082301,0.7945099483376491,23.151784354266432
219.0,39.067594979663504,12.843491237763333,0.7952786467677958,23.168586676595037
220.0,43.23670349281737,12.552462249516141,0.7960294091265262,23.185062077013654
221.0,47.54472533706799,12.312360872812045,0.796762156231939,23.20120470627738
222.0,51.944810590908865,12.12872442531034,0.7974768122942989,23.2170088065021
223.0,56.380859409353334,12.007736500007981,0.7981733047768262,23.23246871358807
224.0,60.78766663730238,11.956210492712424,0.7988515642863766,23.247578860604193
225.0,65.09164788415826,11.981552440108029,0.7995115244358181,23.262333780302665
226.0,69.21197316909875,12.091702921868952,0.8001531217239717,23.276728107845145
227.0,73.06257623364674,12.2950687110988,0.8007762954216799,23.290756584006726
228.0,76.55487987354594,12.60042315011939,0.8013809874390265,23.304414057199303
229.0,79.60157712226838,13.016794775870538,0.8019671422293254,23.317695487152214
230.0,82.12121341636158,13.553324963870352,0.8025347066544648,23.330595946615393
231.0,84.04349762698213,14.219099658505124,0.8030836298945256,23.343110624935417
232.0,85.31464080341276,15.022954723374124,0.8036138633250656,23.355234830050442
233.0,85.90196493087488,15.97324223637826,0.804125360418879,23.36696399129613
234.0,85.79693762264428,17.077556871838915,0.804618076649632,23.378293662433762
235.0,85.01541717891295,18.342425844034928,0.8050919693823098,23.38921952343782
236.0,83.59524402551166,19.772938548061738,0.8055469977874405,23.399737383879692
237.0,81.5910255348812,21.372343681912305,0.8059831227388042,23.40984318405794
238.0,79.06759617113276,23.14156948626433,0.8064003067390532,23.419532998691725
239.0,76.09302424461723,25.078715423808415,0.8067985138271916,23.42880303900087
240.0,72.73298272492268,27.178505399637768,0.8071777094946867,23.437649654593365
241.0,69.0472652751443,29.4317321743364,0.8075378606095277,23.446069335723543
242.0,65.08866911230918,31.82467801931433,0.8078789353473567,23.454058716043114
243.0,60.90396696540244,34.33860533515782,0.8082009031162568,23.461614574542295
244.0,56.5361720414675,36.949337279071884,0.808503734488967,23.468733837236343
245.0,52.027216746551396,39.62695311904136,0.8087874011428703,23.475413579262284
246.0,47.42045342669484,42.33563940721433,0.8090518758043944,23.481651027547407
247.0,42.762516794057646,45.03383703512221,0.8092971321879202,23.487443561924863
248.0,38.104380587248286,47.674667130854054,0.809523144949515,23.492788716784464
249.0,33.50161749310825,50.206693568692074,0.8097298896409479,23.49768418393003
250.0,29.01374145395112,52.57523659797687,0.8099173426640505,23.502127812790185
251.0,24.70277363521996,54.72418603772154,0.8100854812356718,23.50611761305488
252.0,20.630905103003343,56.598513745640005,0.8102342833526484,23.509651755868337
253.0,16.857350070152794,58.14743520507963,0.8103637277619568,23.51272857501472
254.0,13.434496093735167,59.32813613442696,0.8104737939359145,23.51534656853454
255.0,10.403705529652393,60.109719587937185,0.8105644620508246,23.51750439985921
256.0,7.791337285518583,60.47682111379392,0.8106357129706272,23.5192008989273
257.0,5.605703348051935,60.43219778526282,0.8106875282348808,23.520435063486943
258.0,3.8358366301572877,59.997462367836654,0.8107198900487754,23.521206059694652
259.0,2.452471671331437,59.21162346288936,0.8107327812837969,23.52151322327262
260.0,1.411425808729967,58.12728997798406,0.8107261854762715,23.52135606018622
261.0,0.6588249952086114,56.80516665992328,0.8107000868332697,23.52073424738883
262.0,0.13719704390468468,55.30784640163169,0.810654470242783,23.51964763339105
263.0,0.0,53.69410223175625,0.8105893212884162,23.518096238764308
264.0,0.0,52.01466872730962,0.8105046262685254,23.5160802565347
265.0,0.0,50.31001113342607,0.8104003722198739,23.51360005248251
