Time,J,A,S,tau
0.0,100.0,100.0,0.873588397072953,2.0081576662978575
1.0,89.78704613653774,88.63429970216848,0.852663920761933,1.7674631885420868
2.0,80.61613442999999,78.55939854868669,0.8399908795170683,1.6187852177809146
3.0,72.38373665614151,69.63189045031713,0.8400058687600171,1.6189227632167014
4.0,64.99478253189058,61.72211137994634,0.84003188077592,1.6191615139202824
5.0,58.36404094422209,54.71480568499285,0.8400689012844376,1.6195014311317293
6.0,52.41588334450949,48.50773576939243,0.8401169108631509,1.6199424678298997
7.0,47.08469904189369,43.010678837538286,0.8401758849628721,1.6204845686932066
8.0,42.31593260480219,38.14505100733807,0.8402457939258716,1.621127670048296
9.0,38.06719390803342,33.844421590676106,0.8403266030116563,1.6218716998154652
10.0,34.30828724824517,30.05601458564894,0.8404182724255893,1.6227165774390586
11.0,31.01850335458628,26.742705029997467,0.840520757353137,1.6236622138100418
12.0,28.17969970902242,23.884362045238497,0.8406340079841487,1.6247085111504254
13.0,25.765504199207147,21.47658419800905,0.8407579695520495,1.6258553628753991
14.0,23.72748056504454,19.523909472927414,0.840892582392499,1.6271026535736082
15.0,21.989772300495066,18.02767912379062,0.8410377819794855,1.6284502588135013
16.0,20.457843938712053,16.96986401610142,0.8411934989724063,1.6298980450089282
17.0,19.042940906512587,16.300525932901788,0.8413596592700271,1.6314458692675355
18.0,17.687927148764192,15.937836060553321,0.841536184067594,1.6330935792353871
19.0,16.37694462656454,15.783581644252479,0.8417229899156382,1.6348410129213056
20.0,15.123964293035893,15.746087744915599,0.8419199887840448,1.6366879985193028
21.0,13.952120844217507,15.757590388479294,0.8421270881261324,1.6386343542115989
22.0,12.878181286122961,15.778840262038042,0.8423441909513724,1.6406798879785447
23.0,11.907473581796356,15.79334098647155,0.8425711958906308,1.6428243973686527
24.0,11.036106170437353,15.79792119756114,0.8428079972791509,1.645067669299403
25.0,10.255328942472646,15.794945278303617,0.8430544852131999,1.6474094797514278
26.0,9.555056247565581,15.787762735242287,0.8433105456610691,1.64984959365448
27.0,8.925763147851061,15.778890911760914,0.843576060538102,1.6523877646009597
28.0,8.35918846969004,15.769701112902197,0.8438509077672482,1.655023734512389
29.0,7.848341236728172,15.760725543559277,0.844134961401346,1.6577572334861475
30.0,7.387275893131313,15.752042731283971,0.8444280916886392,1.660587979459249
31.0,6.970849221854763,15.74356462319266,0.8447301651724621,1.663515677940735
32.0,6.594520827146449,15.735188077135538,0.8450410447954101,1.6665400217762019
33.0,6.254234021591453,15.726850765293843,0.8453605899755229,1.6696606907847433
34.0,5.946343180777543,15.718535823851932,0.8456886567174522,1.6728773515058293
35.0,5.667562320133044,15.710258183018295,0.846025097720355,1.676189656946862
36.0,5.4149364333421985,15.70204951420513,0.8463697624623274,1.679597246204976
37.0,5.1858122835263405,15.693947618886805,0.8467224973071056,1.6830997441696878
38.0,4.977808915263277,15.685991036611911,0.8470831456169414,1.6866967612565322
39.0,4.788793407997639,15.67821716495584,0.8474515478508733,1.690387893054692
40.0,4.616854389275671,15.670662161570666,0.8478275416765183,1.694172720040751
41.0,4.4602788756417455,15.663361464012873,0.848210962075167,1.698050807249172
42.0,4.317530752036789,15.656350317212663,0.8486016414495446,1.7020217039489545
43.0,4.187236173630813,15.649664190277173,0.8489994097310952,1.7060849432959597
44.0,4.068161982228987,15.643338882664521,0.8494040944957848,1.7102400420629296
45.0,3.959201847438483,15.637410542792892,0.849815521070557,1.7144865002882375
46.0,3.859365544580489,15.631915706716052,0.8502335126464116,1.71882380096626
47.0,3.7677639926108766,15.626891162579764,0.8506578903888787,1.7232514097330092
48.0,3.6835980521641316,15.62237381848769,0.8510884735512126,1.7277687745734152
49.0,3.6061546835880365,15.618400913669506,0.8515250795811412,1.7323753254410834
50.0,3.534791113496574,15.615009653345137,0.8519675242379066,1.7370704740384728
51.0,3.468933321173844,15.612237448029127,0.8524156216910134,1.7418536133244373
52.0,3.4080637879616926,15.610121588266553,0.8528691846501468,1.7467241174711685
53.0,3.3517172685648964,15.6086992608904,0.8533280244629571,1.7516813414031958
54.0,3.299478457247295,15.608007792015881,0.8537919512420448,1.7567246208034
55.0,3.250975422389015,15.608084513141987,0.8542607739436453,1.7618532713014154
56.0,3.205873389806962,15.608966480846684,0.8547343004815623,1.7670665881339356
57.0,3.1638668109458004,15.6106901672695,0.8552123378788195,1.7723638470108167
58.0,3.124687918543873,15.61329256012622,0.8556946923359849,1.777744303000211
59.0,3.0880971479323804,15.616810323690114,0.8561811693090133,1.7832071890217311
60.0,3.053863168424749,15.621278282294888,0.8566715736935242,1.7887517190439648
61.0,3.0218176778432775,15.626735258531983,0.8571657098646072,1.7943770832369759
62.0,2.991769316683541,15.63321529840403,0.8576633818082091,1.8000824527102162
63.0,2.963547926338299,15.640751816491782,0.8581643931860102,1.805866975422423
64.0,2.937031237616153,15.649381598884665,0.8586685475042207,1.8117297774683778
65.0,2.912075775274238,15.659137240981558,0.8591756481289547,1.8176699635899167
66.0,2.8885636351406916,15.670051964161763,0.8596854984419509,1.8236866148273747
67.0,2.866411825253353,15.682161648793063,0.8601979019482416,1.8297787909897631
68.0,2.845513339232208,15.695497613522821,0.8607126622962963,1.8359455287274495
69.0,2.8257844704788906,15.7100916735277,0.861229583431324,1.8421858420029895
70.0,2.8071296479228165,15.72597251682967,0.8617484696183338,1.8484987225372602
71.0,2.7895150044841706,15.743175285276394,0.862269125738058,1.8548831362290756
72.0,2.7728735267580005,15.761729996762488,0.8627913570757507,1.8613380293769661
73.0,2.7571402110178105,15.781664932955271,0.8633149695840544,1.8678623230973523
74.0,2.742265136501552,15.803008151061269,0.8638397699418777,1.874454915423643
75.0,2.7282037661043805,15.825787491514914,0.8643655656306324,1.881114680930871
76.0,2.7149144430291683,15.8500299645469,0.8648921650081347,1.887840470708047
77.0,2.702360840434811,15.875762010631059,0.8654193774001505,1.894631112127019
78.0,2.6905101649954895,15.903009225820693,0.8659470131713556,1.9014854088822863
79.0,2.679330978296485,15.931796052103103,0.8664748837956018,1.9084021409462142
80.0,2.668795148434191,15.962146002038926,0.867002801937841,1.9153800644525047
81.0,2.658877844335319,15.994081756249937,0.8675305815291614,1.9224179116255165
82.0,2.6495554860526918,16.027624893479487,0.8680580378297108,1.9295143907987775
83.0,2.640807290562193,16.06279608487907,0.8685849875101798,1.936668186233496
84.0,2.6326134491976605,16.099614862533485,0.8691112487081342,1.9438779581949324
85.0,2.6249563837930583,16.138099770141487,0.8696366411092624,1.951142342721865
86.0,2.617817696115511,16.178267956141667,0.8701609859937255,1.95845995173204
87.0,2.6111840097886274,16.220135940796535,0.8706841063315249,1.9658293727258187
88.0,2.6050410386590137,16.263718852194437,0.8712058268225257,1.9732491688161091
89.0,2.599376328529696,16.309030715389046,0.8717259739688786,1.9807178785799033
90.0,2.594176166520409,16.356084020445657,0.8722443761308513,1.988234015891248
91.0,2.5894288827101843,16.40489014348159,0.8727608635968301,1.9957960697711117
92.0,2.5851235244904243,16.45545918477876,0.8732752686394506,2.003402504217483
93.0,2.581249433260991,16.50779990352821,0.8737874255745992,2.011051757989447
94.0,2.5777960460603544,16.561919647371738,0.8742971708237621,2.0187422443192076
95.0,2.5747535236144463,16.617824405488093,0.8748043429772016,2.026472350606971
96.0,2.572112441277247,16.675518743047157,0.8753087828480555,2.0342404381452304
97.0,2.5698636079868327,16.735005747318535,0.8758103335300041,2.042044841757694
98.0,2.567998010331419,16.796286990630104,0.8763088404556876,2.0498838693859143
99.0,2.5665063850472682,16.859362442842762,0.8768041514561513,2.057755801601452
100.0,2.565379889744297,16.924230525776135,0.8772961168245924,2.0656588910548255
101.0,2.5646098400174338,16.990888049256043,0.8777845893694914,2.0735913619563724
102.0,2.564187567497112,17.05933016025403,0.8782694244714929,2.0815514094606535
103.0,2.5641044166932585,17.12955030838164,0.8787504801430689,2.089537198964209
104.0,2.5643515136786137,17.201540181717572,0.8792276170859451,2.097546865359326
105.0,2.5649198639822743,17.275289683050193,0.8797006987542818,2.105578512169048
106.0,2.565800548597824,17.350786919736056,0.8801695914135131,2.113630210667624
107.0,2.566984613171294,17.428018156793843,0.8806341641960218,2.1216999989606444
108.0,2.5684629327051565,17.506967762973538,0.8810942891620284,2.1297858809356853
109.0,2.5702262007471512,17.587618175413713,0.8815498413568881,2.13788582519083
110.0,2.5722650181300475,17.6699498745966,0.882000698874492,2.1459977638231456
111.0,2.574569659185281,17.753941321211126,0.8824467429128157,2.154119591231998
112.0,2.5771304065067913,17.839568963442925,0.8828878578385791,2.1622491627592515
113.0,2.5799370703420363,17.926807143930112,0.8833239312415402,2.1703842933636293
114.0,2.5829795653419563,18.015628139177007,0.8837548539989283,2.178522756133356
115.0,2.586247253984424,18.106002046613867,0.8841805203291551,2.1866622808322544
116.0,2.5897296839482213,18.197896846015773,0.8846008278545366,2.194800552308852
117.0,2.5934157042744017,18.29127826182571,0.8850156776533874,2.202935208938745
118.0,2.5972944571716448,18.38610985737219,0.885424974322483,2.2110638409256516
119.0,2.6013542828006053,18.482352877347562,0.8858286260238742,2.2191839887084637
120.0,2.6055839787980526,18.579966373029244,0.886226544552231,2.2272931410947265
121.0,2.609972302775561,18.678907113993667,0.8866186453896338,2.2353887334711504
122.0,2.6145065102453757,18.779129424568715,0.8870048477144493,2.2434681466603528
123.0,2.619173464998848,18.88058526742778,0.8873850744838278,2.251528704724763
124.0,2.6239615343203844,18.98322444939518,0.887759252497341,2.2595676730003103
125.0,2.628857859229676,19.086994324100345,0.8881273124023374,2.2675822569408863
126.0,2.6338495182970623,19.191839909180015,0.888489188752556,2.27556960021536
127.0,2.6389233190653867,19.297703843371604,0.8888448200339699,2.2835267833000206
128.0,2.6440658341316006,19.404526401232975,0.8891941486936371,2.291450822053703
129.0,2.649263451605323,19.512245493184054,0.8895371211744733,2.299338666217991
130.0,2.6545024397317225,19.620796687658366,0.8898736879287745,2.3071871983111114
131.0,2.6597688095830936,19.730113202977332,0.8902038034415476,2.314993232409616
132.0,2.665048521914969,19.840125950821385,0.890527426235713,2.3227535133008828
133.0,2.6703272898399883,19.95076353128244,0.8908445188783015,2.3304647157056038
134.0,2.675590798094814,20.06195228523388,0.8911550479772431,2.338123443744769
135.0,2.680824542100266,20.173616304011414,0.8914589841702099,2.3457262306693636
136.0,2.6860139983941584,20.285677484849696,0.891756302109701,2.353269538758414
137.0,2.691144526856416,20.398055558999655,0.892046980435052,2.3607497596079385
138.0,2.6962014967888317,20.510668151499544,0.8923310017433617,2.368163214561626
139.0,2.701170198902213,20.62343082274192,0.8926083525416243,2.3755061556888077
140.0,2.706035971409918,20.736257138221962,0.8928790232024438,2.382774766821956
141.0,2.7107841720082977,20.849058727236034,0.8931430079008916,2.3899651651902527
142.0,2.715400225615897,20.96174535702698,0.8934003045471616,2.397073403283105
143.0,2.7198696496466224,21.07422500798589,0.8936509147086223,2.4040954711783598
144.0,2.7241780740112596,21.186403957549796,0.8938948435185365,2.4110272993094792
145.0,2.7283112715366893,21.298186867407384,0.8941320995805756,2.417864761586228
146.0,2.732255196355263,21.409476881236692,0.8943626948568145,2.4246036790530847
147.0,2.7359960095347766,21.520175723443305,0.8945866445521352,2.4312398238934936
148.0,2.739520198276951,21.630183815231046,0.894803966988493,2.4377689239205442
149.0,2.7428144590322026,21.739400370162834,0.8950146834679211,2.444186667519043
150.0,2.745865795995918,21.847723522579866,0.8952188181203447,2.450488709162611
151.0,2.748661551133255,21.95505045175025,0.8954163977455404,2.456670675314496
152.0,2.7511983947365093,22.06127860248837,0.8956074514346059,2.462728172264651
153.0,2.7534623393499826,22.166303291323175,0.8957920112751203,2.4686567884600543
154.0,2.755421737452092,22.270017364787442,0.895970110873518,2.474452104840434
155.0,2.7570761256930703,22.37231656707399,0.8961417858395535,2.4801097049555043
156.0,2.7584241666245934,22.47309630725144,0.8963070736852681,2.4856251779106273
157.0,2.7594665688262605,22.572252416169913,0.8964660135561605,2.490994132964759
158.0,2.760165767348835,22.669676229447735,0.8966186459331955,2.4962122064598673
159.0,2.760513933243057,22.765262403057395,0.8967650120949412,2.5012750594226207
160.0,2.7605172572717684,22.8589073694809,0.8969051545528828,2.506178404487181
161.0,2.7601877396899726,22.95050919070337,0.8970391164411406,2.5109180022187423
162.0,2.7594930700951186,23.039961733609537,0.897166941258267,2.5154897016703535
163.0,2.7584238056829697,23.127161572412934,0.8972886727173042,2.5198893794558543
164.0,2.7569984165964025,23.212009926626184,0.8974043545728869,2.52411304455558
165.0,2.75517779543059,23.29440255076514,0.8975140301854213,2.5281567763820947
166.0,2.752995651654457,23.37424470605124,0.8976177427891574,2.5320167433268743
167.0,2.75042637076621,23.451437235467058,0.8977155343082202,2.5356892867576
168.0,2.7474665606319904,23.52588416542749,0.8978074464474245,2.5391707913618498
169.0,2.744140349642962,23.597495761188604,0.8978935191693921,2.542457857596572
170.0,2.7404082344492,23.666176460732167,0.897973791211767,2.54554718976929
171.0,2.7363145002029876,23.7318424822807,0.8980483002427735,2.5484356305112
172.0,2.731832656648513,23.79440546228629,0.8981170810255917,2.5511202650040508
173.0,2.726966839797586,23.853781583944627,0.8981801677562954,2.5535982399975374
174.0,2.721745818719512,23.90989450103091,0.8982375912536963,2.5558669967108405
175.0,2.716131390837789,23.962662062616698,0.8982893805033283,2.5579241052133317
176.0,2.7101776009768996,24.012016009193744,0.8983355625307919,2.5597673218017976
177.0,2.7038574215364948,24.057883340027864,0.8983761602593795,2.5613946985629674
178.0,2.6971833805751895,24.10019706875271,0.8984111957611424,2.5628043652519192
179.0,2.690187349047412,24.13889855113612,0.8984406864754573,2.563994808316764
180.0,2.682833761358414,24.173923567153036,0.8984646476768927,2.564964656392983
181.0,2.6751849392956997,24.205223592480607,0.8984830919857781,2.5657127634984502
182.0,2.667213510059094,24.232745139739063,0.8984960272669753,2.5662383083034244
183.0,2.658940601827682,24.25644222326217,0.8985034603504943,2.5665405590161554
184.0,2.650399384633299,24.276277608219335,0.8985053927538396,2.566619175941444
185.0,2.6415578946644045,24.292208896633724,0.8985018237893095,2.566473961962834
186.0,2.6324846764432843,24.304210755413468,0.8984927497508395,2.566104968803553
187.0,2.6231520774583217,24.312252587324554,0.8984781621370755,2.5655125731258064
188.0,2.6135893655528637,24.316312711984676,0.8984580513607907,2.564697246943551
189.0,2.603829055318619,24.31637807267634,0.8984324025382983,2.563659856456143
190.0,2.5938433602318196,24.312431021774564,0.8984011988048529,2.562401398777528
191.0,2.583704535582737,24.304471786647483,0.8983644203396605,2.560923122658687
192.0,2.5733846804852014,24.292494958641832,0.8983220430785667,2.5592265741246485
193.0,2.5629199996945875,24.27650526618085,0.8982740419736523,2.557313393137971
194.0,2.5523405256222493,24.256515389124626,0.8982203874110969,2.5551855815931077
195.0,2.5416228351646875,24.23253410220806,0.8981610482238,2.552845251356675
196.0,2.5308400970026708,24.204588204342276,0.8980959908132815,2.5502947463938535
197.0,2.5199643182081393,24.172698460073406,0.898025178373942,2.5475366576097986
198.0,2.5090366104184234,24.13689663412063,0.897948573376514,2.5445736609291005
199.0,2.498083205807139,24.097221316800322,0.8978661350801667,2.5414087325044776
200.0,2.4870848584521696,24.05370790982367,0.897777821741767,2.538044932110233
201.0,2.476112772439267,24.00640926671754,0.8976835901383403,2.5344855119271186
202.0,2.465139147865367,23.9553718430275,0.8975833951892872,2.530733906737672
203.0,2.4542076130884527,23.900653487601446,0.8974771914980098,2.5267936205813832
204.0,2.4433396514701005,23.842317373905587,0.8973649322466568,2.5226683764508255
205.0,2.432519839042086,23.78042419364217,0.8972465702089809,2.518361953144614
206.0,2.4218146619870087,23.71505077030788,0.8971220579544167,2.5138782676830926
207.0,2.411197009997705,23.64626728285148,0.8969913476589504,2.509221351317247
208.0,2.400710479841537,23.574155132585304,0.8968543917075037,2.5043952836772054
209.0,2.3903713264117763,23.498799294331576,0.8967111430494032,2.499404274814106
210.0,2.3801579912356114,23.420282014749123,0.8965615548538514,2.4942525674232217
211.0,2.3701143619685623,23.33869823910203,0.8964055813667177,2.4889444753130903
212.0,2.360260206324528,23.254143662509804,0.8962431778674225,2.483484362847398
213.0,2.3506092690441003,23.16671736593174,0.8960743009105063,2.4778766323638517
214.0,2.3411756022799,23.076521416694362,0.8958989085724398,2.47212571593751
215.0,2.3319726707771,22.98366085556963,0.895716960671177,2.4662360662223928
216.0,2.323013470849524,22.888243565401577,0.8955284189790071,2.460212147631772
217.0,2.3143105179850423,22.79038009324404,0.8953332474288606,2.4540584279029685
218.0,2.3058756593151193,22.690183422194053,0.895131412311017,2.447779370064892
219.0,2.2977201996312937,22.58776876661256,0.8949228824638824,2.4413794248438543
220.0,2.289854770574323,22.483253322028922,0.894707629452217,2.434863023525611
221.0,2.2822893955718704,22.37675603837359,0.8944856277400585,2.428234571261966
222.0,2.2750334549880233,22.268397372754077,0.894256854849132,2.421498440888594
223.0,2.2680956805432917,22.158299047403762,0.8940212915119039,2.414658967173784
224.0,2.2614841883443573,22.04658380913099,0.89377892180969,2.4077204416079954
225.0,2.255206440703603,21.933375180881438,0.8935297333042843,2.400687107616795
226.0,2.249269353705335,21.818797231875013,0.8932737171570171,2.3935631562913144
227.0,2.2436791389783095,21.702974314963868,0.8930108682406508,2.3863527225036987
228.0,2.238441394512769,21.586030837647566,0.8927411852351637,2.3790598815961883
229.0,2.233561106753993,21.46809102448198,0.8924646707147087,2.371688646487082
230.0,2.2290426765665896,21.349278686454973,0.8921813312254452,2.3642429651930654
231.0,2.224889928683672,21.22971699214569,0.8918911773522455,2.3567267187818577
232.0,2.221106127968908,21.10952824465753,0.8915942237765533,2.349143719705807
233.0,2.2176940055342254,20.988833664764055,0.8912904893241614,2.341497710523456
234.0,2.214655754929486,20.867753175405106,0.8909799970078646,2.333792362901944
235.0,2.2119930373415464,20.746405196696355,0.8906627740556581,2.326031277045538
236.0,2.2097070278789985,20.624906452588508,0.8903388519295996,2.3182179814596506
237.0,2.207798434765587,20.50337178254171,0.8900082663383165,2.3103559329667775
238.0,2.206267523229536,20.381913961800898,0.8896710572432014,2.302448516962873
239.0,2.205114131821707,20.260643530442934,0.8893272688553393,2.2944990479471388
240.0,2.2043377044289674,20.139668633589384,0.8889769496281293,2.2865107702254
241.0,2.2039372595789346,20.019094861989856,0.88862015224112,2.278486858847635
242.0,2.203911481795789,19.899025121503694,0.8882569335822771,2.2704304206432195
243.0,2.204258718999274,19.779559500412898,0.887887354718149,2.2623444955151766
244.0,2.2049770271036966,19.660795155706683,0.8875114808607829,2.2542320578281374
245.0,2.206064166916335,19.542826200230405,0.8871293813328316,2.2460960178585276
246.0,2.207517637137518,19.425743610599795,0.8867411295244765,2.2379392233919617
247.0,2.209334708497671,19.309635141865158,0.8863468028522954,2.2297644613022363
248.0,2.2115124019605825,19.194585250750357,0.8859464827072936,2.221574459290704
