Time,J,A,S,tau
0.0,100.0,10.0,0.7138645119099156,14.451565618514815
1.0,95.91723751102845,12.642556107120315,0.7106197286725914,13.904922622972762
2.0,91.2899441968557,15.167746987142573,0.7071200183066224,13.331884884456002
3.0,86.152718868188,17.574649200123954,0.703360586306496,12.732435702496941
4.0,80.61340769706628,19.862916161329327,0.6993367116461131,12.106476869094575
5.0,74.79948754634027,22.03244513810118,0.6950443396971631,11.453914826601116
6.0,68.83050737959354,24.08336836577679,0.6904801053814008,10.774661646913845
7.0,62.80698036269946,26.01605986687551,0.6856413610615301,10.068636002303716
8.0,56.80819018157952,27.831123021023586,0.6805261986201478,9.335764073176925
9.0,51.11707220874453,29.307771306028947,0.6759577990166228,8.724242184415976
10.0,46.57831688785368,29.6784077471748,0.6738986635667257,8.575888440913559
11.0,42.72019627108995,29.465620129241714,0.671841379830867,8.432367150337
12.0,39.48028686051421,28.761110967409905,0.6697883110627377,8.293480030279877
13.0,36.74780062830335,27.697585934553242,0.6677416441852705,8.159044778173492
14.0,34.41442237222706,26.400252544092478,0.6657034092735145,8.02889312015096
15.0,32.3934688648623,24.96960906155794,0.6636754962969073,7.902869149016469
16.0,30.623342495085755,23.47938313977099,0.6616596698991524,7.780827898602106
17.0,29.061038905363297,21.983900461594956,0.6596575823639207,7.662634123903399
18.0,27.664673490613453,20.535001411175564,0.6576707849365265,7.548161236418644
19.0,26.419980516147582,19.15526950536919,0.6557007377034867,7.437290421384827
20.0,25.322009708962618,17.85675926423646,0.6537488186685454,7.329909852471689
21.0,24.367979270509558,16.647474799846947,0.6518163312197214,7.225913995465534
22.0,23.55402240551182,15.533694910176768,0.6499045109003323,7.125203057586818
23.0,22.87271082120965,14.521237161668813,0.6480145313783019,7.0276824551284856
24.0,22.311286885251985,13.616036614969893,0.6461475097350848,6.933262382375769
25.0,21.851244956410024,12.823571092138486,0.6443045111405236,6.841857405691153
26.0,21.468426402240414,12.14836973752598,0.6424865526347827,6.753386137142115
27.0,21.133476446844387,11.594004080653113,0.6406946068881095,6.667770956832217
28.0,20.813543021975995,11.162371262521662,0.6389296053601089,6.584937717322782
29.0,20.47510510813674,10.852771922986378,0.6371924409667977,6.504815543680425
30.0,20.08727333503014,10.660908336639741,0.6354839705776593,6.427336606634364
31.0,19.62539855856808,10.578009036528812,0.6338050171524101,6.352435955324805
32.0,19.073960800057822,10.590436483304597,0.6321563714996833,6.280051348457073
33.0,18.428495879858026,10.679982705071346,0.6305387941036746,6.210123108038796
34.0,17.696113037825057,10.824761946570472,0.6289530164048616,6.142593995194986
35.0,16.89444327141848,11.000761237859,0.6273997421413913,6.077409085970255
36.0,16.049231194073613,11.183809015141424,0.6258796484761185,6.0145156690836785
37.0,15.19089819452982,11.351699111840361,0.6243933869645877,5.953863148467104
38.0,14.35073400548124,11.486153889455421,0.6229415844149666,5.895402955617778
39.0,13.557362912580414,11.574316351387775,0.6215248436361229,5.839088469525227
40.0,12.834007567286639,11.609546533376458,0.6201437441030253,5.784874941985238
41.0,12.196822820927677,11.591417739666136,0.6187988425241786,5.732719431002064
42.0,11.654353883951057,11.52493291241746,0.6174906734096091,5.682580735713101
43.0,11.207926555768982,11.41920402083875,0.616219749437257,5.634419343326238
44.0,10.8527058362157,11.285845806392246,0.6149865618725869,5.588197372726965
45.0,10.579074201590887,11.13741403435411,0.6137915809660495,5.543878517807749
46.0,10.374033748963843,10.986057535519896,0.6126352561280922,5.501428012735077
47.0,10.222666229869489,10.842495127597912,0.6115180163432454,5.460812576994973
48.0,10.109470920734573,10.715299744692052,0.6104402702722149,5.4220003825189504
49.0,10.019624679777284,10.610502811234534,0.6094024065410373,5.384961009295567
50.0,9.94001694922028,10.531440019457897,0.60840479388046,5.349665411976355
51.0,9.860122671952603,10.478845212020012,0.6074477812721856,5.316085885046786
52.0,9.7724705518669,10.451137472424065,0.6065316981748655,5.284196027249249
53.0,9.672905598828075,10.444873669722533,0.6056568544660419,5.2539707191555385
54.0,9.560374694551891,10.4553322751763,0.6048235407025233,5.225386084819615
55.0,9.43645643741358,10.477133359003806,0.6040320281813196,5.198419467962957
56.0,9.304689335883374,10.504856814291896,0.6032825690252126,5.173049405620766
57.0,9.169783923704568,10.533583681173834,0.6025753962368326,5.149255605053956
58.0,9.036830066760402,10.55930679415251,0.6019107237501149,5.127018919416837
59.0,8.910604606869196,10.5791772258754,0.6012887465230101,5.106321324346474
60.0,8.795051775228949,10.591585908649389,0.6007096406254788,5.087145896243354
61.0,8.692954468194447,10.59609812161456,0.6001735632770038,5.069476793141419
62.0,8.605807759449212,10.593269509358908,0.5996806530186425,5.053299231927759
63.0,8.533811226320399,10.584391605504793,0.5992310289587933,5.038599492106525
64.0,8.476131087350087,10.571190160369031,0.598824792057151,5.025364861962801
65.0,8.43109264160604,10.555563075363999,0.598462024272303,5.0135836356617585
66.0,8.396508680667482,10.539342237708555,0.5981427891229328,5.003245116971728
67.0,8.36995001915371,10.52410401099736,0.597867131352443,4.9943395853108115
68.0,8.349012432514439,10.51105594133036,0.5976350771039243,4.986858286596807
69.0,8.331521762946801,10.500985487496328,0.5974466339431879,4.98079341985054
70.0,8.315674644126592,10.49426317059362,0.597301790953815,4.97613812358817
71.0,8.300121929196314,10.490887499659248,0.5972005186451467,4.972886467124756
72.0,8.283982465963414,10.490561974908829,0.5971427690119407,4.9710334425062
73.0,8.266790970233014,10.4927881868448,0.5971284767771727,4.9705749211333385
74.0,8.248529206828254,10.496956531255123,0.5971575549684734,4.9715077226657804
75.0,8.229370961911247,10.502433694238372,0.597229901900455,4.973829512726543
76.0,8.209728390664116,10.508627773709746,0.5973453951714203,4.977538821747892
77.0,8.19007097701818,10.515049995007596,0.5975038946728595,4.982635128142289
78.0,8.170908682335751,10.521322856835646,0.5977052434274656,4.989118653872016
79.0,8.15268076718963,10.527222331662127,0.597949263229921,4.996990600802101
80.0,8.135768711462646,10.53264371412537,0.5982357612253918,5.006252927171908
81.0,8.120424455964567,10.537600750566941,0.5985645239563833,5.01690845185906
82.0,8.106808812201267,10.542205769275109,0.5989353212637678,5.028960902183232
83.0,8.094951407350317,10.546621482696839,0.5993479026794509,5.042414705235513
84.0,8.084836042731817,10.551061864034828,0.5998020056263091,5.057275197008752
85.0,8.07636960391742,10.55573995358887,0.6002973368863868,5.0735486724782675
86.0,8.06941902648624,10.560873180782057,0.6008336008914623,5.0912417821065095
87.0,8.063863597060228,10.566656154494858,0.6014104736812513,5.110362577571832
88.0,8.059629780042428,10.573257136948236,0.6020276140693555,5.130919520936657
89.0,8.056563577241267,10.580817379200024,0.6026846729677494,5.152921885026855
90.0,8.054680949898746,10.589440885810836,0.6033812684494615,5.176380107223063
91.0,8.05399305004019,10.599219597059035,0.6041170130453215,5.201304885304881
92.0,8.054496456900617,10.610212169128808,0.6048914973274182,5.227708157013075
93.0,8.056345288624469,10.622477515979853,0.6057042930705094,5.25560242397424
94.0,8.059603110681993,10.636057172412851,0.60655495945611,5.285001008270293
95.0,8.064509900742575,10.651009095646092,0.6074430305906257,5.3159181546762735
96.0,8.071207379777139,10.667382112888536,0.6083680328129452,5.348368608121524
97.0,8.079945051603442,10.685251367442852,0.6093294652972768,5.382368285109479
98.0,8.090980236642416,10.704698884109696,0.6103268181558693,5.417933489246499
99.0,8.104523044622312,10.725821320919113,0.6113595593373099,5.455081621491102
100.0,8.120840997075437,10.748733416298059,0.6124271435018015,5.493830625929542
101.0,8.140180651289914,10.773566567240213,0.6135290043299569,5.534199449912693
102.0,8.162810111839704,10.800465749748973,0.6146645628354086,5.576207594246908
103.0,8.188990905302933,10.829591344196102,0.6158332186234293,5.619875577183566
104.0,8.218987701414255,10.8611119056641,0.6170343590803583,5.6652244613616425
105.0,8.253083012008563,10.895211112476415,0.6182673499633667,5.7122763406298285
106.0,8.291539253933118,10.932075091481044,0.6195315449468894,5.761053848343142
107.0,8.334669826061567,10.971904969312089,0.6208262760696729,5.8115806638751275
108.0,8.38274182473061,11.014898551618309,0.6221508630748461,5.8638810062914795
109.0,8.436109420702556,11.061270779211222,0.6235046042477603,5.917980157427665
110.0,8.495052254251934,11.11122806040815,0.6248867850132335,5.973903944897738
111.0,8.559974832397716,11.164998017583986,0.6262966696230509,6.031679280901666
112.0,8.631203549499512,11.222798653324862,0.6277335084991533,6.091333661127197
113.0,8.709157450101024,11.284864683934392,0.6291965321286661,6.152895593486662
114.0,8.794189610389726,11.35142311854436,0.6306849534747992,6.216394344653501
115.0,8.886780973537336,11.42272315572131,0.6321979688476278,6.281860070489902
116.0,8.987361394974236,11.499009569191267,0.6337347534890135,6.349323870914031
117.0,9.096401270899596,11.580537133717408,0.6352944664185017,6.418817632564486
118.0,9.214450282060888,11.66757551640017,0.6368762451482284,6.4903743408942445
119.0,9.341981994386753,11.760388400829077,0.6384792076428972,6.564027800573034
120.0,9.479626142326556,11.859266511025758,0.6401024523768144,6.639812912468996
121.0,9.627926065372328,11.964494160328286,0.641745053368965,6.7177656174393965
122.0,9.78752112064022,12.076373542291302,0.6434060657526768,6.797922852568511
123.0,9.959087399521794,12.195218473330833,0.6450845176865343,6.88032288147018
124.0,10.14325635736377,12.321340731404046,0.646779414393274,6.965004968252295
125.0,10.340823791098224,12.455081419034908,0.648489735275755,7.052009844057846
126.0,10.552477828999056,12.596771109483994,0.6502144293019011,7.141379514864084
127.0,10.779055855674573,12.746766418928715,0.6519524204646359,7.233157407685354
128.0,11.021380663881912,12.905427004891086,0.6537025960542239,7.327388700089323
129.0,11.280278643559043,13.073116439218934,0.6554638139193077,7.424119983203641
130.0,11.556725219901553,13.250224540271745,0.6572348938547476,7.523399993924407
131.0,11.85158415839809,13.437127708169953,0.6590146155015666,7.625279238612321
132.0,12.165902726513968,13.634232279673945,0.6608017210755411,7.729810459138276
133.0,12.500663084477509,13.841937377092634,0.662594900476125,7.837048940930379
134.0,12.8569012063341,14.060651763218656,0.6643928020286023,7.947052213060057
135.0,13.235754910697587,14.290800025594772,0.6661940147411082,8.05988118196482
136.0,13.638261102317047,14.532792632662494,0.667997072230389,8.175599474113595
137.0,14.065637948007856,14.787065555716058,0.6698004477654419,8.294274474620325
138.0,14.518986351364994,15.054036515494586,0.6716025388240922,8.415977522555231
139.0,14.99949739376608,15.334133541446661,0.6734016796306718,8.54078379485128
140.0,15.508371478284705,15.627782626965496,0.6751961114769452,8.66877399180494
141.0,16.046727522440715,15.935391564488027,0.6769839968200377,8.800033265224409
142.0,16.615800756640095,16.257380206526133,0.678763399353584,8.934653276403665
143.0,17.21665787670227,16.594132438104797,0.6805322739381671,9.07273200911309
144.0,17.850439647183528,16.946035292214244,0.6822884754168234,9.214374225575726
145.0,18.518168208135915,17.313442945572888,0.6840297179109472,9.359693745842348
146.0,19.220780713586343,17.696682287413584,0.6857536014701563,9.508811859076364
147.0,19.959191882061255,18.09605974620168,0.6874575694961577,9.661861063604402
148.0,20.73409040428286,18.511822882856578,0.6891389136691987,9.818983921449872
149.0,21.54612918470604,18.94419343944451,0.6907947716159563,9.980334584462081
150.0,22.395691585660824,19.39331620004143,0.6924220707994412,10.146082452831608
151.0,23.283081358276306,19.85929997605294,0.6940176005855905,10.316407575844359
152.0,24.208222593750893,20.34214087759598,0.695577870053123,10.491511746188884
153.0,25.17103326033195,20.841817006522973,0.6970992538468167,10.671608864366151
154.0,26.170856349277443,21.358132351316407,0.6985778402544468,10.856934152654974
155.0,27.206938693834065,21.890850218838974,0.7000094696039996,11.047747913664056
156.0,28.278148691018757,22.439601952907694,0.7013898013641117,11.244323843065034
157.0,29.382901518655345,23.00386476997709,0.7027141522652629,11.44696844491534
158.0,30.51929472185853,23.582990121370184,0.7039776190330745,11.656008743977836
159.0,31.68500081104473,24.176178937782897,0.7051749938806731,11.871804397744228
160.0,32.877282027194376,24.782459109855466,0.7063008074884627,12.094741684628515
161.0,34.09298967802436,25.400693614050954,0.7073493175487994,12.325238460375122
162.0,35.32851547161437,26.02954465646414,0.7083144933601733,12.563747797958632
163.0,36.57986869527533,26.6674897452338,0.709190062480661,12.810754336275782
164.0,37.84265376273704,27.312811243925072,0.7099695128535344,13.066778213935113
165.0,39.11208748678795,27.96357392823176,0.7106461084999695,13.3323765577914
166.0,40.383086855236535,28.617654629429154,0.7112129485113767,13.608138804053459
167.0,41.65026576372767,29.272727558129123,0.7116629945316018,13.894690550499654
168.0,42.90802425103804,29.926270772828858,0.7119891314251696,14.192690255207602
169.0,44.1506190361175,30.575601555295265,0.7121842313480629,14.502824311732613
170.0,45.37222060305984,31.217872455446606,0.7122412382468525,14.82580789994571
171.0,46.56703013193043,31.8501077132506,0.7121532572081218,15.162376606429484
172.0,47.7293333414712,32.46924008375089,0.7119136278232955,15.513281422207662
173.0,48.85362679270464,33.0721368530265,0.7115160878549505,15.879282871875512
174.0,49.93469796751179,33.65565239801901,0.7109548490585137,16.261139885626157
175.0,50.967684347453,34.21666646568609,0.710224698563239,16.659603512800572
176.0,51.9482266147884,34.75214659851276,0.7093212210311295,17.07540245161048
177.0,52.87247045512718,35.25919090786426,0.7082408122912495,17.5092338251333
178.0,53.737145654322376,35.73507661287073,0.7069808287654374,17.961752986612225
179.0,54.5396697742866,36.17733809148478,0.7055397861225482,18.433553979620612
180.0,55.27808127408531,36.583778266827096,0.7039172900062758,18.92516640031521
181.0,55.95111433213262,36.952525952299915,0.7021142022348924,19.43704088817174
182.0,56.558241446778226,37.28211125511342,0.7001327917287791,19.969527718617552
183.0,57.09947659443439,37.57137986828218,0.6979763937733666,20.52289732299994
184.0,57.57563576386274,37.81969513579297,0.6956500054016759,21.097284336316235
185.0,57.9879138414735,38.026694153087554,0.6931594487434631,21.69275017611889
186.0,58.33821990388022,38.19257234193334,0.6905121712589717,22.30920071296113
187.0,58.628745652805314,38.31776433479613,0.6877162898165483,22.946473588081577
188.0,58.86219224136254,38.40320864686023,0.6847812113766675,23.604255728431884
189.0,59.04147882868469,38.45006096591058,0.6817168977569047,24.282166887033632
190.0,59.169807501654574,38.459861287137485,0.6785341186455068,24.979701178795217
191.0,59.25052034152751,38.43433531389912,0.6752440283809642,25.696288670301172
192.0,59.28705447956927,38.37544892825029,0.671858107822035,26.431270908733477
193.0,59.28288697553493,38.285303023644424,0.6683879653299145,27.183934576800297
194.0,58.727409541588784,36.42150804609822,0.6648451791524358,27.953511772683008
195.0,57.630889821273634,32.87491617464122,0.6612411476502373,28.739197751043548
196.0,56.59809003246629,29.693876614887007,0.6575869563431924,29.540162272673257
197.0,55.6251285898059,26.837926072140124,0.6538932659707558,30.3555611293928
198.0,54.70823002690943,24.27147597106627,0.6501702171555969,31.184546734623353
199.0,53.843747650945794,21.963149402344126,0.6464273574681103,32.026277622203345
200.0,53.028181513761695,19.885266041702295,0.6426735880338496,32.87992665816754
201.0,52.25819252921265,18.01337857258325,0.6389171254549281,33.74468805657641
202.0,51.53061149461855,16.325836021795045,0.6351654839843709,34.61978299370148
203.0,50.84244455784598,14.803451102674684,0.6314254711505031,35.50446401640208
204.0,50.19087612667248,13.429200881521137,0.6277031926942072,36.39801847490266
205.0,49.57326735779988,12.187936954665167,0.6240040738275432,37.299770600468314
206.0,48.9871539217348,11.066187737893442,0.6203328823875608,38.209083023765956
207.0,48.43024065743091,10.051924699985236,0.6166937627444536,39.12535723356254
208.0,47.90039539774629,9.134421631747689,0.6130902718550985,40.04803353474077
209.0,47.395641742231795,8.304079158329946,0.6095254181456461,40.97659046300276
210.0,46.914150489407945,7.552311047671863,0.6060017040938622,41.910543634191065
211.0,46.4542317398604,6.87142016681724,0.6025211654931028,42.849444541558796
212.0,46.01432532763293,6.254500686884799,0.5990854151912,43.79287874184412
213.0,45.59299290502399,5.6953546779079565,0.5956956803311902,44.74046431434571
214.0,45.18890848066093,5.18840610835347,0.5923528433082728,45.69184976905247
215.0,44.800850762572225,4.728644986656675,0.5890574759698505,46.64671233032798
216.0,44.427694548111056,4.311554685088481,0.5858098754548023,47.604755855579434
217.0,44.06840346528105,3.933071076728001,0.5826100948694763,48.565709050592936
218.0,43.722022537971206,3.589526463217387,0.5794579732655842,49.52932356120258
219.0,43.387671641624536,3.2776173943446385,0.576353162015295,50.495372263602476
220.0,43.064538865509796,2.994357009178339,0.5732951501614705,51.46364747454507
221.0,42.75187514571655,2.737052338486896,0.5702832855760043,52.43395949148746
222.0,42.44898835019079,2.5032682212579807,0.5673167961450676,53.406134941105286
223.0,42.15523880381686,2.2908046270401883,0.5643948067697424,54.38001551834507
224.0,41.870034319862384,2.0976732903923643,0.5615163562374201,55.355456565353926
225.0,41.59282630459589,1.9220742568501756,0.5586804110433194,56.33232594287549
226.0,41.323105788863266,1.7623815736087587,0.555885878336415,57.310502873319926
227.0,41.06039995885258,1.6171212836534232,0.5531316170971163,58.28987691700641
228.0,40.80426906544146,1.4849617111563331,0.5504164479020068,59.270347055374074
229.0,40.55430335630823,1.3646950781625338,0.5477391617456332,60.25182077621913
230.0,40.310120656728465,1.2552292141871717,0.5450985273956167,61.234213344505896
231.0,40.07136373742994,1.1555740264204994,0.5424932981159792,62.21744701316727
232.0,39.83769834478653,1.0648327289202102,0.5399222172268103,63.201450422234934
233.0,39.60881103940435,0.9821929478242399,0.5373840230544203,64.18615794791477
234.0,39.38440750135986,0.9069180838090034,0.5348774530900051,65.1715091838705
235.0,39.16421086543945,0.8383413731150798,0.532401247574541,66.15744843498565
236.0,38.947960145328544,0.7758578718015559,0.5299541524781732,67.14392423979757
237.0,38.735408966639156,0.7189188327196688,0.5275349220728806,68.13088898008867
238.0,38.52632428013575,0.6670275344971758,0.5251423210303277,69.11829848987244
239.0,38.32048517777701,0.619733090736057,0.5227751260985379,70.10611169616281
240.0,38.11768193034582,0.576626579614116,0.5204321275977557,71.09429032083747
241.0,37.91771498631466,0.5373377311026429,0.5181121304972333,72.08279857717102
242.0,37.720394073173416,0.5015303197383507,0.5158139552427998,73.07160289650919
243.0,37.52553745408138,0.4688994860990391,0.5135364385403437,74.06067169591567
244.0,37.33297114484956,0.43916932901100075,0.5112784337731451,75.0499751403583
245.0,37.14252822093834,0.4120895089849325,0.5090388113102694,76.0394849295202
246.0,36.95404819629702,0.3874328948654432,0.506816458738864,77.02917410383294
247.0,36.767376448296986,0.3649938956403137,0.5046102810149727,78.0190168625284
248.0,36.582363643180145,0.3445862733370489,0.5024192004012612,79.0089883848667
249.0,36.39886523145018,0.3260415073204919,0.5002421564361814,79.99906466736897
250.0,36.21674096127326,0.3092070414761862,0.49807810580361456,80.98922236626953
