Time,J,A,S,tau
0.0,100.0,100.0,0.726787200942058,10.1010101010101
1.0,95.90364440854043,91.36722100882179,0.7298494909465143,9.641888658990375
2.0,91.9192944922426,83.51378641554848,0.7331328201681127,9.150561171459733
3.0,88.06740026187275,76.36882118232786,0.7366358385135557,8.626917414306977
4.0,84.38379328700934,69.86537260629235,0.7403537325024685,8.0710403684831
5.0,80.92498974545008,63.94308817390156,0.7442774276743696,7.483210359009546
6.0,77.76747219254766,58.54755005120214,0.7483923962789422,6.863943560089195
7.0,74.99712284939297,53.63250382681829,0.750904240236425,6.470644364312388
8.0,72.69293036498381,49.16213995066536,0.7513136670943817,6.370838216403127
9.0,70.91646028607894,45.10652128753193,0.751718024360274,6.2585758194968655
10.0,69.68321511264989,41.45527355043722,0.7522037505727901,6.117585666831048
11.0,68.95501249700912,38.215286269008864,0.7526575956442118,5.95452771093098
12.0,68.64085296263177,35.4090061539908,0.7527051049192344,5.821112227041964
13.0,68.60416598966066,33.07033607586686,0.7521946608700045,5.730241845217038
14.0,68.65817563934314,31.257801073810672,0.7511652813988335,5.66720205597156
15.0,68.56463775159116,30.067544883646246,0.749664042151792,5.622008900438077
16.0,68.17130266519246,29.510568949030972,0.7477115235805828,5.589909203538966
17.0,67.45996180194844,29.48027362663875,0.7452883423202846,5.569196930589371
18.0,66.46953888153566,29.840687369236658,0.7423411411617482,5.559850185640066
19.0,65.25675310722902,30.46857881791402,0.7388056419462983,5.562547402949746
20.0,63.88845189673887,31.257690826328496,0.7346393556715528,5.5778769362938645
21.0,62.432722768928706,32.12056393994111,0.7298702787343897,5.605505019646627
22.0,60.9444337917355,32.995608190001406,0.72462170207086,5.643873547920249
23.0,59.444971950715725,33.86091367544111,0.7190278078677483,5.691958745742468
24.0,57.89953510356896,34.752637039769326,0.7131388023587681,5.751422706615992
25.0,56.26859903907228,35.71109568017231,0.7069539712884882,5.8263739505237435
26.0,54.60289917077556,36.68471909948323,0.7004993799817755,5.920239280597891
27.0,52.96276749054877,37.60817937199783,0.6938812005543148,6.027484010499757
28.0,51.37341764432053,38.45218729128565,0.6872833116677605,6.129893491719796
29.0,49.908567590387314,39.15670514544206,0.6808384509136959,6.215226646701725
30.0,48.7198836795726,39.592604681623804,0.674506963403855,6.286060738915686
31.0,47.86714038830273,39.71540326171394,0.6676409569676135,6.359721024477294
32.0,47.60746531918258,39.27014616555219,0.6545001800091729,6.543695138749887
33.0,47.23217806261586,38.962667550188264,0.6439521585270563,6.68548755165777
34.0,46.516897702147645,39.02359864854108,0.636959101350831,6.7686494022088635
35.0,45.60338795418772,39.31172233126734,0.630340114131587,6.855681316152543
36.0,44.62131863333899,39.68229643370146,0.6238209698144807,6.952460650510828
37.0,43.64249610413374,40.02898979715389,0.6174478514152206,7.050262849783248
38.0,42.71798617179416,40.30617693518599,0.6113017267639846,7.136620307776702
39.0,41.98889138581198,40.41737576968945,0.6053754513743975,7.20835566895156
40.0,41.55561975774406,40.28381353011819,0.599371121879195,7.274461599512117
41.0,41.71881147662872,39.607998586056176,0.5866209157465522,7.468507363291381
42.0,42.031505993199026,38.82654194674898,0.5704759982394492,7.731332392101969
43.0,41.755997866173935,38.68396629533127,0.5642338819127491,7.808085445687947
44.0,41.355852716954786,38.71219137630031,0.5583990565287038,7.88485163837357
45.0,40.92212243684389,38.79908490525991,0.5526989779102502,7.966707029908414
46.0,40.49984837461371,38.85590207805084,0.5471464142905482,8.04806088674684
47.0,40.14327232194764,38.844608457440934,0.5417616317229558,8.122333168545646
48.0,39.977674326087076,38.67493484147843,0.5364971290442186,8.18834087872987
49.0,40.06388184293049,38.298605927160516,0.5307782902283485,8.260897059396491
50.0,40.907508505197214,37.203593545883216,0.5061942657483747,8.72668843660938
51.0,41.0384660303844,36.850737350955576,0.5000657221705265,8.815000405916402
52.0,40.97939524093812,36.713400343097916,0.49489672979617666,8.887975973580291
53.0,40.83468575666003,36.66562292305576,0.4899246145415852,8.96357740405574
54.0,40.650743248103694,36.62133324940328,0.48510435746537395,9.039079788366447
55.0,40.52064142122957,36.492634782218566,0.4804295305698453,9.109848703092913
56.0,40.540860791291024,36.21524270760706,0.4757981471137331,9.176391150473314
57.0,40.811649922139125,35.69807566611076,0.4696658604024284,9.279179453981314
58.0,41.47376791755812,34.791963378213,0.44505957550245095,9.800860997893988
59.0,41.52099699569078,34.50172457942922,0.4404362202538693,9.875675756426519
60.0,41.435160349197254,34.33308189087451,0.4362144763823075,9.946636538626977
61.0,41.29209491941325,34.189034876462735,0.4321767836836161,10.017282516758627
62.0,41.1409705237792,34.00059481487415,0.4282981437612228,10.084571303796647
63.0,41.061570842277185,33.72422104366588,0.4244846930950969,10.148944179719802
64.0,41.142249035615265,33.28273923344676,0.41979440214872143,10.237746490434365
65.0,41.5895243395687,32.46773280082592,0.39552705008975625,10.813763132049392
66.0,41.55037424438522,32.132590273785354,0.3918126270147847,10.884592094885159
67.0,41.42240571211875,31.87418146627435,0.38856731247125803,10.946880500298672
68.0,41.244552654043694,31.643093875996918,0.3855419043249453,11.006636674210931
69.0,41.05617725312364,31.38478993430075,0.3826957597495011,11.062961930368726
70.0,40.89287708684369,31.091496853207214,0.3799711935054003,11.11634067736257
71.0,40.78061471007647,30.747746217682497,0.3771317751679474,11.174319501448993
72.0,40.98722566696318,30.08996145717447,0.35518936527403167,11.748680617370155
73.0,40.949061482035994,29.682594436085758,0.3513947141211409,11.84583096212913
74.0,40.81572312786134,29.377872923778508,0.3491764455986323,11.894807817271507
75.0,40.658012478427835,29.104676368193264,0.3473070763925802,11.93577998427169
76.0,40.48795083986194,28.850729861771633,0.3456731399008973,11.972036918990597
77.0,40.31576905599638,28.604939599930354,0.34424695273225964,12.003968308596853
78.0,40.14523836461997,28.360345341473256,0.3430230823459852,12.031405817164949
79.0,39.9861514285623,28.121754572530012,0.3419938844022647,12.054479444468356
80.0,39.845170474426055,27.88872065705513,0.34115921887965645,12.07320352937903
81.0,39.72671597279768,27.660894837121642,0.3405222363565187,12.087547112664662
82.0,39.624660445693095,27.44733744292247,0.3400904675265508,12.097331824334075
83.0,39.536834605162284,27.253094896460336,0.3398738171562486,12.102275115857239
84.0,39.4628084380328,27.08139069523847,0.3398804332371178,12.102120014245296
85.0,39.40342219734427,26.93377277920907,0.34011204958338115,12.096822385883
86.0,39.36124007947748,26.81015533777616,0.34056381963890925,12.086534831113598
87.0,39.33927958886906,26.709757829978404,0.3412270387502446,12.071530254453249
88.0,39.340452755886766,26.631834791944787,0.34209439126991376,12.05202182588704
89.0,39.367491167505015,26.57604933764947,0.3431623835405104,12.02810698933091
90.0,39.422881899389886,26.543318609164434,0.3444328850883415,11.999773005406341
91.0,39.50695627216707,26.541510855036318,0.34590875540200605,11.967097635365814
92.0,39.61008656806289,26.57248400756528,0.3476142383656409,11.92963002974837
93.0,39.72201379021748,26.64280160252495,0.3496160656930567,11.885589992709065
94.0,39.816821718871736,26.775126897248718,0.35229983098761813,11.82233911937171
95.0,39.678861157116174,27.180334014777657,0.37686765316219667,11.183272441631663
96.0,39.77139079555235,27.39226277644215,0.38014839215787133,11.111964043715199
97.0,39.90539937178567,27.60104637885055,0.3830037704855686,11.055801763011216
98.0,40.05836451547837,27.831461081100613,0.3859363624151626,10.998944984906078
99.0,40.223107010148475,28.100317620474744,0.38905114946406194,10.939292996244834
100.0,40.365996308086075,28.421249617265104,0.3924922026104979,10.874099365991661
101.0,40.38514728254929,28.882736191179387,0.3981972909047814,10.747276283077214
102.0,40.18315700488754,29.566346770695375,0.42469857573794734,10.142989829047123
103.0,40.20746522088634,30.02328459639843,0.4287276858352915,10.074411388008789
104.0,40.23110100584732,30.482502240895073,0.43269131523406235,10.008073237395429
105.0,40.24685221310994,30.964324591729568,0.4367949383729295,9.940009450796415
106.0,40.20218443482056,31.496645921932757,0.44117151240241,9.869287847699505
107.0,40.00163514592786,32.15539214421765,0.4471475198571554,9.761824092958273
108.0,39.41209758026603,33.15356373176139,0.4761071143440101,9.166691585599441
109.0,39.10890955106479,33.81634743820472,0.48097556731435176,9.096282548684737
110.0,38.815054520782816,34.42946491196688,0.4857103711964907,9.027991419710602
111.0,38.53975040468321,35.00783399150452,0.490556085677137,8.957384025929617
112.0,38.21879509761642,35.60654542686252,0.4955734882957077,8.886450506915109
113.0,37.776589871244155,36.28024674388378,0.5010095155540204,8.811639594049232
114.0,36.7537229328757,37.47545189834053,0.5299431308497019,8.274072670422065
115.0,36.013291229221885,38.32411088971951,0.5370681592046793,8.171083273427485
116.0,35.43275676763699,38.96470389951379,0.5424496822819207,8.105040876811216
117.0,34.98734161590379,39.44267843248763,0.5478488591717227,8.035204418367643
118.0,34.65437137335053,39.81905337311586,0.5533887474177628,7.960815666224037
119.0,34.331934064426434,40.19777787083885,0.5590758041375702,7.886219109382029
120.0,33.91030505671906,40.65979630600712,0.5649840690632272,7.813394431128999
121.0,33.27885590636684,41.30378194230259,0.5721533979273998,7.720633259795402
122.0,31.896131982466255,42.66740126947501,0.5997922444782673,7.256996226578555
123.0,31.294903749749654,43.22279306246308,0.6061516037779975,7.184984478903569
124.0,30.952084229258123,43.50084565127704,0.6121164169263209,7.115457263577744
125.0,30.774121037529703,43.61131838279444,0.6182432653218469,7.035286529369305
126.0,30.672300124330267,43.67806881895702,0.6245682815511201,6.94703578490249
127.0,30.570527758325944,43.757912203260894,0.6310417919282515,6.859631222701058
128.0,30.313657260527357,43.95920314757336,0.6376837519132489,6.778197990550303
129.0,29.685914195334487,44.47618153291499,0.645301937904064,6.686922828086505
130.0,27.997504899471423,45.988727873212476,0.6675592543710819,6.34764633293776
131.0,27.121034844369916,46.61400543877889,0.6753383470149994,6.258358059447439
132.0,26.56821135839826,46.82940141089032,0.6817202370068711,6.1884215032897
133.0,26.13721442673472,46.82523692031381,0.6881385899474614,6.1074271840843855
134.0,25.688669778920747,46.742148673384875,0.6946706917411615,6.013852745913911
135.0,25.178697352643127,46.617556339137714,0.7011963589691221,5.918337750244361
136.0,24.5673374553094,46.46200042329937,0.7075625374133349,5.83411372441361
137.0,23.79595906219744,46.30881327349917,0.7136790363913016,5.765410391058422
138.0,22.81689327655164,46.19685853966405,0.7195339182194214,5.709709384591561
139.0,21.66540080935663,46.09345398897549,0.7251559015461415,5.663354378720825
140.0,20.426619185388024,45.92027647613656,0.730502710702058,5.625041285508496
141.0,19.190028347472694,45.59708417901266,0.7353592687806638,5.597370034981553
142.0,18.03321961066497,45.05994331463745,0.7394803439120482,5.583941253940719
143.0,16.98346148199392,44.29960550759329,0.7428275635293385,5.585188232026538
144.0,16.029303852975914,43.348262819418785,0.7455376760959702,5.598892686630699
145.0,15.14087264178216,42.25829927119535,0.7477683048764803,5.6228168236264455
146.0,14.277384511850205,41.09468493575352,0.7496043935948019,5.656531084455824
147.0,13.398328832981615,39.92397033424585,0.7510433010871969,5.702265024305628
148.0,12.514468184171628,38.76338509837448,0.7520335791418998,5.765349038795808
149.0,11.696481437782593,37.57143316057453,0.7525223877872471,5.854845407932498
150.0,10.993781337159405,36.327852559641954,0.7525036291948489,5.9794756897008705
151.0,10.426092186113873,35.04017212043373,0.7521517923146831,6.12230735592451
152.0,10.004386884993675,33.72116511895712,0.7517624785361148,6.246917134418353
153.0,9.802280859890907,32.32001094051167,0.7514226882921221,6.348815275557807
154.0,9.970330288312029,30.711775395184258,0.7510234992971984,6.4400303659763605
155.0,10.431220300946856,29.004772940313675,0.7505075870265743,6.530225129594404
156.0,10.95989843563684,27.460187929389484,0.7499947665076234,6.625572885223772
157.0,11.435361328861584,26.23801105307579,0.7493169510098676,6.742691870397474
158.0,12.05214932864675,25.18399235778453,0.748193115282111,6.914401202276207
159.0,12.980791608074627,24.160413294405636,0.7467492062103058,7.132298794899287
160.0,14.189474197560587,23.227105269633498,0.7456288585229891,7.298582182702794
161.0,15.88382700260867,22.205869790882318,0.7448274524708192,7.421704863325853
162.0,18.06650537645274,21.101756594770748,0.7441099230056427,7.532876022621107
163.0,20.376446747761594,20.265371238138233,0.743330573703957,7.653576804011757
164.0,22.69738469754288,19.798458956702824,0.7422123824491184,7.81922770807497
165.0,25.5034685976281,19.191477470904466,0.740552627959368,8.072360737775169
166.0,28.292882387682656,18.866692529198506,0.7391486354638309,8.285462389682424
167.0,31.179673324039186,18.682626202423062,0.7382266282223967,8.430264485824082
168.0,34.197291771309786,18.516950532840184,0.7374434705063281,8.55873251759377
169.0,36.93334267205911,18.71857440571732,0.7365035492933878,8.708410260240257
170.0,39.731658864106684,18.93773907134312,0.7349969772876512,8.946298872668521
171.0,42.869538639445814,18.745813785851645,0.7332643436086103,9.227847026906648
172.0,45.08076431131699,19.417620092754003,0.7321749788761684,9.405625884448519
173.0,47.12244736329044,20.173722189550237,0.7313372388601945,9.550549245693576
174.0,48.79931602730616,21.18756171066651,0.7303300116308006,9.719361026114106
175.0,51.18214432631012,21.42278828607722,0.7286355346427376,10.004166718136378
176.0,53.36462271099337,21.635981962250877,0.7269549543144599,10.290239737181464
177.0,54.483768220519515,22.834976410635093,0.7259418728725596,10.466727507137522
178.0,55.44898975591621,24.095320441308914,0.7250154716573907,10.631855545102761
179.0,56.740914179256634,25.001653351590686,0.7235775349198816,10.879427715688784
180.0,59.46866591977913,24.29671436101948,0.7215910100223122,11.232105731533878
181.0,60.21515839068356,25.47764487284246,0.7204034962303446,11.441534364668343
182.0,60.866355744896474,26.738816151533797,0.7194153986763892,11.620659376431975
183.0,62.203480648787426,27.33504641538586,0.71787923860133,11.892039326051188
184.0,65.0311653110725,26.27065851923149,0.7158076187106603,12.26734888817406
185.0,65.60330428396858,27.39860442084895,0.7146112793760114,12.481371895347545
186.0,66.2684303109369,28.486969672131934,0.7134595932287837,12.687631421000898
187.0,69.00162660593215,27.494315690734435,0.7113744679322488,13.066430748204539
188.0,70.67947134304164,27.378940726649127,0.709610953129225,13.383600918875782
189.0,71.2451695056258,28.431626109031008,0.7084310315112367,13.593928491688686
190.0,72.9797932295049,28.41768777599771,0.706666150530112,13.909374666031033
191.0,75.9208349903169,27.019511803580983,0.7043813420313878,14.325505897902378
192.0,76.44500946303097,28.04399355131014,0.7030520095074518,14.557742438141867
193.0,77.99539415050685,28.21307854058804,0.7012932739810349,14.867978372764293
194.0,81.27712300952209,26.497865738849647,0.6987816831369428,15.324041976704555
195.0,81.83961810316796,27.502179131782416,0.6973253508809559,15.573083530494557
196.0,83.99098225310476,27.109686349137483,0.6952383149583545,15.941426106952623
197.0,86.78216121458588,25.90680336054087,0.692760180083108,16.38383139334503
198.0,87.41434479204922,26.98026776730405,0.6911819589502912,16.64780854111072
199.0,90.94982350696925,25.20334141041329,0.6883633914381758,17.152556989665104
200.0,92.27879516722676,25.48814287991307,0.68636664422497,17.49325646172781
201.0,93.6921969148291,25.884823042645074,0.6843633988231497,17.83282791307091
202.0,97.16958492608879,24.07609614376478,0.6813547588841533,18.367918057994608
203.0,97.73194948642637,24.28114712191777,0.67952355978892,18.66717279141524
204.0,101.46238251913647,20.25898493118036,0.6762802368946799,19.2454960475116
205.0,101.94861480368245,19.049294455119483,0.6742663910611679,19.576947610594484
206.0,104.26380709514461,15.84378021456014,0.6711633842322617,20.12183451213774
207.0,104.97204743459817,14.115032829566644,0.6687905777608907,20.52345694741374
208.0,105.76435022634,12.044793047348916,0.6659132833049244,21.022210661684547
209.0,106.08350732837813,10.400125817317162,0.6631504572916379,21.498366557177906
210.0,105.7270628490636,9.080446389622669,0.6603160146622277,21.98848013327933
211.0,105.1863224179239,7.964729250637221,0.6573669856475325,22.50005940297933
212.0,104.13351074384117,7.017556975638872,0.6543114471533392,23.032779840095174
213.0,102.76749294232916,6.457484641748029,0.6514571540539866,23.527885150817358
214.0,101.47569783389396,5.561739746524399,0.6479917752769002,24.14207000681961
215.0,99.29756882933191,5.6048179448350774,0.6454322113685709,24.58239728969782
216.0,98.40207482192629,4.267187245247121,0.6416546463062975,25.264974716174383
217.0,95.35664756178627,5.05627427433717,0.639273525068527,25.670949895611912
218.0,94.51399968609832,3.6332261783290063,0.6353843423559664,26.381452524382063
219.0,91.80452507347455,4.090610974159615,0.6328176999551657,26.83240085455607
220.0,89.97298038982166,3.6657711322170385,0.6291485278411969,27.499170078355863
221.0,87.97961481759654,3.371864515739668,0.6254369283305543,28.17834749967069
222.0,85.28998552201365,3.741898659962689,0.6228545872292462,28.64132578926903
223.0,84.15399146553702,2.6672336737567837,0.6188611994824461,29.389579345188174
224.0,81.69816685343521,2.9929543086313695,0.6160166893835186,29.91300534495401
225.0,79.47410335352218,3.0228846154449713,0.6125360409909545,30.559753576909458
226.0,78.16039140332315,2.262615748960021,0.6085381059991338,31.321306804638724
227.0,75.69106553690199,2.7003122238445254,0.6059619288611137,31.803844710160952
228.0,73.73096231227024,2.5652719577172176,0.6021556342246435,32.530268586056465
229.0,72.23386954985394,2.092835893054631,0.5981684812846695,33.30362384383537
230.0,70.00840730816002,2.3769430444702917,0.5955973059160947,33.799389595625634
231.0,68.11402221868994,2.2875568111096123,0.5917841397055653,34.54237228707615
232.0,66.8037360070481,1.7726587967874305,0.5877731840847206,35.33762645861423
233.0,64.80480822292634,1.999833827695451,0.5850175572100332,35.88579403341502
234.0,62.79538927673226,2.14365450218098,0.5814565494899515,36.59244481714805
235.0,61.615872280721916,1.592980964426429,0.5774378671508777,37.40734860356654
236.0,59.68435863558956,1.8483331577265927,0.5738267302877601,38.136202349491064
237.0,57.94205283075634,1.8566924532177926,0.5711645953777738,38.68640887069523
238.0,56.569511893523696,1.5843069346599519,0.5672279790108059,39.49963256737643
239.0,55.20145608863367,1.4369269524884134,0.5633021858910918,40.31748862077734
240.0,53.636957048533525,1.5021220305711243,0.560591049435296,40.89337899996615
241.0,51.92335541080997,1.6577757329153469,0.5571334625935039,41.618911254268
242.0,50.83005462333387,1.287220818083768,0.5532079664979894,42.45647011389016
243.0,49.38088401951208,1.3581304349134566,0.5493971806397413,43.27239755660901
244.0,48.1108031995838,1.2653584651705898,0.5469160628476696,43.82273571991672
245.0,46.52812814920403,1.4528795344833147,0.5433189318313166,44.60060717821101
246.0,45.451264200814464,1.1892871046681874,0.5394590180802706,45.449151766940254
247.0,44.062705104393984,1.2866030507263548,0.5357193856045087,46.27407456343623
248.0,42.9482288722165,1.139511234634329,0.5332887796909531,46.83353044989361
249.0,41.496241382003056,1.3167537101545446,0.5297963507714468,47.61217002215214
250.0,40.48086986854338,1.0986859652058745,0.526021296948053,48.466193466715396
