Time,J,A,S,tau
0.0,100.0,10.0,0.8700494644511239,12.706653342257857
1.0,97.27688477125164,10.793617459500569,0.862049568050042,12.362183913154404
2.0,94.41238292100046,11.568300895173495,0.8532709291214899,11.990767965216317
3.0,91.42552705277674,12.322099224133193,0.8437024074597421,11.592457668045213
4.0,88.33322536973645,13.053257306920447,0.8333249638914273,11.16691715393863
5.0,85.15201214907171,13.759998057274835,0.8221225864574544,10.713818109351653
6.0,81.89796664690321,14.44053104280886,0.8100827071849499,10.23284043688503
7.0,78.58672719222582,15.093062077957766,0.7971966238169653,9.72367292363165
8.0,75.23355082716392,15.715804061323565,0.7834599253648309,9.186013934107223
9.0,71.9616600535728,16.19947615657921,0.7708328095007514,8.715444504321065
10.0,69.07914736636324,16.26720004449038,0.7639610331503047,8.53772740915735
11.0,66.28466095606886,16.241838104340644,0.7569914054348784,8.365513669003757
12.0,63.57366640947819,16.141210979529625,0.7499288300826052,8.198641992179434
13.0,60.942988963320815,15.980901665940584,0.7427784933813032,8.036956082454696
14.0,58.390796442786076,15.774231562693753,0.7355458608075074,7.880304530148463
15.0,55.91626949164685,15.53248205927792,0.7282366622138353,7.72854058002915
16.0,53.51913455711327,15.265181978175534,0.7208579662455744,7.581480972510852
17.0,51.19548763544676,14.984075797087858,0.7131751748677574,7.447910523245642
18.0,48.92853342526357,14.711548368472004,0.7048904403724462,7.337362301283762
19.0,46.71462711077828,14.45483394450703,0.695973586110235,7.24870483082655
20.0,44.55187858746861,14.21806058279383,0.6863981265898051,7.180875772518687
21.0,42.438962356037415,14.0036751676757,0.6761416138557517,7.132883379752052
22.0,40.375189290770514,13.812643054653554,0.6651862380498915,7.103801051889827
23.0,38.36059870910803,13.644597150582301,0.6535194116680715,7.092760801323943
24.0,36.39271331856921,13.501282192421732,0.641356539399283,7.092450030321379
25.0,34.46756994852747,13.38556049171019,0.6290519444185917,7.092450030321379
26.0,32.58687232598868,13.294650063796276,0.6166338606575703,7.092450030321379
27.0,30.753395446354507,13.224875522980467,0.6041209248158429,7.092450030321379
28.0,28.970552652534618,13.172059630578735,0.5915324154594064,7.092450030321379
29.0,27.242110810848892,13.131757901512303,0.5788881538860697,7.092450030321379
30.0,25.571884958756957,13.099476102141121,0.5662083988288839,7.092450030321379
31.0,23.963480071991306,13.070832084171418,0.553513735882913,7.092450030321379
32.0,22.420172549929003,13.041583892507882,0.5408249628231465,7.092450030321379
33.0,20.94460052792211,13.007866791794992,0.5281629721157161,7.092450030321379
34.0,19.538573032493055,12.966342948032256,0.5155486319938414,7.092450030321379
35.0,18.203044398385,12.914215309700216,0.5030026675885008,7.092450030321379
36.0,16.93815363559755,12.849209027215545,0.4905455420936052,7.092450030321379
37.0,15.743301765950031,12.769529299724411,0.4781973423996365,7.092450030321379
38.0,14.617265829019058,12.673809926461303,0.46597767580484634,7.092450030321379
39.0,13.55838540130387,12.561067239356893,0.45390555913572417,7.092450030321379
40.0,12.564523172554525,12.430661361332895,0.441999290564823,7.092450030321379
41.0,11.633258059789718,12.28223046345615,0.43027644431475076,7.092450030321379
42.0,10.762218182969331,12.115680364636086,0.418753699096276,7.092450030321379
43.0,9.948566277655074,11.931166692271837,0.4074468009290149,7.092450030321379
44.0,9.189494957708067,11.729063113786156,0.3963705076758999,7.092450030321379
45.0,8.482262908309108,11.50994384687004,0.38553854724062403,7.092450030321379
46.0,7.824155199739475,11.274577177706266,0.37496354928565956,7.092450030321379
47.0,7.21244761589516,11.023909743401063,0.36465703067013333,7.092450030321379
48.0,6.644486256739621,10.759045289522847,0.35462939216374706,7.092450030321379
49.0,6.11779094419152,10.481222161066619,0.34488991892296467,7.092450030321379
50.0,5.629865209734329,10.19180448630417,0.33544674909112027,7.092450030321379
51.0,5.178357965564344,9.892249352632135,0.3263069198794921,7.092450030321379
52.0,4.761013058733249,9.584085639493072,0.31747638599878025,7.092450030321379
53.0,4.3756735179370905,9.268889133814442,0.30896005501434476,7.092450030321379
54.0,4.020280257768675,8.94825796845339,0.30076183010833046,7.092450030321379
55.0,3.6928698974599783,8.623788791212565,0.292884659940701,7.092450030321379
56.0,3.3915721436030077,8.297054222944636,0.2853305946641625,7.092450030321379
57.0,3.11460705189668,7.969582108291682,0.27810084712289024,7.092450030321379
58.0,2.86028303224464,7.642836978601548,0.27119585832183146,7.092450030321379
59.0,2.6270226709461877,7.318203540480122,0.26461536787408124,7.092450030321379
60.0,2.413270989042494,6.996974693632478,0.25835847793447825,7.092450030321379
61.0,2.2175854606752607,6.680339507410747,0.25242373394311274,7.092450030321379
62.0,2.038603090089087,6.369376045562585,0.24680919470875706,7.092450030321379
63.0,1.8750385747177192,6.065046369879211,0.24151250510863972,7.092450030321288
64.0,1.7256836046818718,5.76819408968303,0.23653096784316216,7.092450029898236
65.0,1.6471376006064928,5.419030552012461,0.21122231094511112,7.5705051389977
66.0,1.6143737839733572,5.026973675879565,0.17012953190808686,8.570504426911228
67.0,1.56064336912261,4.6618187256170796,0.13674676513781828,9.57050371769135
68.0,1.492700158949728,4.321947203335689,0.10970441591074576,10.570503008471475
69.0,1.4158438614534428,4.005811809799339,0.08785677756280338,11.570502299251597
70.0,1.334167001285439,3.711936096670702,0.07025010730322814,12.570501590031721
71.0,1.2507712457097042,3.4389137804835967,0.05609414850779652,13.570500880811844
72.0,1.1679543071358047,3.1854077614607594,0.04473700356267936,14.570500171591968
73.0,1.087369378898866,2.950148880510077,0.03564317061679572,15.570499462372092
74.0,1.0101594973147792,2.731934446872951,0.028374513138952038,16.57049875315222
75.0,0.9370694501485738,2.5296265677714698,0.02257390473791157,17.570498043932346
76.0,0.8685379155341147,2.342150309226419,0.017951279497212112,18.570497334712478
77.0,0.8047724580066529,2.168491719343366,0.014271820562785937,19.570496625492606
78.0,0.7458098687957654,2.007695738155194,0.011346023770175842,20.570495916272737
79.0,0.6915641333103215,1.858864018251708,0.009021390810692108,21.570495207052865
80.0,0.6418640846976068,1.7211526817042602,0.0071755264545035075,22.570494497832993
81.0,0.5964825608591536,1.5937700335921337,0.0057104332577894105,23.570493788613124
82.0,0.5551586419018286,1.4759742514564258,0.004547820024787139,24.570493079393252
83.0,0.5176143163819962,1.3670710681104221,0.0036252621906303043,25.57049237017338
84.0,0.4835667134212857,1.2664114633747412,0.0028930732763941154,26.570491660953508
85.0,0.45273684739110526,1.173389378499678,0.0023117661397419093,27.57049095173364
86.0,0.42485565388880886,1.0874394653019914,0.001850000600431362,28.570490242513767
87.0,0.3996679501822586,1.0080348803915447,0.0014829300143365824,29.570489533293895
88.0,0.3769348291796647,0.9346851333046176,0.001190873475004594,30.570488824074026
89.0,0.35643489163725556,0.8669339959026139,0.000958252594542082,31.570488114854154
90.0,0.33793735850787093,0.8043850231454236,0.0007822293169460624,32.50770793562836
91.0,0.32095414636652625,0.7469907814258944,0.0007688242422028898,32.510220837662125
92.0,0.30576513830690855,0.6939534209526435,0.0007602651318652876,32.510220837662125
93.0,0.29218904838284326,0.6449420417224689,0.0007560458623476392,32.510220837662125
94.0,0.280065553099086,0.5996503466220824,0.0007561052485805982,32.510220837662125
95.0,0.26925411238466357,0.5577940779627885,0.0007604440830414975,32.510220837662125
96.0,0.2596311979547031,0.5191100532009472,0.0007691252016460381,32.510220837662466
97.0,0.25108518369836674,0.4833574233702923,0.0007838000919005049,32.50112063386547
98.0,0.1739380486094496,0.5347528785548709,0.23867225443137396,7.092467059786474
99.0,0.1753341289305782,0.5101157895592712,0.24379242198343284,7.092467059786474
100.0,0.17699401283408506,0.4871638724157895,0.24922882347206843,7.092467059786474
101.0,0.17896780529031608,0.46580601669645444,0.2549840042498798,7.092467059786474
102.0,0.18130110473593436,0.4459555802383389,0.2610601377807746,7.092467059786474
103.0,0.18403723882376619,0.427530356235832,0.26745895069298664,7.092467059786474
104.0,0.18721752062799238,0.4104529165551106,0.2741816539564098,7.092467059786474
105.0,0.1893916460943828,0.3962894428481065,0.2812288603983995,7.092467059786474
106.0,0.19208754427486296,0.38370686875100724,0.2886005180254603,7.092467059786474
107.0,0.1955543717658839,0.372430311681181,0.29629584358734995,7.092467059786474
108.0,0.19983115467527884,0.36241049957779947,0.30431324965809387,7.092467059786474
109.0,0.2049674204865559,0.3536054204077521,0.312650304345385,7.092467059786474
110.0,0.2110263870820767,0.34597978302957516,0.3213036303204526,7.092467059786474
111.0,0.21808398401625337,0.3395054817564832,0.3302688804205721,7.092467059786474
112.0,0.22621008201541407,0.33418361958487197,0.33954068385171465,7.092467059786474
113.0,0.23547098255112156,0.3300530938360258,0.34911260562057655,7.092467059786474
114.0,0.24599441510949294,0.32712368439494716,0.3589771173948628,7.092467059786474
115.0,0.2579313178993316,0.3254136659939366,0.36912557593565143,7.092467059786474
116.0,0.2714570786529668,0.324952710426003,0.37954821351852525,7.092467059786474
117.0,0.286776393091866,0.3257827475114407,0.3902341292923534,7.092467059786474
118.0,0.3041272938829057,0.32795934773401625,0.4011713085209407,7.092467059786474
119.0,0.3237869346115762,0.3315533333405371,0.41234664065128984,7.092467059786474
120.0,0.3460761190634712,0.33665535362762966,0.4237459471959423,7.092467059786474
121.0,0.37136744897855467,0.3433780648825122,0.435354031566799,7.092467059786474
122.0,0.4000963867319228,0.35185762013388067,0.44715473211738466,7.092467059786474
123.0,0.4327718878755528,0.362257490054955,0.4591309845620449,7.092467059786474
124.0,0.46998821096971094,0.3747724252657975,0.4712649046531144,7.092467059786474
125.0,0.5124405222242506,0.3896336559138729,0.48353786593728304,7.092467059786474
126.0,0.5609398432081146,0.40711469931194766,0.49593060008864204,7.092467059786474
127.0,0.6164333666280545,0.42753858293275987,0.5084232931242554,7.092467059786474
128.0,0.6800247183272871,0.4512863717783235,0.5209956952595508,7.092467059786474
129.0,0.7529966607226567,0.47880763894863565,0.5336272326629872,7.092467059786474
130.0,0.8368369416334956,0.5106322647762908,0.5462971234122408,7.092467059786474
131.0,0.9332637169066517,0.5473844937691015,0.5589844958354238,7.092467059786474
132.0,1.0442504155675842,0.5897997188851841,0.5716685073794131,7.092467059786474
133.0,1.1720495237454338,0.6387438462103628,0.5843284629232353,7.092467059786474
134.0,1.3192079366207392,0.6952356231690915,0.5969439308047827,7.092467059786474
135.0,1.488569519835602,0.7604727672480085,0.6094948556027094,7.092467059786474
136.0,1.6832598364806663,0.8358619578612076,0.6219616670232865,7.092467059786474
137.0,1.906639628430977,0.9230518847261896,0.6343253814881554,7.092467059786474
138.0,2.1622113398029943,1.02397018486825,0.6465676972493517,7.092467059786474
139.0,2.45388672885951,1.1403998966916806,0.6585490476611644,7.095179041551602
140.0,2.786873587555028,1.2722453999593692,0.6697008305493535,7.113371795432302
141.0,3.163944152510994,1.420858727397768,0.6799964268047695,7.148510107803183
142.0,3.5866923702669116,1.5878947829840857,0.6894845312017946,7.200477395891766
143.0,4.055416149930064,1.7750449899293272,0.6982155651412034,7.269148928007971
144.0,4.568719758020106,1.9839976782791335,0.7062406866175398,7.354392192329684
145.0,5.123168440775202,2.2163829165138145,0.7136109389810916,7.456067265573151
146.0,5.71300971600964,2.4737016904216977,0.7203759023964881,7.574045572746801
147.0,6.327384236126856,2.7600841167577914,0.7268150615714404,7.701748189067239
148.0,6.952647160657861,3.080267493753658,0.7331787572411194,7.832558719909798
149.0,7.575012121840285,3.4361882157826438,0.7394631642018101,7.9665263850348875
150.0,8.178319286438269,3.8293454255630133,0.7456648074185684,8.103697354752686
151.0,8.74488516598676,4.260652027831918,0.7517804513418714,8.244117639667515
152.0,9.256682390356831,4.73028477247033,0.7578071007210251,8.38783305304725
153.0,9.696734851287827,5.237543764489546,0.7637420003949482,8.534889176564633
154.0,10.050548956848862,5.780735706637886,0.7695826337859322,8.68533132824939
155.0,10.307392034718333,6.3570935729712765,0.7753267217244741,8.839204542594965
156.0,10.461047871661517,6.962884929851395,0.780972217715664,8.996553543185485
157.0,10.510172804420113,7.593518142260262,0.786517306865536,9.157422746440414
158.0,10.458579335821316,8.24323899982881,0.7919603984628887,9.321856248117903
159.0,10.314829126993855,8.905213496822814,0.7973001211690788,9.489897828001283
160.0,10.091388843878796,9.571763907641207,0.8025353176738724,9.661590971619978
161.0,9.8035258723785,10.234696857840714,0.8076650367777262,9.836978904477625
162.0,9.46815069992153,10.88568983666435,0.812688527667846,10.016104644022548
163.0,9.102687480853518,11.51671237580689,0.8176052303697918,10.199011053919444
164.0,8.72410967186202,12.120433319800778,0.8224147684748117,10.385740940407414
165.0,8.348183532247322,12.690579738566193,0.8271169405099033,10.576337159592878
166.0,7.9889540224250295,13.222207255528955,0.8317117104861026,10.770842747202531
167.0,7.658469218001562,13.711855608440962,0.8361991986401175,10.969301083408153
168.0,7.366713713061121,14.157583543567839,0.8405796720468224,11.171756088933922
169.0,7.1216892517527395,14.558910911210978,0.8448535351545369,11.37825245866837
170.0,6.929613024297081,14.916672423821105,0.8490213190873889,11.588835920908345
171.0,6.795164189373997,15.232821568926456,0.8530836730506688,11.803553574264415
172.0,6.7217730334753245,15.510189169229086,0.8570413530809731,12.022454228265673
173.0,6.711883920532773,15.75224344681204,0.8608952127570291,12.245588830850247
174.0,6.767189677561679,15.962856819588682,0.8646461934795235,12.47301095392782
175.0,6.888810582953117,16.14610344445548,0.8682953148662944,12.704777335888151
176.0,7.07741179524024,16.306094277498065,0.8718436641251777,12.940948466525944
177.0,7.333258378910247,16.44685173594532,0.8752923870278166,13.181589281255697
178.0,7.656217225625978,16.57222208047251,0.8786426785814997,13.426769921789226
179.0,8.04571692836865,16.685820419300672,0.8818957739351013,13.676566580148329
180.0,8.500681087690497,16.791002472728902,0.8850529389581355,13.931062392604876
181.0,9.019443815825543,16.890854157015568,0.8881154636287009,14.190348569305339
182.0,9.599673686505103,16.98819686017198,0.8910846517249775,14.454525404666763
183.0,10.238306274980106,17.085599178050355,0.8939618141585073,14.723703569585505
184.0,10.931514399840854,17.185395182578333,0.8967482607478718,14.998005219738118
185.0,11.674689348850935,17.289697908781243,0.8994452938730906,15.277565571350225
186.0,12.462474874394784,17.400416200695847,0.9020542022825592,15.562534281984508
187.0,13.28883090011619,17.519266793023398,0.904576255133955,15.853076973261754
188.0,14.147131142783065,17.647783062556822,0.9070126968883728,16.149376795725797
189.0,15.030288407411549,17.7873199706127,0.9093647429354363,16.451636016724215
190.0,15.930900302877587,17.93905533658794,0.9116335760271836,16.760077601269423
191.0,16.84140714032832,18.103987833754786,0.9138203436037107,17.074946748285708
192.0,17.754253659509402,18.282932216146534,0.9159261560944957,17.396512335943203
193.0,18.66204649197176,18.476512688255166,0.9179520862803642,17.725068221739846
194.0,19.557700733614077,18.68515506718305,0.9198991698438594,18.060934337585486
195.0,20.434569955198043,18.90907884544699,0.9217684071252227,18.40445749672
196.0,21.28655581279231,19.148290020880335,0.9235607661846158,18.756011831897123
197.0,22.10819617827446,19.402575262090313,0.9252771870603368,19.115998801378453
198.0,22.89472769812363,19.67149933422024,0.9269185882238451,19.484846647892237
199.0,23.642127879645393,19.95440518155137,0.9284858726034189,19.863009132787045
200.0,24.347132049216967,20.25041872533582,0.9299799375857887,20.250963706980386
201.0,25.00724192362266,20.55845528585056,0.9314016845449278,20.64920900368302
202.0,25.620713296111564,20.87723225431221,0.9327520298272655,21.058261075447273
203.0,26.186482914150083,21.205297359755296,0.9340319126179187,21.47864821911574
204.0,26.704190875259158,21.54103361811193,0.9352423204811802,21.910907502525912
205.0,27.174086919832707,21.88270010238902,0.9363842862914578,22.355575719557233
206.0,27.596942132583166,22.228461139728708,0.9374589062772511,22.813185351329057
207.0,27.97406831028662,22.576409409832277,0.9384673644678511,23.284253587982896
208.0,28.3071556024423,22.924613808611973,0.939410921131248,23.769276324855923
209.0,28.598256638879445,23.271142559994065,0.9402909437813682,24.268720069477894
210.0,28.849710263243395,23.614110981880323,0.9411089081526391,24.783008283795997
211.0,29.064045621489925,23.951698869332226,0.9418663909416995,25.312521875606713
212.0,29.243951464719558,24.28219609519532,0.9425651000382086,25.857581846178018
213.0,29.392188246331436,24.60402359062103,0.9432068472346328,26.41844703100106
214.0,29.51154823340673,24.915742868228676,0.9437935565023065,26.99531234595002
215.0,29.604794926827317,25.216103496786324,0.9443272658947959,27.588291873732782
216.0,29.674630188958833,25.504020384807237,0.9448100961107075,28.197430624745945
217.0,29.723653696561595,25.778601635932823,0.9452442618020436,28.822693967441726
218.0,29.75432666640333,26.039153210774,0.9456320413606354,29.463967352754228
219.0,29.76897429841259,26.28514959046482,0.9459757633865676,30.121068531006816
220.0,29.76973757169352,26.516262094661872,0.9462777967277893,30.793737066412024
221.0,29.758590402875292,26.732320958144193,0.9465405191650639,31.481650117239774
222.0,29.737332049434507,26.933307106884087,0.9467663122450322,32.18442619964623
223.0,29.707567355475003,27.11935179197906,0.946957531723542,32.90162654209584
224.0,29.670746059203438,27.290695129379177,0.9471164990074042,33.63277172619849
225.0,29.628134229858485,27.447691426896743,0.9472454822762069,34.37734139236092
226.0,29.580850830916635,27.59077695026339,0.9473466797086407,35.134787276858994
227.0,29.52986641442612,27.720459055278205,0.9474222177526894,35.90453899361121
228.0,29.476015198110165,27.837301017772056,0.9474741243622897,36.68601113483966
229.0,29.420012207278972,27.941904646929892,0.9475043417846729,37.478610997655764
230.0,29.362466200406004,28.034899135205304,0.9475147051391772,38.28174355026003
231.0,29.303874021963214,28.11692938306436,0.9475069349597173,39.09481941090279
232.0,29.24467432324429,28.188646177084212,0.9474826741578793,39.917253403574406
233.0,29.18519653533066,28.25069467938911,0.9474434116952002,40.74847932715181
234.0,29.125738309493798,28.30371625355237,0.9473905846833885,41.58793775829222
235.0,29.066512654476725,28.348329053226095,0.9473254720669878,42.43509643922969
236.0,29.007701661990318,28.38513749532549,0.9472492896641557,43.28943666473103
237.0,28.949442504058393,28.414749272453545,0.9471631436438858,44.150461882352474
238.0,28.82330569022397,26.943438568935584,0.94706804646504,45.017698287863794
239.0,28.645106836766875,24.40922574290327,0.9469649242326994,45.89069381559932
240.0,28.47420781652624,22.122537840185416,0.9468546202215391,46.76901870060991
241.0,28.31006381253257,20.05891218285418,0.9467379004860086,47.65226499781388
242.0,28.1521567513938,18.196335948040872,0.9466154590678821,48.54004603824375
243.0,27.999994649753532,16.515006593044944,0.9464879235090592,49.431995586182616
244.0,27.853110855387587,14.997118633271889,0.9463558597487824,50.327766993731835
245.0,27.711062858432122,13.626632441949486,0.9462197773306685,51.22703208450064
246.0,27.573431056454474,12.38913158879529,0.9460801341354129,52.12948005124911
247.0,27.43981735444101,11.271620921917796,0.945937340942258,53.034816264386805
