Time,J,A,S,tau
0.0,100.0,100.0,0.689737645498063,24.429425419680367
1.0,99.50267241640324,92.22170707948416,0.6919820598919588,24.837754708382082
2.0,99.09356962896727,85.01945607280194,0.6942543883896442,25.256817703097887
3.0,98.80396073301962,78.35580855770569,0.6965512716739034,25.68611459240009
4.0,98.66568954241309,72.19255077679804,0.6988705800687277,26.1253877861825
5.0,98.70494679538996,66.49407270949186,0.6991948476835068,26.763692040465763
6.0,98.93657871068088,61.22700245751341,0.6957993397937752,27.763148470790306
7.0,99.36058842930122,56.36027642288271,0.6925229518318251,28.762904176536107
8.0,99.9617215838963,51.865005417619486,0.6893630066835079,29.76265988228191
9.0,100.7118439853709,47.71421848196763,0.6863139443799736,30.76241558802771
10.0,101.57407164796078,43.88277760386308,0.683370488184737,31.762171293773513
11.0,102.50762789184013,40.3472878342119,0.6805276280409474,32.76192699951931
12.0,103.4722621166459,37.08596768868131,0.6777806050652232,33.761682705265116
13.0,104.431632055876,34.078545047080844,0.6751248974519465,34.76143841101092
14.0,105.35544673684232,31.306150490119776,0.6725562074118029,35.76119411675672
15.0,106.22043031133786,28.751246848669822,0.6700704491419813,36.760949822502525
16.0,107.0103018058515,26.39753750437505,0.6676637365343124,37.76070552824833
17.0,107.71513407091872,24.229878554786687,0.6653323720550006,38.76046123399413
18.0,108.33036693643231,22.234200849288303,0.6630728364129993,39.760216939739934
19.0,108.85569641558617,20.3974359753684,0.6608817791265563,40.75997264548573
20.0,109.29396788531554,18.707480671420598,0.6587560096299244,41.75972835123154
21.0,109.01053449848456,15.646001649517032,0.6566924872568376,42.75948405697735
22.0,108.67743938224076,12.9774183281955,0.6546883142654678,43.75923976272315
23.0,108.35373999374791,10.7612674332582,0.6527407277835526,44.75899546846895
24.0,108.03899877352514,8.921347095716152,0.6508470925017606,45.75875117421475
25.0,107.73279820416697,7.394198347634256,0.6490048938092525,46.75850687996055
26.0,107.4347397321959,6.12699054301317,0.6472117313009138,47.75826258570635
27.0,107.1444427491851,5.075755039220042,0.6454653126414998,48.75801829145215
28.0,106.8615436288113,4.203910205808976,0.643763447766583,49.75777399719795
29.0,106.58569481493234,3.4810281147513287,0.6421040433907607,50.75752970294375
30.0,106.31656395874408,2.8818076164889646,0.6404850978114097,51.75728540868955
31.0,106.05383310205498,2.385216863085793,0.6389046959901529,52.75704111443535
32.0,105.79719790357083,1.9737780477254019,0.6373610048933249,53.75679682018115
33.0,105.54636690558236,1.6329710633918126,0.6358522690757378,54.75655252592694
34.0,105.30106083888002,1.3507366843425666,0.6343768064946426,55.75630823167273
35.0,105.06101196298414,1.117061929988869,0.6329330045363534,56.756063937418524
36.0,104.8259634395348,0.9236352290278336,0.6315193162425539,57.755819643164315
37.0,104.59566873755618,0.7635593211499898,0.6301342567285446,58.75557534891011
38.0,104.36989106830966,0.6311121588921865,0.6287763997796693,59.7553310546559
39.0,104.14840284795342,0.5215479421379129,0.6274443746151843,60.75508676040168
40.0,103.93098518643014,0.4309316475603943,0.6261368628100709,61.75484246614747
41.0,103.71742740101533,0.3560013384482855,0.6248525953653449,62.754598171893264
42.0,103.50752655242314,0.2940536377094484,0.6235903499142046,63.754353877639055
43.0,103.30108700290295,0.24284870817334037,0.6223489480606001,64.75410958338485
44.0,103.09791999476067,0.2005312305315443,0.6211272528407954,65.75386528913064
45.0,102.89784324801441,0.16556476481734947,0.6199241663001509,66.75362099487643
46.0,102.70068057603102,0.13667725061905034,0.6187386271781827,67.75337670062223
47.0,102.50626151817055,0.11281577471448545,0.6175696086960355,68.75313240636801
48.0,102.31442098792596,0.09310897211322221,0.6164161164372626,69.75288811211381
49.0,102.12499893592302,0.07683589961777691,0.6152771863180871,70.75264381785959
50.0,101.93784002692473,0.06340020164721748,0.6141518826419927,71.75239952360538
51.0,101.75279332982578,0.05230868417412091,0.6130392962325312,72.75215522935117
52.0,101.56971201979714,0.043153553055350055,0.6119385426392931,73.75191093509696
53.0,101.38845309185415,0.03559770011059662,0.6108487604126607,74.75166664084276
54.0,101.20887708493841,0.02936249486930149,0.6097691094418681,75.75142234658854
55.0,101.03084781572731,0.02421768314701893,0.6086987693516328,76.75117805233434
56.0,100.85423212175414,0.019973025789937465,0.6076369379548447,77.75093375808012
57.0,100.6788996130502,0.016471372251823362,0.6065828297565684,78.7506894638259
58.0,100.50472243168022,0.013582927436890848,0.6055356745055643,79.7504451695717
59.0,100.33157501859027,0.011200508371387407,0.6044947157898397,80.75020087531749
60.0,100.15933388720951,0.00923561864526402,0.6034592096728564,81.74995658106329
61.0,99.98787740310146,0.0076151986088358005,0.6024284233661592,82.74971228680907
62.0,99.81708556935354,0.006278943083584137,0.6014016339365471,83.74946799255487
63.0,99.64683981715383,0.005177081621794547,0.6003781270444688,84.74922369830065
64.0,99.47702280105848,0.00426854354236738,0.5993571957106519,85.74897940404644
65.0,99.30751819849662,0.0035194414992021643,0.5983381391082361,86.74873510979224
66.0,99.13821051308476,0.0029018188430468186,0.5973202613778306,87.74849081553802
67.0,98.96898488128298,0.0023926130881417196,0.5963028704626833,88.74824652128382
68.0,98.79972688204634,0.0019728014422855083,0.595285276961867,89.7480022270296
69.0,98.63032234910389,0.0016266948338759738,0.5942667929992742,90.7477579327754
70.0,98.46065718547615,0.0013413548289590406,0.5932467311060735,91.74751363852118
71.0,98.29061717988188,0.0011061122532603199,0.5922244031145237,92.74726934426697
72.0,98.12008782468452,0.000912169990912892,0.5911991190610417,93.74702505001277
73.0,97.94895413506364,0.000752274796251273,0.5901701860966241,94.74678075575855
74.0,97.77710046915924,0.0006204466330432678,0.5891369074031098,95.74653646150435
75.0,97.60441034886105,0.000511755542801469,0.5880985811133027,96.74629216725013
76.0,97.43076628098048,0.0004221374392629006,0.5870544992333767,97.74604787299593
77.0,97.25604957854877,0.00034824215882978745,0.5860039465660164,98.74580357874171
78.0,97.08014018198944,0.00028730815322346853,0.5849461996327768,99.7455592844875
79.0,96.90291647989507,0.00023705913685972916,0.5838805255940349,100.7453149902333
80.0,96.72425512937974,0.00019561876279914465,0.5828061811663596,101.74507069597908
81.0,96.54403087568552,0.00016144041201410637,0.5817224115353653,102.74482640172488
82.0,96.36211637088903,0.00013324925610258678,0.5806284492631152,103.74458210747066
83.0,96.17838199157568,0.00010999448914321448,0.5795235131892837,104.74433781321646
84.0,95.99269565535309,9.080995094852128e-05,0.5784068073252966,105.74409351896225
85.0,95.80492263600826,7.498168032150588e-05,0.5772775197402754,106.74384922470803
86.0,95.61492537743206,6.192112843498837e-05,0.5761348214395304,107.74360493045383
87.0,95.42256330622611,5.114311882847361e-05,0.5749778652350881,108.74336063619961
88.0,95.22769264283852,4.224767883686054e-05,0.5738057846073297,109.74311634194541
89.0,95.03016621132046,3.4905060151364594e-05,0.5726176925582941,110.7428720476912
90.0,94.82983324795873,2.8843373657060135e-05,0.5714126804581809,111.74262775343699
91.0,94.62653920746997,2.383849905385702e-05,0.5701898168771359,112.7423834591828
92.0,94.42012556960293,1.9705583531887848e-05,0.5689481464194683,113.7421391649286
93.0,94.21042964523554,1.629218849838241e-05,0.5676866885548049,114.7418948706744
94.0,93.9972843777853,1.3472617226956925e-05,0.5664044364209613,115.74165057642017
95.0,93.78051815011835,1.1143176900777858e-05,0.5651003556599411,116.74140628216595
96.0,93.5599545848398,0.0,0.563773383214005,117.74116198791175
97.0,93.33541235108066,0.0,0.562422426160882,118.74091769365756
98.0,93.10670496612317,0.0,0.5610463605178297,119.74067339940338
99.0,92.87364060078299,0.0,0.5596440300683205,120.7404291051492
100.0,92.63602188875892,0.0,0.5582142452126115,121.74018481089502
101.0,92.39364573280507,0.0,0.5567557817991277,122.73994051664081
102.0,92.14630311785037,0.0,0.5552673799976934,123.73969622238661
103.0,91.89377892778856,0.0,0.5537477431948572,124.73945192813242
104.0,91.63585176681372,0.0,0.5521955369165827,125.73920763387824
105.0,91.37229378596051,0.0,0.5506093877822803,126.73896333962405
106.0,91.10287050504205,0.0,0.5489878824310368,127.73871904536986
107.0,90.82734068397856,0.0,0.547329566745597,128.73847475111563
108.0,90.54545612894421,0.0,0.5456329446832798,129.7382304568614
109.0,90.25696161412691,0.0,0.5438964776144557,130.73798616260723
110.0,89.96159479087844,0.0,0.5421185842571231,131.73774186835303
111.0,89.65908598943466,0.0,0.5402976391730663,132.73749757409882
112.0,89.34915762184689,0.0,0.5384319690928144,133.73725327984465
113.0,89.03152581248375,0.0,0.5365198628349438,134.73700898559042
114.0,88.70589743928164,0.0,0.5345595534669652,135.73676469133622
115.0,88.37197386494712,0.0,0.532549240799576,136.73652039708205
116.0,88.0294465641305,0.0,0.5304870650229708,137.73627610282784
117.0,87.67800194625852,0.0,0.5283711357818196,138.73603180857364
118.0,87.3173164213797,0.0,0.5261995024269084,139.73578751431944
119.0,86.94706176384213,0.0,0.5239701863513089,140.73554322006524
120.0,86.56689896068467,0.0,0.5216811439007307,141.73529892581104
121.0,86.1764860223144,0.0,0.519330313466319,142.73505463155686
122.0,85.77546987782962,0.0,0.516915566611287,143.73481033730266
123.0,85.36349289653303,0.0,0.5144347474023991,144.73456604304846
124.0,84.94019154548138,0.0,0.5129871447257063,145.59295232532352
125.0,84.50519567354695,0.0,0.5146895398148125,146.03737314924632
126.0,84.05812998155305,0.0,0.5163969469155526,146.47069019777842
127.0,83.59861384558252,0.0,0.5180979930669151,146.89387871467494
128.0,83.12626081453553,0.0,0.5197908117007967,147.3066739935801
129.0,82.64068441356898,0.0,0.5214734512579148,147.70880877091778
130.0,82.1414900317761,0.0,0.5231436899927125,148.1000080151718
131.0,81.62828161691759,0.0,0.5247992685328089,148.47999561389096
132.0,81.10066665859536,0.0,0.5264378280828639,148.84849267405042
133.0,80.55824811131242,0.0,0.5280566327385435,149.20521100418293
134.0,80.00062713457972,0.0,0.5296528832410797,149.54986092244243
135.0,79.42740787183389,0.0,0.531223773776182,149.88215242706397
136.0,78.83820478266468,0.0,0.5327661343570794,150.2017876018014
137.0,78.23263174194834,0.0,0.5342764929651646,150.50846254606566
138.0,77.61030247926028,0.0,0.535751372417738,150.80187326552846
139.0,76.970839483253,0.0,0.5371872438412397,151.08171454205606
140.0,76.31388957381698,0.0,0.5385800667824611,151.34767225184856
141.0,75.6391023862528,0.0,0.5399255826452417,151.59942886233713
142.0,74.94612768591813,0.0,0.5412195341212308,151.83666684908718
143.0,74.23463627508637,0.0,0.5424575389720886,152.05906648969702
144.0,73.50433915722643,0.0,0.5436346333048051,152.26630019921967
145.0,72.75495145216642,0.0,0.5447457189852176,152.45803879002972
146.0,71.98618996277668,0.0,0.5457856947267266,152.63395300147374
147.0,71.19781741532555,0.0,0.5467491867927557,152.79371021428489
148.0,70.38964025462607,0.0,0.5476303598998064,152.93697313049776
149.0,69.56146598593162,0.0,0.5484233360067534,153.06340410531573
150.0,68.71313600609051,0.0,0.5491221153812316,153.17266419305344
151.0,67.84456259838754,0.0,0.54972022800004,153.2644108976836
152.0,66.9556667432402,0.0,0.5502111054468358,153.3383011311527
153.0,66.04640327556164,0.0,0.5505880671586401,153.39399111294756
154.0,65.08568836457407,0.03855665858892815,0.5491255822394017,153.03849620994822
155.0,64.05854690785176,0.1915078719933325,0.5461947297989548,152.33922330046377
156.0,62.98064184638316,0.5430306384288516,0.5429643114045773,151.54805231065234
157.0,53.358571451413056,9.520121973249628,0.7373625454146947,31.67991367440296
158.0,53.43882536230105,8.85934074347459,0.7325720693860843,30.86732358373503
159.0,53.54323936145509,8.24682442677044,0.7277225821095189,30.077951272845855
160.0,53.6689645659386,7.678878050600132,0.7228171385401604,29.31159997973326
161.0,53.812276279251606,7.152099333408587,0.7178588250044299,28.568003755785064
162.0,53.96857900401405,6.663358108072106,0.7128507575963571,27.846838205049483
163.0,54.132437875370755,6.209773786954017,0.7077960793371082,27.147730207950502
164.0,54.29763265949022,5.788692562993607,0.7026979548330583,26.470266135588986
165.0,54.45725122409383,5.397669761123303,0.6975595678306928,25.813999635179783
166.0,54.60381085079467,5.0344527317318875,0.6923841181668394,25.178458471824438
167.0,54.72940594916105,4.6969651282975216,0.687174818741777,24.563150573670153
168.0,54.82587745519413,4.383292355181558,0.6819348922080177,23.967569306741044
169.0,54.88499721368502,4.0916691947457515,0.6766675692095375,23.391198236322744
170.0,54.89865959318848,3.820467314134031,0.6713760852473845,22.83351512090184
171.0,54.85907302165367,3.5681841405100245,0.6660636778225962,22.2939953653928
172.0,54.7589438408048,3.3334327586706,0.6607335837167595,21.77211498547283
173.0,54.59164545837605,3.114932648062981,0.6553890362758634,21.26735312378304
174.0,54.35136673551158,2.9115011874634376,0.6500332626906739,20.779194167796646
175.0,54.00157833162655,2.754746999739129,0.6446694850963882,20.307129794453285
176.0,53.379165732520406,2.818002713021106,0.6393009057303681,19.850659550898936
177.0,52.18327939421035,3.4507507519373495,0.6339307160208761,19.409292909218326
178.0,50.964687526879366,4.100601993261,0.6285620915128786,18.98255003315456
179.0,49.69944801771457,4.761879838321046,0.6231981877215581,18.569962417645453
180.0,48.375018725733625,5.427573991431825,0.6178421370816407,18.17107342958711
181.0,46.9886464272025,6.0895982190880025,0.6124970469681793,17.78543877440735
182.0,45.54551961169172,6.739131214569639,0.6071659963817632,17.4126267511445
183.0,44.05683150930393,7.367014776265407,0.601852033299693,17.05221841241444
184.0,42.53790590680882,7.964174280158443,0.5965581719349821,16.703807633845685
185.0,41.006475648438965,8.522029719686117,0.591287391232541,16.36700118399764
186.0,39.481186252935586,9.032871937691965,0.5860426298566997,16.041418531384434
187.0,37.98035896419821,9.490160524244972,0.5808267864655012,15.726691823160978
188.0,36.521028503767454,9.888752874368132,0.5756427142884379,15.422465609744206
189.0,35.11823882146383,10.224998449518628,0.5704932216052974,15.128396786252242
190.0,33.783022923778894,10.498278341825028,0.5653810700547821,14.844154331285473
191.0,32.49718718816335,10.735128110657202,0.5603089674899541,14.569418796535063
192.0,31.206590711687472,10.992932789098878,0.5552795677362282,14.30388222966065
193.0,29.93729680481551,11.247369610447373,0.5502954709243653,14.047247897202839
194.0,28.71839752875525,11.47297756434905,0.5453592200539761,13.799229931623785
195.0,27.566395992027903,11.65734211925824,0.5404732993501711,13.559553039911687
196.0,26.48800146469377,11.79722939696503,0.535640130724699,13.327952118905445
197.0,25.482779436185645,11.895364169991915,0.5308620799738927,13.104172197191783
198.0,24.545561835047327,11.957871686351615,0.5261414439848004,12.887967761301855
199.0,23.66835928087079,11.992435980530106,0.5214804564970924,12.679102662724205
200.0,22.84186474737125,12.007037047368515,0.5168812854306928,12.47734976257045
201.0,22.056570010045988,12.009140830286134,0.5123460319167864,12.282490631576888
202.0,21.303571228942953,12.0052076267616,0.5078767294779268,12.094315256092568
203.0,20.57555530724261,11.999985087757826,0.5034753432112385,11.912621745521017
204.0,19.869060627243655,11.994452889621149,0.4991437663205012,11.737215989118026
205.0,19.18165119065413,11.988758070337534,0.4948838286891225,11.567911559298583
206.0,18.51000096387143,11.984171464962959,0.4906972893511561,11.404529431747415
207.0,17.85105557639867,11.981967883786155,0.48658583523725746,11.246897500482163
208.0,17.20267904539027,11.982814392594575,0.4825510849775396,11.094850411523446
209.0,16.563864290275085,11.986553244334658,0.4785945879480114,10.948229286593577
210.0,15.934708110099493,11.99222556776313,0.4747178263414428,10.806882198824841
211.0,15.315958309601454,11.998401862305553,0.4709222142090911,10.670662601331644
212.0,14.70885494872035,12.003333153354877,0.46720909548027345,10.53943010843017
213.0,14.114803491777732,12.005220364377616,0.4635797475628426,10.413050111132431
214.0,13.535148275021317,12.002392310347766,0.46003538063142607,10.291393419526221
215.0,12.971064505001092,11.993394283074414,0.456577140666419,10.17433608749149
216.0,12.42353099068701,11.977012258866523,0.45320611087164736,10.061759304621901
217.0,11.893296882715738,11.952289907814107,0.4499233095389833,9.953549246596479
218.0,11.380877144417921,11.918531869226966,0.4467296912819212,9.849596924600899
219.0,10.886565025258781,11.875269699680834,0.44362615396876404,9.749797594924512
220.0,10.410565078856715,11.822247816813515,0.44061353494407474,9.654051564912962
221.0,9.9527901966289,11.759383501404423,0.4376926107769476,9.562262760524362
222.0,9.513316840519318,11.68669945185493,0.43486410731454317,9.474340009233991
223.0,9.091814626995337,11.604352548729638,0.4321286914986501,9.390195166920659
224.0,8.68830481340809,11.512542694476222,0.42948697247157913,9.309745454746745
225.0,8.30245216010044,11.411549254006871,0.4269395265831065,9.232909822622279
226.0,7.933973964832945,11.301728447151312,0.4244868481779891,9.15961308182749
227.0,7.58285825849917,11.1834197347325,0.42212941423549044,9.089781963169212
228.0,7.248525928378936,11.057085816192416,0.41986763673899236,9.023347106824541
229.0,6.93079406976129,10.923175130826404,0.4177018861669509,8.960242601582753
230.0,6.62912090580599,10.782207862945663,0.4156324908927128,8.900405485044805
231.0,6.34327195491776,10.634698157073093,0.41365973230342773,8.843776232437827
232.0,6.0726672140839515,10.48121559753469,0.4117838585943029,8.790297922155078
233.0,5.817007176139262,10.322319361469543,0.4100050679534929,8.739917063854683
234.0,5.575695990958209,10.158604582506783,0.4083235334708547,8.692582442069183
235.0,5.348378204306214,9.990650759985808,0.4067393766571789,8.648246248414457
236.0,5.134464214035738,9.819055762002195,0.4052527000636162,8.606862670251417
237.0,4.933555192189601,9.64439642771333,0.4038635547230594,8.568389257997154
238.0,4.745086127050902,9.46725442242858,0.40257197668076317,8.53278532733577
239.0,4.568627973143108,9.288185812335477,0.401377952190802,8.50001349251056
240.0,4.403681635611956,9.107738691932868,0.4002814517414007,8.47003800792256
241.0,4.2497770546617195,8.926437392675004,0.3992824060362982,8.442826075832816
242.0,4.106410944624597,8.744788342352038,0.3983807252650315,8.418346871163207
243.0,3.9731793704094076,8.563269577018708,0.3975762832426925,8.396571937597184
244.0,3.849608150515832,8.382336704860135,0.3968689328534342,8.37747505891415
245.0,3.7353114906735563,8.20241894340166,0.39625849664915797,8.361031960696314
246.0,3.62987703138863,8.023916624812177,0.39574477098065974,8.347220776177444
247.0,3.5329253713122846,7.847206313699066,0.395327530403271,8.336021334117513
248.0,3.4441167121531175,7.672634104369949,0.39500651678683935,8.327415797452534
249.0,3.3630950479824726,7.500521301221581,0.39478145592518066,8.321388059816455
250.0,3.2895752218772754,7.331163179584606,0.394652039545361,8.317924040774564
251.0,3.2232482659489334,7.164827143196202,0.39461794223278324,8.317011592382073
252.0,3.163867496753473,7.001760103152757,0.3946788089007229,8.318640239755489
253.0,3.111185838680277,6.84218087906109,0.394834260764068,8.3228015984984
254.0,3.0649878406865736,6.686289557902908,0.3950838971318607,8.329488756274912
255.0,3.025090334632972,6.534263729811708,0.39542728532287147,8.33869684142509
256.0,2.9913171865621453,6.38626001065293,0.39586397588359756,8.350422494644718
257.0,2.96353662321144,6.242420242106134,0.3963934851487702,8.36466412878976
258.0,2.9416201556319748,6.10286261998052,0.3970153110635838,8.381421889401313
