Time,J,A,S,tau
0.0,100.0,100.0,0.8216491277713164,2.247191011235955
1.0,91.74789020358823,92.51756118254643,0.806046397603704,2.412598757453526
2.0,84.3174890155969,85.60768437842377,0.7908466035944254,2.5772575744268345
3.0,77.64470261302358,79.22683707247381,0.7766123320915717,2.7237737503754764
4.0,71.24420564633436,73.75272638940203,0.7769599978095106,2.7209721466880112
5.0,65.43862265699943,68.76804659618936,0.7773124109965177,2.7181467196843645
6.0,60.17097295881044,64.24035079419093,0.777669268771817,2.7153011446476976
7.0,55.39596197976515,60.13222463974161,0.7780303996199747,2.71243681818175
8.0,51.06738130751914,56.41340902173412,0.7783955472797229,2.7095571814017227
9.0,47.143343990420355,53.055105105067064,0.7787643293659374,2.706666413203747
10.0,43.58568887419389,50.03031635765529,0.7791363982023646,2.703768751947445
11.0,40.35994304636973,47.3135126934427,0.7795113721190456,2.7008679392531243
12.0,37.43466611695748,44.880770755795716,0.7798889716431557,2.6979673333199177
13.0,34.78137262730626,42.709645493302524,0.7802687127996688,2.6950728860365745
14.0,32.37394260196238,40.779187338562096,0.7806505880670621,2.6921836683550047
15.0,30.18856410787708,39.0697174993665,0.7810339803455488,2.689307036529611
16.0,28.203288188978938,37.56285288363265,0.7814188043043525,2.68644346769704
17.0,26.398078196516398,36.24115570829615,0.7818042518706667,2.6836025907160033
18.0,24.75446907016518,35.08816169672499,0.7821900630705501,2.6807869485741183
19.0,23.25555142815118,34.08815064586066,0.782575893746069,2.6780003717107377
20.0,21.88608031220908,33.22608936470866,0.7829614625686009,2.675245098135179
21.0,20.632345765614986,32.48755500074963,0.7833461908348214,2.6725281206177085
22.0,19.482222176900216,31.858779467595394,0.7837296247711544,2.669854168404258
23.0,18.425000586697944,31.326658076251398,0.7841114056303572,2.6672268899926537
24.0,17.451348041975788,30.878874567182553,0.7844910778393815,2.6646512803809688
25.0,16.55318527753361,30.50392519276356,0.7848681361427531,2.6621328137469797
26.0,15.723580470821517,30.19123052216015,0.7852419842940773,2.659678515036284
27.0,14.956511120096895,29.93123352204718,0.7856123439651813,2.657290451260067
28.0,14.246745269797518,29.7153650614439,0.7859787540248383,2.6549737584081736
29.0,13.589725826487825,29.53609550033916,0.7863407183353679,2.6527337606653565
30.0,12.981447520921177,29.38689335671246,0.7866976874822007,2.6505766284693646
31.0,12.418277863971836,29.262162711715646,0.7870492575913146,2.648506519028712
32.0,11.896966748707179,29.1571958567906,0.7873950004519,2.6465278847219587
33.0,11.414540438735044,29.06805595053676,0.7877343601872685,2.644646938933619
34.0,10.96818562057781,28.991553407098905,0.7880671543773615,2.642864907384491
35.0,10.555379310713171,28.925052370402636,0.7883928058991125,2.6411883501564692
36.0,10.173694572661491,28.866473816177106,0.7887110877334034,2.639619123792676
37.0,9.820898766131302,28.814141857607126,0.7890215413123652,2.638162371187318
38.0,9.494889594797518,28.766760538578364,0.7893238068034599,2.636821759318912
39.0,9.19369162238076,28.72334543017303,0.7896175900070725,2.6356001434717804
40.0,8.915438459887206,28.68313783146851,0.7899026825797941,2.634499381032988
41.0,8.658444242533816,28.64555937757417,0.7901786903530914,2.633523796923437
42.0,8.421073285309737,28.6102047153025,0.7904454455156917,2.6326748267710496
43.0,8.2018421011562,28.57678360965443,0.7907026928813361,2.6319549974388234
44.0,7.999340957564049,28.54510615717525,0.7909502996555068,2.631365476878495
45.0,7.812300367722649,28.51505116245795,0.7911880600016415,2.6309080464991146
46.0,7.639510457397069,28.486556537990147,0.7914158573898762,2.6305837483012295
47.0,7.4798677620942655,28.459605994241826,0.7916335753730135,2.630393466007094
48.0,7.332350249282804,28.43420022133751,0.791841085442705,2.6303384613422343
49.0,7.195978967384196,28.410387559290527,0.7920384384788197,2.6304175313688916
50.0,7.069907560596258,28.38821111414214,0.7922255089452389,2.630631810803498
51.0,6.953316174319666,28.36773725468394,0.7924023274833216,2.6309806005907115
52.0,6.845459532374608,28.34903384132739,0.7925689104081165,2.6314632079022644
53.0,6.745638578863234,28.332172064319348,0.7927252922816397,2.6320790085927106
54.0,6.653222725501563,28.31723190706709,0.7928715385026558,2.6328267986319696
55.0,6.567627166845671,28.30429386663557,0.7930077373788011,2.633705133919542
56.0,6.488303462729206,28.293422657500656,0.793133986768275,2.6347126619081473
57.0,6.414754923029005,28.284692133324945,0.7932503745250751,2.635847998200737
58.0,6.346524087166605,28.278160665165235,0.7933570467515222,2.6371090746061276
59.0,6.283193935591447,28.273886681306003,0.7934541024109553,2.6384944389192753
60.0,6.224372389291586,28.271930866969438,0.7935417316376854,2.6400016058078437
61.0,6.169695523034976,28.272338371943754,0.7936200982536369,2.641628223457212
62.0,6.118818589653556,28.27516117059283,0.793689456739318,2.6433709765754685
63.0,6.071460006001185,28.28041843496562,0.7937498875031154,2.6452287812234223
64.0,6.027331916728488,28.28814533046282,0.7938016078069131,2.6471987184785357
65.0,5.9861917980616015,28.29835401838307,0.7938447799033644,2.649278634646702
66.0,5.947801581517887,28.311055092308166,0.7938796117418506,2.6514658220765854
67.0,5.911943193163332,28.326256681415014,0.7939063308841903,2.6537573600408497
68.0,5.878416613080975,28.34395668473264,0.7939251024469037,2.656150818489139
69.0,5.8470419963034805,28.36414744541203,0.7939362510055008,2.6586423191336555
70.0,5.817669007602896,28.386809832319347,0.7939398861115283,2.6612302386974998
71.0,5.790145361630941,28.411926052326095,0.7939362418603426,2.6639115917854244
72.0,5.764341319272098,28.43945826676631,0.7939254954092831,2.6666840180756255
73.0,5.740135278499784,28.469375815452832,0.7939078586604027,2.669544725889553
74.0,5.71741687192165,28.50163890057361,0.7938835369297836,2.6724910209311825
75.0,5.696076411038577,28.536203383538698,0.7938527843296047,2.675519529918289
76.0,5.6760395344592,28.573017208966288,0.7938157147801552,2.6786288189404157
77.0,5.657213394005219,28.612028746953882,0.7937725802424583,2.6818154288415315
78.0,5.639533818354955,28.6531820366485,0.7937235288535783,2.6850774407770523
79.0,5.622917257093628,28.69642085653329,0.7936688408108945,2.688411025484113
80.0,5.607314108524468,28.741678897118383,0.7936086396154244,2.6918144987535317
81.0,5.592671071344008,28.788894153588817,0.7935431065873294,2.69528540946873
82.0,5.57893914789091,28.838001166961273,0.7934724251399945,2.698821177508507
83.0,5.56608969396179,28.888935702764115,0.7933966959930593,2.702420237785658
84.0,5.5540548556329545,28.941624386393837,0.7933162126614245,2.706078688784214
85.0,5.542798680650744,28.99600057526004,0.7932311457572352,2.709793936519804
86.0,5.532298842522686,29.051994585014203,0.7931416097251373,2.7135643448770352
87.0,5.522515288261901,29.109529988844773,0.7930478123402551,2.7173867622974774
88.0,5.513412693901202,29.168540467592706,0.7929499567592088,2.7212582403865744
89.0,5.504958451851132,29.22895138377924,0.7928482353999479,2.7251758278884095
90.0,5.4971431042572725,29.290689960909702,0.7927427387231566,2.7291379743628013
91.0,5.489928722174928,29.353677941619008,0.7926337006965136,2.73314113545306
92.0,5.483296443678129,29.41784225445665,0.7925212704937753,2.7371828601183936
93.0,5.477231595623616,29.483104567816206,0.792405591170713,2.741260690588145
94.0,5.471706643092464,29.549391798628367,0.7922868704896769,2.7453712608106424
95.0,5.466707370857709,29.616634468159862,0.7921652681671167,2.7495118312681037
96.0,5.462231085891599,29.68473684804393,0.7920408597872233,2.7536806942868264
97.0,5.45826054173101,29.75362094940582,0.7919138135954247,2.75787493790818
98.0,5.454778278985736,29.82320644951313,0.7917843110250383,2.7620913662417954
99.0,5.451784915883672,29.893411522490474,0.791652437213706,2.7663280377699424
100.0,5.44927639934497,29.964139847989774,0.7915182982047959,2.7705828176676386
101.0,5.447244649515869,30.035307061991297,0.7913820397207609,2.7748529022771633
102.0,5.445697040762515,30.106820010428393,0.7912436809138059,2.7791369888250914
103.0,5.444629141430383,30.178589891014678,0.7911033403846633,2.7834327010303945
104.0,5.444053188204403,30.25051054982944,0.7909610582205507,2.787738686495919
105.0,5.443982176561229,30.322484058381992,0.7908168552673961,2.792053865153032
106.0,5.4444192065004,30.3944103040129,0.7906707605961133,2.7963770323258617
107.0,5.445385775781506,30.46617912038495,0.7905227759631792,2.8007073640222457
108.0,5.446885767004537,30.53769253504593,0.7903729261221306,2.8050433942440707
109.0,5.448939962803228,30.608835770426943,0.7902211513397734,2.8093854079794056
110.0,5.451567489932396,30.679496990512117,0.7900674006125467,2.813733381519653
111.0,5.454817009171256,30.74953576456041,0.7899114682349239,2.818089854738633
112.0,5.458685619448933,30.818853766934968,0.7897534222138317,2.8224526198756132
113.0,5.46320723684837,30.88732548120091,0.7895930580310863,2.8268242114496895
114.0,5.468412897859274,30.954820027848626,0.7894302246119634,2.831206408172572
115.0,5.474322621022349,31.021208651689168,0.7892648469975339,2.8355997449781833
116.0,5.480956944396407,31.08636806013452,0.7890967656323331,2.8400059367896486
117.0,5.488382794981376,31.150136822915204,0.7889256799449648,2.844429293158478
118.0,5.496562643282398,31.21242072191936,0.7887516818504728,2.8488674514175907
119.0,5.505563125480041,31.27305952544675,0.788574449533425,2.8533250650845066
120.0,5.515394060860014,31.331927862609632,0.7883938986552599,2.857802846825227
121.0,5.526043363389239,31.388913995927147,0.7882100448592895,2.862299870507251
122.0,5.537517616963732,31.443891682472657,0.788022879434765,2.8668151963969204
123.0,5.549829519126923,31.49673449503742,0.7878323493690393,2.8713492613460945
124.0,5.562952518183807,31.547341908363038,0.787638639117203,2.875898069751925
125.0,5.576835243862581,31.595635548228714,0.7874420704790207,2.8804553089988882
126.0,5.591424490230348,31.64155145493403,0.7872430054158606,2.885013832530786
127.0,5.606673162320609,31.68501705449698,0.7870418562933708,2.889565346309691
128.0,5.622436545690313,31.72603747159932,0.7868396087433069,2.894091706827072
129.0,5.638597655997316,31.764614524584893,0.7866370835103844,2.898577398697574
130.0,5.655002437915222,31.80078577927468,0.7864354225515179,2.9030010350381428
131.0,5.671456083844734,31.83462728040037,0.7862360081016622,2.9073368391224066
132.0,5.687742483941174,31.866246272685657,0.7860403967331571,2.9115557539860726
133.0,5.703595687181626,31.89579265165124,0.7858504746288899,2.9156226248809998
134.0,5.718731436447772,31.92345758659357,0.7856682677278791,2.919499619189101
135.0,5.732879281000214,31.949387852997845,0.7854956994298105,2.9231505862504235
136.0,5.745706919288823,31.97386066260727,0.7853351963447411,2.9265302445231587
137.0,5.756936798493368,31.997046063487772,0.7851887347754273,2.929601326584016
138.0,5.766246355535998,32.019173147715165,0.7850585758602621,2.9323215824323556
139.0,5.773404324258462,32.04043124276171,0.7849464627337077,2.9346578901671743
140.0,5.778169251065051,32.060926207336536,0.7848540924791139,2.936578473088898
141.0,5.780297058869685,32.08090529960617,0.7847833202027813,2.9380484545606347
142.0,5.779676632660438,32.100404988143836,0.784735005061409,2.9390513630085326
143.0,5.776226981233083,32.119424317208676,0.7847097377407393,2.9395761333127837
144.0,5.769856547199219,32.13802795433048,0.7847082911027409,2.9396082396687735
145.0,5.760563532201898,32.15617485806114,0.7847307761899367,2.9391455574980494
146.0,5.748404140491896,32.173782111626174,0.7847768996878118,2.938193652643742
147.0,5.7334823757368,32.19073296037396,0.7848460177827022,2.936764697465958
148.0,5.71597163627661,32.20680818125696,0.7849369989567659,2.934880095752936
149.0,5.696098228518752,32.221749301196006,0.7850483540856542,2.9325679191015834
150.0,5.6740820008507775,32.235347967634155,0.7851787248489833,2.9298538744474465
151.0,5.650265069501391,32.24725267838937,0.7853258122695244,2.9267810733682107
152.0,5.6249440388242595,32.257166820493254,0.7854876837053728,2.923385973386532
153.0,5.598431752893399,32.26480764685744,0.7856623098811154,2.919706697946618
154.0,5.571090381978429,32.26981247622403,0.7858472731505307,2.9157885617318713
155.0,5.5432435712973085,32.27189086265678,0.7860404312759626,2.9116716752018
156.0,5.515180847956781,32.27078998455147,0.7862398746659637,2.9073917389718855
157.0,5.487229934907509,32.266234970079836,0.7864434550686331,2.902988737419209
158.0,5.4596136091397645,32.25805137419869,0.7866497028903421,2.898490320508205
159.0,5.432551934623729,32.24608137308341,0.786857132992242,2.8939241261756785
160.0,5.4062534016910995,32.23019448590953,0.787064395816996,2.8893152599628036
161.0,5.38087207195842,32.21032669060451,0.7872704846533556,2.884682523279071
162.0,5.356525656172324,32.186444849348064,0.7874746223358475,2.8800406208206115
163.0,5.333300304197285,32.15857322756764,0.7876762298146376,2.875400555406922
164.0,5.311276898652718,32.12674645137059,0.7878748381105114,2.8707714538493008
165.0,5.290482112262741,32.091042862113135,0.7880702734198002,2.866157131383381
166.0,5.270935780414878,32.051570169697136,0.788262297532627,2.8615624776884627
167.0,5.252681108930727,32.00842411128116,0.7884507511638004,2.8569909197029655
168.0,5.235677823039374,31.961773392781485,0.7886358308480063,2.8524398019934836
169.0,5.21993455151962,31.911761206400143,0.7888174817725953,2.847911005105139
170.0,5.205417791115317,31.858550832073472,0.7889959004439063,2.843401684516314
171.0,5.19212673151184,31.802307809947436,0.7891711109160398,2.8389122436929237
172.0,5.180025712952103,31.74320976548843,0.7893432550091899,2.8344410552016854
173.0,5.16905147275524,31.6814460277382,0.7895127228460929,2.8299826567525406
174.0,5.159211946189344,31.61718128077309,0.7896793875282728,2.8255395760242563
175.0,5.150468088430764,31.55059658746999,0.7898434715602506,2.8211091753189024
176.0,5.142756663201101,31.481888743946918,0.7900052482749277,2.8166877362632063
177.0,5.136073228870632,31.411215380328475,0.7901647122761772,2.8122761384533517
178.0,5.130385492226059,31.338750447348122,0.790321957506436,2.807873837097742
179.0,5.125638658880293,31.264682033974125,0.7904771636588455,2.803478497848168
180.0,5.121820742255671,31.18916458033684,0.790630357701205,2.7990907118552357
181.0,5.118899952034039,31.112360977021947,0.7907815777803479,2.794710648309016
182.0,5.116866889778477,31.034421176096977,0.7909308056505345,2.790339436180735
183.0,5.115687614616129,30.95550170870299,0.7910780875705019,2.7859771136212528
184.0,5.1153353798315155,30.875752570078618,0.7912234427184465,2.78162418077533
185.0,5.115814300795972,30.795307372052918,0.7913667514185213,2.7772833025344807
186.0,5.117124101491372,30.714285185499744,0.7915078991094237,2.7729570821957314
187.0,5.119227119781496,30.63284498112929,0.7916469550457951,2.7686449062824487
188.0,5.122122324001579,30.551103297747268,0.7917837873080967,2.764349705518361
189.0,5.125811586309839,30.469187092975663,0.7919182404610426,2.7600743570824164
190.0,5.130266753433709,30.38723426775447,0.7920502948343301,2.7558196169013147
191.0,5.135487066323706,30.305358059850743,0.7921797918464917,2.7515885837635428
192.0,5.1414825772044725,30.22365719204954,0.7923065145686143,2.747385022213014
193.0,5.1482428488082,30.14225145972856,0.7924303667033048,2.7432108052896784
194.0,5.155762964612766,30.061251405932325,0.7925512138733907,2.7390684350521344
195.0,5.1640407782182365,29.980763884863794,0.7926688872463574,2.7349607501947264
196.0,5.173067389982167,29.90090381577401,0.7927832654638322,2.7308898519405513
197.0,5.182841527111541,29.821768580678746,0.7928941554156655,2.7268589775196412
198.0,5.193371512470182,29.7434554952428,0.7930013250247253,2.7228716788704515
199.0,5.2046305905821,29.66606511884176,0.7931047004289704,2.718929312802636
200.0,5.216617960512141,29.58969361663832,0.7932040953118842,2.7150347104111576
201.0,5.22933606848653,29.51443438418293,0.7932992897981812,2.711191205550247
202.0,5.242766072369413,29.4403787188414,0.7933901545989367,2.7074007374836073
203.0,5.256911459430336,29.36761535355513,0.793476462818131,2.703666609164518
204.0,5.271740871224081,29.296229417542964,0.7935581242278369,2.6999902329856336
205.0,5.2872622224730605,29.226307305044674,0.7936348824941828,2.6963753045303225
206.0,5.303467770293702,29.157929314005937,0.793706531995965,2.692824636822789
207.0,5.3203397964406065,29.09117688537958,0.7937729174856927,2.6893404114893253
208.0,5.3378663623886515,29.0261282069197,0.7938338520801975,2.685925172616249
209.0,5.356027793978725,28.962855697805875,0.793889182060485,2.682581113832513
210.0,5.3748204707908,28.901428581662003,0.793938663509032,2.6793115349256476
211.0,5.394229853151148,28.841913807845707,0.7939820952548163,2.6761191167864076
212.0,5.414238573184778,28.784373204439166,0.7940193088260261,2.673006075354918
213.0,5.434832759590828,28.728869863088715,0.7940501143306657,2.669974972644993
214.0,5.456001471196135,28.675465340842383,0.7940743069585863,2.6670284757967084
215.0,5.477732169988678,28.624204499965796,0.7940916769275406,2.6641694030328305
216.0,5.500009106489677,28.575138154954864,0.7941020392644521,2.6614001828162186
217.0,5.5228254435595,28.528306106739056,0.7941051618866191,2.6587238218196605
218.0,5.546165379603405,28.483754254043266,0.7941009106696977,2.6561421675857684
219.0,5.570034751610803,28.441509554915438,0.7940889937603929,2.6536590232278336
220.0,5.594418242588508,28.401603674863242,0.7940692465177496,2.6512764962633057
221.0,5.619307400420274,28.36406321890626,0.7940414824320463,2.6489970166251786
222.0,5.644697312251895,28.328905058746656,0.7940055114629818,2.64682314254741
223.0,5.6705943586051575,28.29613331828596,0.7939610600864696,2.644758275647486
224.0,5.696991691530313,28.265762542081536,0.7939080631663291,2.642803655134375
225.0,5.723899853026595,28.237786831933565,0.7938462299037072,2.6409629501526535
226.0,5.751308610766877,28.212204927104324,0.7937754339785305,2.639237892320358
227.0,5.7792252913664495,28.189003207548655,0.7936954785976251,2.6376310688687923
228.0,5.8076570054904755,28.16816725680666,0.7936061982498475,2.6361447323514815
229.0,5.836616049830952,28.149667189341688,0.7935073906539809,2.6347816139176943
230.0,5.866093519541847,28.133480512636943,0.7933989803165978,2.633542817865801
231.0,5.896109366064706,28.119568518329448,0.7932807528912436,2.632431204241357
232.0,5.926665703453135,28.107897031990383,0.7931526313635524,2.6314481101070184
233.0,5.957746705501597,28.09842281690326,0.7930145763294519,2.6305942969447687
234.0,5.989388840140102,28.091092989950646,0.7928663909469268,2.6298723595914586
235.0,6.021581579126992,28.085863360669602,0.7927080603913912,2.62928284328305
236.0,6.054332405374284,28.082687982068347,0.792539478581411,2.628827340862588
237.0,6.087642403295194,28.081497912366096,0.7923606379460174,2.6285063001726936
238.0,6.1215108192980034,28.082233887718527,0.7921714951835663,2.6283207162290814
239.0,6.155931058241373,28.084832165396783,0.7919721353341527,2.628269864623946
240.0,6.190899899271035,28.08923701337886,0.7917625455682265,2.628354349405552
241.0,6.226407217227627,28.095386263829205,0.791542800313036,2.6285736902338255
242.0,6.262455045719779,28.103208108591275,0.7913129256501384,2.6289280053823463
243.0,6.299000870606556,28.11264647925125,0.7910731467861182,2.6294150623355255
244.0,6.336054658130929,28.123625706868044,0.7908235200745888,2.6300346660635574
245.0,6.373583371164211,28.13609203992928,0.7905642296792482,2.630784979124692
246.0,6.411575132976821,28.149964858619573,0.7902954367395469,2.6316647489420366
247.0,6.449977675931374,28.16519791298791,0.7900174493849642,2.6326706605783303
248.0,6.488801010652911,28.18170188558025,0.7897303703563471,2.633802202250296
249.0,6.52797400904343,28.199438247776616,0.7894345938343484,2.6350549780205705
250.0,6.567490695777345,28.218334301816014,0.7891302870284203,2.6364277192389225
