Time,J,A,S,tau
0.0,100.0,10.0,0.577790743554327,66.55685728962825
1.0,99.84934990058213,8.972776648399352,0.5769305776900409,67.55605918105779
2.0,99.70046479897732,8.05126535293997,0.5760813702362679,68.55545573343817
3.0,99.55348602599256,7.224791092448359,0.5752425295143446,69.55488595833913
4.0,99.40830406037303,6.483501548532589,0.5744134875760178,70.55434648090863
5.0,99.26481285423188,5.818574629045124,0.5735936900184726,71.5538342590493
6.0,99.12290957752563,5.222105841608977,0.5727825952990191,72.55334654326657
7.0,98.98249438183963,4.687013891294774,0.571979674060543,73.5528808415553
8.0,98.84347018172832,4.206955487089517,0.5711844084719041,74.55243488861032
9.0,98.70574245036264,3.776247637813708,0.5703962915791153,75.55200661863203
10.0,98.56921902208586,3.3897964010148893,0.5696148266420483,76.55159414084599
11.0,98.43380990831614,3.043036545956994,0.5688395264901114,77.55119571794091
12.0,98.299427124545,2.7318772805868474,0.5680699128938803,78.55080974691965
13.0,98.16598452551149,2.452651746182962,0.5673055159449274,79.55043474190092
14.0,98.0333976448637,2.20207211719522,0.5665458734307726,80.55006931845895
15.0,97.90158354362875,1.9771904290394153,0.5657905302283287,81.54971217958324
16.0,97.77046066643071,1.77536505500724,0.5650390377151498,82.54936210297805
17.0,97.63994870139929,1.5942265867132928,0.5642909531827061,83.54901792930949
18.0,97.50996844160713,1.4316497159079025,0.5635458392430239,84.54867855121655
19.0,97.38044165790417,1.2857298079276775,0.5628032632794124,85.54834290337622
20.0,97.2512909686435,1.154757330131279,0.562062796873429,86.54800995283411
21.0,97.12243971513304,1.0371995834059264,0.5613240152522951,87.54767868993424
22.0,96.99381184165873,0.9316820387973263,0.5605864967547597,88.547348119578
23.0,96.8653317735384,0.8369709187046588,0.5598498222828435,89.5470172525964
24.0,96.73692430060322,0.7519602987811557,0.5591135747797865,90.54668509728894
25.0,96.60851446046081,0.6756575871181727,0.5583773387074441,91.54635065084588
26.0,96.48002742268467,0.6071721528746917,0.5576406995285645,92.54601289073942
27.0,96.35138837419544,0.5457055146004305,0.5569032432014049,93.54567076567572
28.0,96.22252240430852,0.49054072176547225,0.556164555676032,94.545323186291
29.0,96.09335439038183,0.4410347911629572,0.5554242224010545,95.5449690153548
30.0,95.96380888098146,0.3966109531986315,0.554681827830609,96.54460705701257
31.0,95.83380998078368,0.3567514120817769,0.5539369549466397,97.54423604567745
32.0,95.7032812315581,0.32099199730201783,0.5531891847798652,98.54385463355011
33.0,95.57214549110876,0.28891611571868314,0.5524380959372498,99.54346137697108
34.0,95.44032481325462,0.260150027606627,0.5516832641492642,100.5430547218892
35.0,95.30774031846838,0.2343587713468177,0.5509242618023269,101.54263298686695
36.0,95.17431206635352,0.21124173823043155,0.550160657499922,102.54219434493027
37.0,95.03995892287746,0.19052953794215147,0.5493920156290484,103.54173680317798
38.0,94.90459841639587,0.1719807754719679,0.5486178959163547,104.54125817897372
39.0,94.76814659807994,0.1553790429426087,0.547837853032055,105.54075607469963
40.0,94.63051788631573,0.14053071443867288,0.547051436174911,106.54022784789986
41.0,94.49162490454367,0.1272624374220593,0.5462581886793251,107.53967057762287
42.0,94.35137831792102,0.11541918975548923,0.5454576476643739,108.53908102766377
43.0,94.20968664445216,0.10486261551690469,0.5446493436562205,109.53845560221839
44.0,94.06645606697492,0.09546920693977329,0.543832800276157,110.5377902976252
45.0,93.92159022831912,0.08712904748756503,0.5430075339436666,111.53708064701323
46.0,93.77498999819672,0.07974451646276048,0.5421730535804539,112.53632165454839
47.0,93.62655324326931,0.07322906889262057,0.5413288604091612,113.53550772469382
48.0,93.47617455119806,0.06750649381917823,0.5404744477288889,114.53463257614943
49.0,93.32374495129577,0.06250977274977829,0.5396093007970835,115.5336891475238
50.0,93.16915159106063,0.05818058366123678,0.5387328967264169,116.53266948587428
51.0,93.01227738999044,0.054468450968503425,0.5378447044767872,117.53156462050981
52.0,92.8530006405775,0.051330468070079,0.5369441848909436,118.5303644145359
53.0,92.69119460415033,0.048730571731869954,0.5360307908886772,119.5290574037244
54.0,92.52672698638216,0.04663943962732661,0.535103967654259,120.52763059150358
55.0,92.35945942604332,0.04503412357317555,0.5341631530560502,121.52606923300978
56.0,92.18924688954199,0.04389789044360063,0.5332077781567418,122.52435657799903
57.0,92.01593700693131,0.043220078323083215,0.5322372678949625,123.52247358012214
58.0,91.83936908614713,0.04299669819409601,0.5312510418478817,124.52039848192065
59.0,91.65937360821162,0.043229662750503654,0.5302485155300708,125.5181065390444
60.0,91.47577095242227,0.04392741477002052,0.5292291015819712,126.51556946727928
61.0,91.28837029255352,0.04510539082552405,0.528192211458446,127.51275491713133
62.0,91.09696838426639,0.04678631288161934,0.5271372574044486,128.50962588624222
63.0,90.90134800324161,0.04900081210916555,0.5260636548387835,129.50613997210868
64.0,90.70127626038857,0.05178822327124572,0.5249708251852262,130.50224854529873
65.0,90.49650260957564,0.05519743995764667,0.5238581992743809,131.497895764675
66.0,90.28675672456222,0.0592880147305584,0.5227252212297351,132.49301750570936
67.0,90.07174577966371,0.0641314287541062,0.5215713532594345,133.4875399968087
68.0,89.85115160028715,0.06981278637518473,0.5203960810453566,134.4813783580977
69.0,89.62462726938601,0.07643224306182625,0.5191989201657164,135.47443485268138
70.0,89.39179326101035,0.08410739749526772,0.517979423499645,136.4665968815051
71.0,89.15223289225476,0.0929756654577554,0.516737190012979,137.45773460775854
72.0,88.90548738138146,0.10319690657165911,0.5154718745758154,138.44769834095584
73.0,88.65104994462969,0.11495687056624916,0.5141831995936488,139.43631540741282
74.0,88.38835909577207,0.12847070192039298,0.5128709683873294,140.4233865631068
75.0,88.11679129146486,0.14398704569504306,0.5115350800678486,141.40868201777906
76.0,87.8356521248246,0.16179310951500825,0.5101755472210865,142.3919366618347
77.0,87.54416674004152,0.18221957225699015,0.5087925154418452,143.37284480675797
78.0,87.24146909802184,0.20564669293631924,0.5073862852417307,144.3510542547555
79.0,86.92658941084993,0.232511161105978,0.5059573376296422,145.32615931693647
80.0,86.59844094836154,0.2633128410504048,0.5045063612878974,146.297693380112
81.0,86.25962741511535,0.3006291581548955,0.503034283366837,147.26512040158235
82.0,85.96664138275848,0.372715465516617,0.5015423030047662,148.22782557862996
83.0,85.67529462390011,0.45460014078472144,0.5000319274672005,149.1851051878728
84.0,85.38786898831243,0.5476831539858771,0.49850501049736223,150.1361556767608
85.0,85.10721578862804,0.65354834312059,0.4969637923957331,151.08006210215876
86.0,84.83686573720104,0.7739806441770668,0.49541094036678407,152.015786285279
87.0,84.58115330562016,0.9109827462269809,0.49384958826857134,152.94215487409522
88.0,84.34535308691459,1.0667901067777725,0.4922833736097959,153.85784787140216
89.0,84.13582439429528,1.2438832356433704,0.49071646953918663,154.76138821270533
90.0,83.96015750405259,1.4449956065653953,0.48915360847115946,155.65113329915542
91.0,83.82731164318567,1.6731156626948056,0.48760009415369027,156.52526935010678
92.0,83.7477290216355,1.931480983624101,0.4860617981041311,157.38180970960863
93.0,83.73340188072525,2.223562580765332,0.4845451359997031,158.21859837014804
94.0,83.79786807741903,2.553037279599259,0.4830570198792707,159.03331992019667
95.0,83.95609587444267,2.923746650661388,0.4816047824547325,159.82351704122374
96.0,84.22421959642926,3.33964096472104,0.48019607031311895,160.58661660265608
97.0,84.61908077567338,3.8047079884522006,0.4788387051443449,161.31996477928072
98.0,85.15753072277725,4.3228879731764325,0.47754051489911575,162.02087085975424
99.0,85.85546107177669,4.897974867311832,0.47630913603577124,162.68665943715047
100.0,86.7265667977899,5.533511917535606,0.47515180039373134,163.3147279881738
101.0,87.78080942101269,6.232679533269282,0.47407510544368947,163.9026093451226
102.0,89.02270661075127,6.998189582203496,0.4730847932183106,164.4480331587707
103.0,90.44953831003329,7.832188896089016,0.4721855458499497,164.94898352078167
104.0,92.04962309277569,8.736178439821447,0.47138081039395263,165.40374922755382
105.0,93.8007347766122,9.71094444258766,0.47067264341033166,165.81096869662196
106.0,95.66953876386343,10.756548452412536,0.47006167793797504,166.16964309653295
107.0,97.61117987247925,11.87230450417798,0.4695470595076842,166.47915608703912
108.0,99.57022704724774,13.056810844706957,0.4691264919589341,166.73926435461047
109.0,101.48255207014759,14.308002662310457,0.46879632921753794,166.95007506853474
110.0,103.27814243814586,15.62321827625829,0.4685516924657159,167.11201558202336
111.0,104.88483012733718,16.99928796846153,0.46838663555609317,167.2257896722313
112.0,106.23244500911865,18.43262966045717,0.4682943270163357,167.2923287711101
113.0,107.25702266947543,19.919345970323434,0.468267236789935,167.31274150166382
114.0,107.90466015950216,21.45531833512351,0.4682973194038163,167.2882639294202
115.0,108.13459202334325,23.036295324844573,0.46837618734686903,167.22021237560358
116.0,107.9210774937757,24.65797080548615,0.46849526672739267,167.1099411175017
117.0,107.25408368916915,26.316050421525517,0.46864593111531394,166.9588060592956
118.0,106.1385014024597,28.006304674895766,0.4688196107754063,166.76813543686745
119.0,104.59249818437078,29.724610793012648,0.4690078805194014,166.53920638163856
120.0,102.64495580346163,31.46698497333728,0.46920252819143277,166.27322703443738
121.0,100.33233619300825,33.22960012796445,0.46939559902909517,165.97132563835456
122.0,97.69564109456039,35.00880057207795,0.4695794293697274,165.63454256224327
123.0,94.77749628675662,36.80110672172923,0.46974666427150014,165.26382704966917
124.0,91.6197216165538,38.60321502910919,0.46989026526271616,164.8600368423453
125.0,88.2614957251427,40.4119937668129,0.4700035101309651,164.42394016742958
126.0,84.73815049530629,42.22447581498931,0.4700799869763248,163.95621946699387
127.0,81.08055001382807,44.03784942445932,0.4701135844054957,163.4574763447304
128.0,77.31495538338665,45.849447745930846,0.47009847939694516,162.92823730140952
129.0,73.46325090778787,47.65673774039281,0.4700291240267219,162.36895992377708
130.0,69.54340394197695,49.45730893224739,0.4699002320678696,161.7800392527373
131.0,65.57004264594933,51.24886267752773,0.4697067661558296,161.1618141009563
132.0,61.55507597580945,53.02920118729285,0.46944392532611345,160.51457338708363
133.0,57.508258673184194,54.796218822078664,0.46910713612031557,159.83856171813807
134.0,53.43772740827879,56.547891892458075,0.4686920416890468,159.13398542857095
135.0,49.350415444641385,58.282271843688804,0.4681944974062097,158.401017390707
136.0,45.25241513257318,59.99747649145243,0.46761056101471804,157.63980252393392
137.0,41.14922707679681,61.69168457767797,0.46693649048775676,156.8504618954892
138.0,37.045955971225226,63.363131059017746,0.46616874454457186,156.03309664964547
139.0,32.94745813337151,65.01010181223491,0.46530398051755223,155.1877920695858
140.0,28.85843744942995,66.63092963877538,0.46433905325787345,154.3146211004158
141.0,24.783507661610294,68.223991405084,0.46327101699701584,153.4136473643035
142.0,20.727233008020985,69.78770601116214,0.46209712952241633,152.48492792650495
143.0,16.694152707552195,71.32053331437598,0.46081486009210054,151.52851591922456
144.0,12.688793484181415,72.82097174628188,0.4594218861003753,150.54446295076804
145.0,8.715671644054668,74.28755903473805,0.45791610529518123,149.53282114350208
146.0,4.779291237026745,75.71887158753769,0.45629563747315804,148.49364503350506
147.0,0.8841374342355346,77.11352540611004,0.4545588336303169,147.4269933366676
148.0,0.0,78.05774000711708,0.5426284997992986,53.30191640752034
149.0,0.0,81.65599473600508,0.5497010104625726,47.694111296372796
150.0,0.0,85.82382814857341,0.5509717492749603,44.69332086428937
151.0,0.0,89.58467909009505,0.5499889646972469,42.61805607606008
152.0,0.0,92.4060511043782,0.5478149066979863,41.016423340770686
153.0,0.0,94.058790474364,0.5449230158120666,39.700782467913214
154.0,0.0,94.53548850316798,0.5415682886913972,38.57564954892503
155.0,0.0,93.9715509373897,0.5379046926676556,37.58613781637898
156.0,0.0,92.57344016614776,0.5340324420110674,36.69806580187371
157.0,0.0,90.56249865618511,0.5300203488169412,35.8888893919941
158.0,0.0,88.13892394753829,0.525917598909725,35.14307193157016
159.0,0.0,85.4644304205515,0.5217604308513284,34.44953522718749
160.0,0.0,82.65883191448685,0.5175762044177614,33.8001521153848
161.0,0.0,79.8047897826432,0.5133859882711476,33.18881452950347
162.0,0.0,76.9558984172421,0.50920627416085,32.61083405465538
163.0,0.0,74.14503254200694,0.5050501565652075,32.06254098863844
164.0,0.0,71.39129066728947,0.5009281604672938,31.541012254975033
165.0,0.0,68.70515251586221,0.49684884034547544,31.04387912985544
166.0,0.0,66.09192658522275,0.4928192124192531,30.56919324791045
167.0,0.0,63.553960981413574,0.48884508847229335,30.11532659459832
168.0,0.0,61.09194000564992,0.48493131496992653,29.680902118491918
169.0,0.0,58.70563596508639,0.4810819491205203,29.26474126204114
170.0,0.0,56.394326771036916,0.47730046104784324,28.86580913055256
171.0,0.0,54.15703348070629,0.473589754487716,28.483216086814647
172.0,0.0,51.99255842096901,0.4699523536388471,28.11615138603926
173.0,0.0,49.89969957179578,0.46639038557840223,27.76391248889622
174.0,0.0,47.877076254793344,0.4629057297101373,27.42584025491239
175.0,0.0,45.92335860205487,0.4594999403996749,27.10136204067367
176.0,0.0,44.037140807096485,0.4561744498769423,26.78992946060685
177.0,0.0,42.21694132905085,0.4529303978750673,26.49105697992689
178.0,0.0,40.46136813563803,0.4497688572349024,26.20428410603913
179.0,0.0,38.76884748847797,0.4466906820107716,25.929188089556344
180.0,0.0,37.137976839132016,0.44369665249103785,25.665376624777878
181.0,0.0,35.567182521153654,0.44078741434024427,25.41247815700843
182.0,0.0,34.054965758004876,0.4379635182495918,25.170148362355803
183.0,0.0,32.59977578905748,0.43522541999457015,24.93806268220197
184.0,0.0,31.200076339325182,0.43257350130121813,24.715915218314915
185.0,0.0,29.854350461131435,0.4300080678850565,24.503418899158586
186.0,0.0,28.561058986323303,0.4275293582375567,24.30030182892931
187.0,0.0,27.318676912710107,0.425137549320569,24.106307425232544
188.0,0.0,26.12569113222562,0.42283276229128397,23.921192936593044
189.0,0.0,24.980596159965696,0.4206150653087986,23.744728635848336
190.0,0.0,23.881902482687995,0.4184844783970001,23.576696929034913
191.0,0.0,22.828138404384276,0.4164409766940054,23.416891611737206
192.0,0.0,21.817848964965773,0.4144844931952729,23.265117210439044
193.0,0.0,20.849603530523257,0.41261492188339016,23.12118837367063
194.0,0.0,19.921997799951015,0.41083212010812525,22.9849293171528
195.0,0.0,19.03365905617739,0.4091359108303471,22.856173326662898
196.0,0.0,18.1832483713636,0.4075260847675611,22.73476226707922
197.0,0.0,17.369470806117207,0.40600240206221394,22.62054621871882
198.0,0.0,16.591082458847023,0.4045645942000285,22.5133830163006
199.0,0.0,15.846899290840822,0.40321236549211287,22.41313790958404
200.0,0.0,15.135811533052317,0.4019453943095951,22.319683248555545
201.0,0.0,14.45679533963217,0.4007633346589944,22.232898104218915
202.0,0.0,13.808930723249143,0.39966581705174575,22.152668035585474
203.0,0.25968344302038554,13.191418519221488,0.39865244971641745,22.078884767105226
204.0,1.6700205066835472,12.603598786027973,0.39772281954265726,22.01144593925328
205.0,3.163793165658267,12.044968735630784,0.3968764930364241,21.95025487939151
206.0,4.73960654670992,11.515210940603872,0.39611301608725613,21.89522034086287
207.0,6.394382249880234,11.01419377586349,0.3954319160961659,21.846256304742813
208.0,8.123427433511372,10.541993496926493,0.394832701629274,21.803281761892503
209.0,9.920382450136893,10.09889941643782,0.3943148631176874,21.766220516096528
210.0,11.77724098866147,9.685415147632261,0.3938778732678345,21.73500099713873
211.0,13.684419692949888,9.302252770235553,0.39352118740079484,21.70955608308253
212.0,15.630879715114466,8.950319113921337,0.3932442437346284,21.689822931383105
213.0,17.604299873113643,8.630694086473014,0.3930464635983173,21.67574282108845
214.0,19.59131097087136,8.344601887697321,0.3929272515169345,21.667260997027334
215.0,21.577754949518486,8.093374221913542,0.39288599534883684,21.664326519792745
216.0,23.548965545521074,7.8784080738641995,0.39292206633029836,21.666892124857707
217.0,25.490046650821544,7.701119077994536,0.3930348190674361,21.67491408760478
218.0,27.386124662482956,7.562892137431332,0.3932235914831732,21.688352093809396
219.0,29.222552807025473,7.46503080616649,0.393487704734731,21.707169115606995
220.0,30.985057039132215,7.408707048479202,0.39382646307920244,21.731331294647152
221.0,32.65983324453632,7.394913879325518,0.39423915364634876,21.760807824639826
222.0,34.233583367788356,7.424420712441844,0.3947250462876222,21.79557083852
223.0,35.69352951398925,7.4977332570508715,0.3952833934076473,21.835595299845355
224.0,37.02746449545154,7.615058667448635,0.3959134295816328,21.880858904540876
225.0,38.22382578186618,7.776276679978362,0.39661437138476907,21.931341973736075
226.0,39.271839707223194,7.980915450037282,0.39738541719770204,21.987027360361395
227.0,40.16181236219868,8.22813530732338,0.3982257466027862,22.04790035936235
228.0,40.8854036989624,8.516717857642568,0.3991345204949062,22.11394860549773
229.0,41.436078480163545,8.845060578214815,0.4001108802419027,22.185162004289374
230.0,41.809436944638506,9.211183646452461,0.4011539478289282,22.261532623278466
231.0,42.00357549494884,9.612739756464523,0.4022628253873148,22.34305462055743
232.0,42.01934024127946,10.047034466131795,0.403436594861584,22.429724162221074
233.0,41.86045052670825,10.511054748527762,0.4046743176316321,22.521539344885813
234.0,41.5334588002131,11.001505816800588,0.40597503417136604,22.61850012522202
235.0,41.04753779975533,11.514857669535246,0.4073377638704694,22.720608243942745
236.0,40.414155179509066,12.047398366418546,0.40876150457258664,22.82786715478512
237.0,39.64661764086405,12.595291814262273,0.41024523261721263,22.94028194338527
238.0,38.75959805274258,13.154635197439504,0.41178790217838684,23.057859287408146
239.0,37.76860938194264,13.721517983430493,0.41338844509948586,23.1806073781144
240.0,36.68951636580119,14.2920740017229,0.4150457706248405,23.308535865646494
241.0,35.53810413284392,14.862525446104355,0.4167587651249682,23.441655803815305
242.0,34.329724841917454,15.429216018595248,0.41852629182221857,23.579979598705638
243.0,33.079031812040036,15.988632099657181,0.42034719051305397,23.723520961497
244.0,31.79980057103888,16.537412408861112,0.42222027728214556,23.872294865968716
245.0,30.504828408390505,17.07234825137608,0.42414434420230657,24.02631751123992
246.0,29.205898806362583,17.590377844679733,0.42611815901299066,24.1856062903871
247.0,27.913794549069287,18.088579119755092,0.42814046476864354,24.35017976568552
248.0,26.63834302369023,18.564165653573884,0.43020997944658856,24.520057651338217
249.0,25.388479042982517,19.014489658089442,0.43232539550233917,24.69526080468881
250.0,24.17231313881244,19.437055027623853,0.43448537935823656,24.875811227064716
251.0,22.997196991794052,19.82954159774507,0.43668857080909157,25.061732075567168
252.0,21.86978135029985,20.189839922626938,0.43893358232603386,25.25304768731742
253.0,20.796065699609017,20.516093573107508,0.4412189982370219,25.449783617886478
254.0,19.78144049388732,20.806745687496207,0.44354337375939973,25.651966695882965
255.0,18.830727995432778,21.06058413441872,0.4459052338911437,25.85962509343982
256.0,17.948214472591264,21.276782450731215,0.4483030719328631,26.072788428376704
257.0,17.13770036473299,21.454927702688572,0.4507353480568976,26.29148787279593
258.0,16.402550103216047,21.595037389223425,0.4532004873780899,26.51575629942297
