Time,J,A,S,tau
0.0,100.0,100.0,0.9984908085091764,9.00900900900901
1.0,98.4824906743442,98.3062242060028,0.9887032545257148,6.801794070923701
2.0,97.02585819880666,96.67748695165237,0.9793792016804784,4.619073051337017
3.0,95.70778950123882,95.03209082035482,0.9708172186974035,2.7805362843466237
4.0,94.82546434248106,93.0719120013962,0.9718096582336024,2.80566287593196
5.0,93.98559804555133,91.18761722494023,0.9728085842180627,2.833222300395876
6.0,93.18667920775665,89.3764194582471,0.973809157028154,2.8635024731653735
7.0,92.42708531170477,87.63553972271185,0.9748064035702383,2.896768737263795
8.0,91.70543228466984,85.96240550759875,0.9757956490139382,2.933171030323614
9.0,91.02022631180509,84.35446977076496,0.9767716983601251,2.9725837612596124
10.0,90.36999546255522,82.80914117025162,0.9777301275176122,3.0143916722745407
11.0,89.75352129038157,81.32422097875612,0.9786662358506538,3.0574512981312534
12.0,89.16934573429221,79.89739427243342,0.9795762524480249,3.100404208607002
13.0,88.61630262978024,78.52649266851164,0.9804568659061882,3.1422152611347536
14.0,88.09302818230668,77.20932973446521,0.9813010660729851,3.182329266158001
15.0,87.5983512558852,75.94390247749331,0.9821020613531903,3.220602732018647
16.0,87.13115742252765,74.72825425796816,0.9828531031656746,3.2571107777970605
17.0,86.69039419965186,73.56057505527905,0.9835464648640692,3.2920730727258296
18.0,86.2750561000055,72.43910924608149,0.9841754268105076,3.325771775534859
19.0,85.88427293311335,71.3622604819128,0.9847366082628313,3.3585333176251098
20.0,85.51722357567861,70.32850607465444,0.9852300885865483,3.390697246194644
21.0,85.17319875194569,69.33646955889898,0.9856615250377403,3.4226162157136475
22.0,84.85159348877467,68.38490650481472,0.9860424852317256,3.454666922736301
23.0,84.55189009033248,67.4727169509674,0.9863903496255562,3.4872600284972997
24.0,84.27368393108551,66.59898107813588,0.9867268867908525,3.5208609015058467
25.0,84.01668835844671,65.76294688262054,0.9870751790649943,3.5560444252401355
26.0,83.78070140759105,64.96408036385668,0.9874562313670692,3.5935292096138713
27.0,83.56563236586011,64.20205049407359,0.9878847538909895,3.634279585684261
28.0,83.37144922012948,63.47676839131209,0.9883657668759571,3.679633929148244
29.0,83.19820743409409,62.78837645486796,0.9888932070052088,3.7315394322445914
30.0,83.04610215730375,62.13717085515018,0.9894515951680393,3.793040535866556
31.0,82.91723181546776,61.52196430599495,0.9900211677817893,3.8698865536222447
32.0,82.83114315752891,60.92426452567665,0.9905814852068247,3.9742867655150143
33.0,82.79350636103108,60.3398274579799,0.9911163835606729,4.096351432849376
34.0,82.75272321484469,59.82160952069967,0.9916101736663927,4.195363777490108
35.0,82.72826251540343,59.351752481034374,0.9920391380444649,4.275833027124327
36.0,82.72701816672615,58.924911209670746,0.992378123983007,4.346096334567035
37.0,82.74890675905486,58.542772245477394,0.9926155053797239,4.4107268134331195
38.0,82.79302558531208,58.207638601736264,0.9927720842162948,4.473102577403471
39.0,82.85850626840013,57.92174856625264,0.9929024963288249,4.536342242569304
40.0,82.94417815124794,57.68733275785854,0.9930733147243308,4.604002377605076
41.0,83.04853415041966,57.50661274963217,0.9933275412994584,4.68117738230578
42.0,83.1715274820649,57.38012831356949,0.9936601201883574,4.777769596243706
43.0,83.40594060180513,57.21690222407524,0.9940284147074351,4.941859051427727
44.0,83.85828383210365,56.910147443272145,0.9943811207173148,5.1814804643156
45.0,84.08062660384621,56.90834531898634,0.9946704052650526,5.305720372734899
46.0,84.3061579107027,56.9753535941572,0.9948478360079528,5.403058707119688
47.0,84.53980653654929,57.10450590199584,0.9949301163271451,5.491586360357794
48.0,84.77883931146927,57.29663082412235,0.9950092151337765,5.5812879638251145
49.0,85.0191257048608,57.553698244161886,0.995174172621043,5.683467578046344
50.0,85.2887198485273,57.8466744365829,0.9954279481330017,5.831160428394783
51.0,86.20107904868165,57.561855575410014,0.9956945606851567,6.204844104402304
52.0,86.50701391599266,57.946348691943854,0.9958955385849493,6.350770201585915
53.0,86.79284849172043,58.40730879346201,0.9959829339515222,6.4628356012186465
54.0,87.06963914267946,58.92997281693897,0.9960327601584156,6.570241216750126
55.0,87.33718532954863,59.51119743907535,0.9961600871160796,6.69339902764636
56.0,88.1719810836162,59.576276938539024,0.9963664250494141,7.038559414340617
57.0,88.81755548663837,59.87393195455119,0.996552495827642,7.326860592591606
58.0,89.10058951737653,60.578362944367754,0.9966339029329754,7.459162760720672
59.0,89.35730863648537,61.345791157946806,0.9966746166433377,7.583017521366146
60.0,89.60553108759962,62.15555644453599,0.9967963791756813,7.735974086445472
61.0,90.93141898411629,61.92161824893249,0.9969647440031412,8.269780704681597
62.0,91.1886754431385,62.78739478427743,0.9970601322480592,8.432841536556769
63.0,91.31347454876416,61.151858197380506,0.997090816510906,8.571625123278542
64.0,91.33528877606742,56.003135523910174,0.9971920704836077,8.747854472227734
65.0,92.52847049248572,48.55011213607285,0.9973245968262828,9.33234130232972
66.0,92.57773885916605,42.032898697824095,0.997371870447692,9.495177503132124
67.0,92.69462471992247,35.717637891347714,0.997417912575501,9.658893896317128
68.0,94.19900483354195,28.758888459645895,0.9975322769512269,10.290943783032851
69.0,94.5386981783295,23.833751552658487,0.9975847698405983,10.480922055442363
70.0,94.95449082513522,19.622473222499103,0.9976207446283843,10.660711589861474
71.0,96.69759921939742,14.943982350074121,0.9977165715636737,11.336955063189611
72.0,97.02921824875871,12.350525846677119,0.9977431836793287,11.530450211066743
73.0,97.32227932995636,10.182988571106621,0.9978004455804399,11.79166419835614
74.0,98.5802128782322,7.492667239737969,0.9978570444394503,12.447634272896991
75.0,98.35153639177722,6.534184118773788,0.9978768556038999,12.658138452906893
76.0,99.31260663747993,4.614876235520166,0.9979417764415196,13.39917238007869
77.0,98.88092033120947,4.226029515133417,0.9979516175818759,13.61935282747513
78.0,99.49971395534392,2.9092603105163657,0.9980083860748391,14.38885590302385
79.0,98.82062809379877,2.952208513006515,0.9980156970812363,14.625327978910482
80.0,99.2139707467663,1.9919718685544514,0.9980619317580083,15.418794705398144
81.0,98.36052564428105,2.273953886591844,0.9980715011303634,15.68121579527439
82.0,98.57739563269557,1.5477784684724072,0.9980992921390842,16.483486096583604
83.0,98.63503518498516,1.106413026094427,0.9981174330837048,17.277962740428052
84.0,97.70684121201421,1.6366867414467097,0.9981246414671445,17.582881606225445
85.0,97.81916537764091,1.0831514999784173,0.998151775581032,18.435231631415256
86.0,97.54689567267874,0.984375170611075,0.9981561049291562,19.205647868216655
87.0,96.76596553250528,1.3563834072201086,0.998160857556582,19.58782041915628
88.0,96.79124498051893,0.9025285426990011,0.9981776484806975,20.46911862557036
89.0,96.73001550440324,0.6521889825379027,0.998185271884422,21.348773873978452
90.0,95.76508370911867,1.2023890605235987,0.9981850496597082,21.69498124224758
91.0,95.60753492305135,0.9044434159598425,0.9981838187935487,22.574297992476264
92.0,95.56000307016177,0.6118611053499693,0.9981913222910246,23.4890955816306
93.0,95.49038225911382,0.43622253693609236,0.9981961306681778,24.409790417109697
94.0,95.32297359424754,0.3975614789375511,0.998192278083091,25.317293849258903
95.0,94.52878637087072,0.8544218287418401,0.9981908172408743,25.714791576186627
96.0,94.31330584746094,0.6755686980594257,0.9981840669597901,26.619671213901846
97.0,94.2121354267737,0.47330767328654105,0.9981813581228148,27.55996581751765
98.0,94.13530246618102,0.3311405538506136,0.9981807971525136,28.510620106944906
99.0,94.06274160896406,0.24233775473330563,0.9981799851642125,29.46645831492312
100.0,93.98578309601282,0.1925958889533428,0.9981774301340387,30.42489168018066
101.0,93.89987381469994,0.16938139477550054,0.9981726460814201,31.383679465610378
102.0,93.79073387311973,0.17191848977561197,0.9981659064912027,32.339248828403676
103.0,93.6230562723801,0.21434333964506017,0.9981581430941573,33.27960116970072
104.0,93.17387275956251,0.4392275952567687,0.9981562399501192,33.78007010416574
105.0,92.96057050759904,0.3835568131591646,0.998149206625813,34.691222577623435
106.0,92.85502422022095,0.2731288546619139,0.9981418351891992,35.652148932381955
107.0,92.77902979131056,0.19258814215001885,0.9981350922876814,36.62394057033352
108.0,92.71853052097454,0.13890318669624593,0.9981289595477887,37.60112275817197
109.0,92.66803473978035,0.10367338515126581,0.9981233135859823,38.581739753036175
110.0,92.62466242711982,0.08032455972340528,0.9981180293637265,39.56483064030425
111.0,92.58664928685312,0.06447784136317591,0.998113003001319,40.54983193129676
112.0,92.55281647024937,0.053379185471466216,0.9981081560904432,41.53637407340908
113.0,92.52233275545272,0.04532467791567114,0.9981034329818522,42.52419562127585
114.0,92.49459009612957,0.03926917767324983,0.9980987963960672,43.51310105585455
115.0,92.46913174739109,0.03455967451747987,0.9980942229733365,44.502938595036525
116.0,92.44560647423769,0.030789784051675564,0.9980896992713798,45.49358644837121
117.0,92.42373898769182,0.02769293029165667,0.9980852187794883,46.484944961118416
118.0,92.40330842315626,0.025089800418994376,0.9980807793563543,47.47693074001055
119.0,92.38413601560416,0.022870575917626118,0.9980763817305036,48.46947299627635
120.0,92.36607292764923,0.020937709478190007,0.9980720280186062,49.46251129657107
121.0,92.34899419110859,0.019229518708480907,0.9980677210050252,50.45599315866336
122.0,92.33279210748752,0.01769297514034319,0.9980634636396607,51.449872614584386
123.0,92.31737113991349,0.01626499038625568,0.998059258641835,52.444109400883804
124.0,92.302618890328,0.014661316394878752,0.9980551080659904,53.43866785478486
125.0,92.28853366539599,0.01364273463691879,0.9980510135237051,54.43351610291834
126.0,92.27505404159096,0.012910597036372054,0.9980469761001378,55.42862573272616
127.0,92.262121661501,0.012318607920320834,0.9980429962018629,56.42397118278902
128.0,92.24968372123867,0.011809604397872856,0.9980390737940499,57.419529305948124
129.0,92.23769208699109,0.01135978194379134,0.9980352082478291,58.41527906246408
130.0,92.2261031691169,0.01095763934561292,0.9980313984976662,59.41120146099144
131.0,92.21487665330335,0.010596942968081606,0.9980276430764928,60.407279075529395
132.0,92.20397469834208,0.010274047640768686,0.9980239402706733,61.40349572972522
133.0,92.19336262881208,0.009985615928833905,0.9980202879226168,62.39983672522148
134.0,92.18300747065949,0.009729430876050934,0.9980166837724265,63.396288276154564
135.0,92.17287809061153,0.009503613750546768,0.9980131253274271,64.39283753698692
136.0,92.16294476446328,0.009306621579822776,0.9980096099042333,65.38947242106104
137.0,92.15317917922349,0.009137050707853653,0.9980061346156197,66.38618157527345
138.0,92.1435539337024,0.008993857056224195,0.9980026965142308,67.38295417556537
139.0,92.1340424304836,0.008876186592846317,0.9979992925334852,68.37977986845459
140.0,92.12461832036506,0.008783574203383104,0.9979959195814223,69.37664855490941
141.0,92.11525559558105,0.008715671291138665,0.9979925744825756,70.37355040512126
142.0,92.10592841109312,0.008672268842506128,0.9979892539986651,71.3704757767216
143.0,92.09661050325163,0.008653540317472992,0.9979859548629181,72.3674149967098
144.0,92.08727517287683,0.008659827777292298,0.9979826737609775,73.36435833860675
145.0,92.07789508808297,0.008691699684981333,0.9979794073539489,74.36129593553622
146.0,92.06844167421066,0.008750077747500697,0.9979761522975416,75.3582175532639
147.0,92.05888491184677,0.00883622238309403,0.9979729051711966,76.3551125023116
148.0,92.04919287822068,0.00895174979688827,0.9979696625609519,77.35196945507025
149.0,92.03933128825763,0.009098702964056352,0.9979664210184573,78.34877626140009
150.0,92.02926271222931,0.009279800170061213,0.997963177098258,79.34551964588977
151.0,92.01894659336467,0.009497904872150513,0.9979599273071045,80.3421851626625
152.0,92.00833729068637,0.009757220400393266,0.9979566681100389,81.33875647325304
153.0,91.99738383143408,0.010062545526335464,0.9979533960263635,82.33521516674382
154.0,91.98602809795919,0.010420032471693612,0.9979501075456364,83.33154002724892
155.0,91.97420303127367,0.010837460060918886,0.9979467991928361,84.32770624758831
156.0,91.96183083331606,0.0113241616548088,0.9979434675097432,85.32368456187118
157.0,91.94881950717165,0.011892326476447076,0.9979401089997525,86.31943969800402
158.0,91.93505827444157,0.012557993562331227,0.9979367203425773,87.31492824268719
159.0,91.9204116340439,0.013342198132883306,0.997933298371642,88.31009572530084
160.0,91.90471053505591,0.014273301658015618,0.9979298403415141,89.30487216144776
161.0,91.88773890842569,0.015390700502592596,0.9979263438861673,90.29916504772736
162.0,91.86921330277258,0.01675029339043259,0.9979228072995022,91.29284817069309
163.0,91.84874839054467,0.018435375303763664,0.9979192302945937,92.28574195122084
164.0,91.82579671751758,0.02057682632289269,0.997915614930634,93.27757716447928
165.0,91.79953595499138,0.02339285197641101,0.9979119667892749,94.26792210851121
166.0,91.76862963200007,0.02728281562018369,0.9979082990102741,95.25601553686684
167.0,91.73064486529105,0.0330772037413724,0.997904641579851,96.24031301557957
168.0,91.6802430445452,0.04290590957416584,0.9979010688117576,97.21684162586746
169.0,91.6002417391106,0.06510797417629667,0.9978978435015636,98.16837790607075
170.0,91.56422903078054,0.04323663346733086,0.9978966615816952,98.880886516059
171.0,91.48758524325464,0.06262460007364093,0.9978937939354011,99.79116477424857
172.0,91.43276176667781,0.05584742426474789,0.9978900240338375,100.7589054529531
173.0,91.38950107507536,0.046460491199621416,0.9978859136811081,101.73787040953472
174.0,91.35182026936846,0.03965469087516325,0.9978815816110318,102.72150577094891
175.0,91.31726356335717,0.03526407081612307,0.997877074772117,103.70761034696048
176.0,91.28453956363221,0.032536161393967145,0.997872417433774,104.69517050966255
177.0,91.25295630802951,0.03170540334953814,0.9978676248691534,105.68362825352244
178.0,91.2219744317245,0.03179903321042159,0.9978627087591857,106.67263641128285
179.0,91.1911810105352,0.03226097098075542,0.9978576797608727,107.66195735616336
180.0,91.1602656700422,0.03300006330528341,0.9978525489734451,108.65141519846443
181.0,91.12897180647509,0.03397919376486071,0.9978473290108365,109.64087006817665
182.0,91.09707643988423,0.03519476461056968,0.9978420348032996,110.63020332806167
183.0,91.06437713898558,0.036649777560335786,0.9978366840351615,111.61930896433961
184.0,91.03067749146877,0.03834822610235318,0.9978312977688311,112.60808604699935
185.0,90.99578534603364,0.04030940650081472,0.9978259005032379,113.59643492900722
186.0,90.95951869415208,0.04253867024968543,0.9978205195352499,114.58425256991517
187.0,90.92185991933371,0.044938438219250726,0.9978151844199384,115.5714281249129
188.0,90.88265252288542,0.04756437651320031,0.9978099246097722,116.55783859717924
189.0,90.841411542216,0.050679246408905865,0.9978047657800042,117.54334304703991
190.0,90.7976542656973,0.05442084470262423,0.9977997237913538,118.52777420878517
191.0,90.75076639928922,0.05896891609187185,0.9977947966280994,119.51092594885473
192.0,90.69990880674672,0.06459489151113926,0.997789951436209,120.49253403351331
193.0,90.64388387810804,0.07172237510237141,0.9977851098459026,121.47224146685039
194.0,90.58090646904108,0.08103159401420286,0.9977801302652815,122.44953241455863
195.0,90.50815729161722,0.09368554325300074,0.9977747946667677,123.42358510898504
196.0,90.42077152198007,0.1118749530065807,0.9977688118588324,124.39288546735816
197.0,90.30870812522292,0.14071466746967212,0.9977618814767183,125.35383280930382
198.0,90.13871031924818,0.20030218944735512,0.997754083913983,126.29126757987032
199.0,89.74614578943924,0.40018610513685854,0.9977524676735126,126.72370418580772
200.0,89.56226338326003,0.359584718444954,0.9977446198630987,127.64031976677185
201.0,89.41862927526337,0.3103447892771171,0.9977381241680126,128.5843780222921
202.0,89.27943264999227,0.282448970579588,0.997733989370179,129.53197246945027
203.0,89.13217898107344,0.2757526020376375,0.997731457554375,130.47700550871605
204.0,88.96139917419971,0.2931668194504555,0.9977282635356004,131.41338984474055
205.0,88.72301114935222,0.35931033223940134,0.9977217447510225,132.31914855699318
206.0,88.23208469799566,0.6031960767762297,0.9977203752526812,132.65491253958007
207.0,88.00475994466169,0.5521520487976533,0.9977155283090803,133.55309486992903
208.0,87.78487721345755,0.5213734798305346,0.9977153048678784,134.46118014067437
209.0,87.5044097548506,0.5570399691585028,0.9977116168095758,135.33857378563542
210.0,87.03727093667034,0.7420377394088672,0.9977111113334703,135.6092642859161
211.0,86.78952340747803,0.6930027768414098,0.9977108126095385,136.4791387967461
212.0,86.44433900069149,0.7491185391583874,0.9977079659562702,137.2966962385023
213.0,86.01935566274854,0.871805519358169,0.9977098143156876,137.53907876688385
214.0,85.72989807996808,0.8517015113488391,0.9977094572466552,138.35675088286098
215.0,85.36755178004083,0.9176274797349334,0.9977112908335233,138.52912667358112
216.0,84.99339288780355,0.9830763564226614,0.9977145859178151,138.7576553526412
217.0,84.73349221127867,0.955385354705162,0.9977129912748351,139.4342973943001
218.0,84.47090461233662,0.9552646525614026,0.9977141452826851,139.5127040820584
219.0,84.17322546342749,1.001888044248335,0.9977152512872124,139.55691784281814
220.0,83.9805862540599,0.9646616470600609,0.997715561686811,139.5620212060319
221.0,83.7839996441636,0.9566458660937643,0.9977145488180703,139.5211441844163
222.0,83.66133114012554,0.906731076746219,0.9977118005038507,139.42767293872745
223.0,83.4848618366645,0.9310392681558339,0.9977132938542722,138.5656177908658
224.0,83.40458333890784,0.8853841049084948,0.997712861132087,137.61333506681456
225.0,83.2842795010139,0.9078084939798678,0.9977106247936739,136.50212188196858
226.0,83.2125909504211,0.8996147200114406,0.9977137787577774,134.46671469570416
227.0,83.20313045262012,0.8546016549568988,0.9977306807650035,130.53297851776597
228.0,83.26654184080606,0.7658451468622681,0.9977825551850549,121.59854836416714
229.0,83.43090837455473,0.6009891087735224,0.9980687293147946,49.50979269969136
230.0,83.50529159179787,0.5371258502217924,0.9981766188891381,29.509733681770154
231.0,83.47558051409547,0.5981061443588689,0.9981917702635722,23.574073544782554
232.0,83.40835321666096,0.728057604692918,0.9981746108387228,20.498691021861287
233.0,83.33109470641966,0.9144207624888167,0.9981411815407415,18.423922976761826
234.0,83.29629948659176,1.1212032205294353,0.9980999199974816,16.5167491912449
235.0,83.34403515913084,1.3245323563697367,0.998045714587307,15.405298256345718
236.0,83.48350319414635,1.537889284358566,0.9979847324838553,14.352069296678323
237.0,83.73225275113661,1.781769302648021,0.9979186151516009,13.382285146156176
238.0,84.09727921165197,2.1192582676648826,0.9978462027332342,12.456973233643396
239.0,84.61901893286588,2.509606758833882,0.997762931234756,11.565602239461407
240.0,85.34350700305913,2.8404214170624673,0.9976762124951069,11.281239378627884
241.0,86.25844563655889,3.1008743435924817,0.9975854257721299,10.497915020030717
242.0,87.22841390209489,3.418893187050093,0.9974873562532328,9.819799897528735
243.0,88.22149233110973,3.848805911303586,0.9973793183933476,9.513155092947493
244.0,89.21458198131621,4.4380746391412975,0.9972735804085491,9.309070975127
245.0,90.20115016955629,5.210475894742555,0.9971386077929032,8.60230441545279
246.0,91.2118983507473,6.1314613454605595,0.9970381690430246,8.438827815638653
247.0,92.1447271785201,7.284282451996111,0.9968959095902549,8.207079398089403
248.0,92.89238960813309,8.744142212821538,0.9967355268603176,7.610547145213671
249.0,93.62404670939723,10.278350478020212,0.9966230808080823,7.468094108495954
