Time,J,A,S,tau
0.0,100.0,10.0,0.9326508384949833,17.02886353159511
1.0,99.8903690272066,9.080153669548551,0.9325528615403426,17.992571265346037
2.0,99.783692117402,8.250082080654726,0.9324561843390872,18.95744400979785
3.0,99.67976432353167,7.501177428522087,0.9323607573963232,19.92325854144987
4.0,99.57840779704188,6.8254065099496435,0.9322665244095435,20.88995298409441
5.0,99.47945353515497,6.215533408520536,0.9321734290293363,21.85746860794241
6.0,99.38274079321273,5.6650563019460005,0.9320814149473868,22.825749618275957
7.0,99.2881164329634,5.1681169808032505,0.9319904259697799,23.794742921449654
8.0,99.19543439070833,4.719450794012162,0.9319004060780276,24.764397933763977
9.0,99.10455510987549,4.314313058394945,0.9318112994768085,25.73466637783127
10.0,99.0153450557449,3.94843893672165,0.9317230506323438,26.70550210835334
11.0,98.92767621998614,3.6179841991212562,0.9316356042996907,27.676860934399098
12.0,98.84142567527994,3.319492483823318,0.9315489055422576,28.648700459662297
13.0,98.75647513999027,3.049848083107043,0.9314628997428879,29.62097992636692
14.0,98.67271056734445,2.806248783465298,0.9313775326078942,30.59366006805127
15.0,98.59002175817558,2.5861681081290424,0.9312927501652876,31.566702970735136
16.0,98.50830198427728,2.387334128063209,0.9312084987567535,32.54007193801437
17.0,98.42744763167298,2.2076979257331235,0.931124725025081,33.51373136321407
18.0,98.34735786241353,2.045416944275094,0.9310413758977201,34.48764660817056
19.0,98.2679342716163,1.8988290677776496,0.9309583985647042,35.461783880430815
20.0,98.18908058572256,1.7664390118664783,0.9308757404566264,36.43611012486597
21.0,98.11070233537677,1.646899543726424,0.9307933492158922,37.41059290656399
22.0,98.03270656661363,1.5389963971030542,0.9307111726691435,38.38520030695312
23.0,97.95500154124885,1.4416377650859034,0.9306291587957153,39.35990081624115
24.0,97.87749644639524,1.353839114994586,0.9305472556950014,40.33466322901349
25.0,97.80010111476952,1.2747144344471382,0.9304654115536272,41.30945654330122
26.0,97.72272573897288,1.203466606867407,0.9303835746107154,42.28424985769087
27.0,97.64528059414847,1.1393772907770814,0.9303016931236798,43.25901227114276
28.0,97.56767575753047,1.0818002518135417,0.9302197153336743,44.233712781278236
29.0,97.48982082810097,1.0301551384574064,0.9301375894314732,45.20832018281052
30.0,97.41162464654323,0.9839197721111975,0.9300552635244423,46.18280296573473
31.0,97.33299501156279,0.9426246654030507,0.9299726856046081,47.157129211911666
32.0,97.25383838588169,0.905848126194284,0.9298898035176365,48.13126648753219
33.0,97.17405960196983,0.8732126642234448,0.929806564934399,49.10518173533311
34.0,97.09356156399002,0.8443795032110145,0.9297229173252585,50.07884116507873
35.0,97.01224493078689,0.8190456521533244,0.9296388079361317,51.052210136647425
36.0,96.93000780177086,0.7969404364817508,0.9295541837691326,52.02525304393743
37.0,96.84674538737609,0.7778221501375008,0.9294689915665421,52.99793319263314
38.0,96.76234964951009,0.7614762514889021,0.9293831777978389,53.97021266639621
39.0,96.67670896760676,0.7477120925923433,0.9292966886548828,54.942052202265046
40.0,96.58970773238082,0.7363615730966213,0.9292094700485777,55.913411038527634
41.0,96.5012259923255,0.7272765629902245,0.9291214676166102,56.88424678191806
42.0,96.4111389966757,0.7203275286031248,0.9290326267334188,57.8545152354434
43.0,96.31931682688985,0.7154021548198027,0.9289428925332396,58.824170258968785
44.0,96.22562394523061,0.7124030690716697,0.9288522099377805,59.793163598004526
45.0,96.129918596365,0.7112494208968276,0.92876052369176,60.761444656766436
46.0,96.03205227097693,0.7118724191147331,0.9286677784176524,61.72896029310895
47.0,95.93186970567731,0.7142136205592434,0.9285739186760807,62.6956548157006
48.0,95.82920751523227,0.7182327907945615,0.9284788890331354,63.661469465219724
49.0,95.72389386573703,0.7238913735444462,0.928382634173267,64.62634228318352
50.0,95.61574839024459,0.7311758075987094,0.9282850989603801,65.59020808046465
51.0,95.50458045656356,0.7400662509050028,0.9281862286275173,66.55299776785132
52.0,95.39019007589503,0.7505654878918148,0.9280859688078441,67.51463870248575
53.0,95.27236453148996,0.762675419142035,0.9279842658818911,68.47505339038076
54.0,95.1508813560458,0.7764150975569022,0.9278810668715757,69.43416062058218
55.0,95.02550251641239,0.7918068571480611,0.9277763200701016,70.39187322877808
56.0,94.89597921702912,0.8088864375216037,0.9276699747455006,71.34809993074663
57.0,94.76204549213651,0.8276949393618588,0.9275619819489329,72.30274285146037
58.0,94.62342142292547,0.8482792152823753,0.9274522943564634,73.25569874796305
59.0,94.47980947194988,0.8707027448966264,0.9273408668708558,74.20685759112331
60.0,94.3308935682133,0.8950312097996006,0.9272276570130291,75.15610218851506
61.0,94.17634031065509,0.9213406335862534,0.927112624906373,76.10330864101925
62.0,94.01579320635852,0.9497215149543358,0.9269957344516875,77.0483440911145
63.0,93.84887573843807,0.9802664724405025,0.9268769530764831,77.99106788860152
64.0,93.67518778551478,1.013080302979785,0.9267562525890302,78.93133018351047
65.0,93.49430345054714,1.0482802893037877,0.9266336099071854,79.86897105268436
66.0,93.3057703806564,1.0859913873888143,0.9265090075069636,80.80382020380347
67.0,93.10910853974137,1.1263490187008722,0.9263824339599336,81.73569646979462
68.0,92.90380725566216,1.1695036204565517,0.9262538849062225,82.66440662033135
69.0,92.68932292542043,1.2156156534484368,0.9261233639602525,83.58974441677549
70.0,92.4650783720391,1.2648562080538333,0.9259908832064165,84.51149032136748
71.0,92.23046056982315,1.3174108161503422,0.9258564640889018,85.42941056220813
72.0,91.98481639460705,1.3734819893283066,0.9257201389206914,86.34325539829867
73.0,91.72745173171006,1.433282453248241,0.9255819515167809,87.2527587071281
74.0,91.45762986563572,1.497039191853576,0.925441957975989,88.15763729541808
75.0,91.17456730497805,1.565000419734297,0.9253002282419034,89.05758917452131
76.0,90.87743001854984,1.6374296237228914,0.9251568476241838,89.95229197014018
77.0,90.5653338522442,1.7146045445957896,0.9250119169944734,90.8414030232146
78.0,90.23733907064734,1.7968219314118092,0.9248655547933458,91.72455710974162
79.0,89.89244810647689,1.8843988117078776,0.9247178980430502,92.60136544300674
80.0,89.52960181968024,1.9776738024079072,0.9245691038123357,93.47141405621562
81.0,89.14767651919205,2.077005104834018,0.9244193504005053,94.33426247834956
82.0,88.74548080405134,2.182772446294216,0.9242688385214469,95.18944232618736
83.0,88.3217521943029,2.2953780361779077,0.9241177924874145,96.03645579298
84.0,87.8751537294769,2.4152473450444076,0.923966461315833,96.87477410524663
85.0,87.4042703110071,2.5428313692866005,0.9238151198053972,97.70383585316767
86.0,86.92689577110309,2.776980767674202,0.9236640698266233,98.52304480460397
87.0,86.46501706436865,3.1945436546651536,0.9235136398652741,99.33176975531168
88.0,85.9915785752883,3.6338736437739367,0.9233641865009381,100.12934153210435
89.0,85.50862359740916,4.096294103751014,0.9232160941148846,100.91505193208535
90.0,85.01880180161336,4.583197843785599,0.9230697746926921,101.68815209308718
91.0,84.52546669204709,5.096048982061786,0.9229256671630073,102.44785093322741
92.0,84.03277552884056,5.636384421362534,0.9227842361604807,103.19331376233978
93.0,83.54579291598478,6.205815021603177,0.9226459702283064,103.92366090468244
94.0,83.07058778179872,6.806026391368265,0.9225113792889728,104.6379665001133
95.0,82.61432118100782,7.438779475713605,0.9223809913410594,105.3352572981219
96.0,82.1853023404911,8.105910221938473,0.922255348139049,106.01451192144822
97.0,81.79301262632262,8.809328949136123,0.9221349998972189,106.6746600858111
98.0,81.44806690267218,9.551018965359182,0.9220204987659278,107.31458218496745
99.0,81.16209279197233,10.333034411957318,0.9219123909987511,107.93310916100418
100.0,80.94749956180205,11.157497273752618,0.9218112076011523,108.52902264181448
101.0,80.81710233486575,12.02659362912372,0.9217174535128827,109.10105558577602
102.0,80.78357434706355,12.942568718339931,0.9216315948098832,109.64789311725849
103.0,80.8586886390452,13.907720876029437,0.9215540440872394,110.16817397771598
104.0,81.05234550432027,14.9243941056972,0.9214851441308202,110.66049257496184
105.0,81.37131313208891,15.994970274094104,0.9214251480939766,111.12340102578537
106.0,81.8178418922621,17.12185849285389,0.921374199551034,111.55541267760432
107.0,82.38809113766482,18.30748433453821,0.9213323089424732,111.95500548011678
108.0,83.07050118238134,19.55427766113734,0.9212993275482211,112.32062609265745
109.0,83.84426442021064,20.864657608379183,0.9212749186501199,112.65069474773557
110.0,84.67814429021084,22.24101788225604,0.921258525684826,112.94361072079252
111.0,85.53007695252163,23.68570864650841,0.9212493425260779,113.19775862593639
112.0,86.34738398882037,25.201018892835272,0.9212462742581081,113.41151492327852
113.0,87.06832780998582,26.789156233213838,0.9212479001362344,113.58325536499534
114.0,88.2935851444256,27.787275620020473,0.922067576551309,105.16986560409401
115.0,90.78109755163521,27.434819161166764,0.9249397234111044,71.94743760653004
116.0,93.17784910142161,27.081201046582517,0.9272634768379836,50.83769863954948
117.0,95.469665836523,26.726499669708527,0.9288609439351216,40.04291439951971
118.0,97.64411005072809,26.370796944297688,0.9299895122234871,33.46270866040924
119.0,99.3105236727406,26.384404447115617,0.9307982277793736,28.92520968240085
120.0,100.20818600477787,26.974673128427014,0.9313684384466466,25.551930304687204
121.0,100.12154542447128,28.286427623265933,0.9317483717335323,22.918558091911645
122.0,98.83231829820993,30.45107132338142,0.9319687409345507,20.792018132411698
123.0,96.22510916334008,33.50458609358368,0.9320501688037939,19.031901328664468
124.0,92.35121388002193,37.358904462731616,0.932007044716427,17.547622089485873
125.0,87.45813522759164,41.79483978310611,0.9318496896620523,16.277582602921346
126.0,81.95468995068458,46.485239449655026,0.9315856529684247,15.178105839034101
127.0,76.32102932816363,51.04830670019378,0.9312205247723031,14.217175273609817
128.0,70.97888939359166,55.145605056811185,0.9307584734985737,13.370660488419368
129.0,66.0315122820083,58.72991448374406,0.930202610940871,12.619944018925324
130.0,61.49092003882269,61.82220304550765,0.9295552546850279,11.950392554905243
131.0,57.38867453870388,64.41066274928009,0.9288181125049623,11.35029348355483
132.0,53.86095650627339,66.3723419197654,0.927992421730844,10.810138270940874
133.0,51.08695078504475,67.538714208391,0.927079057800113,10.322111228297425
134.0,49.14595291097452,67.84002160709409,0.9260786173765105,9.879715337626031
135.0,47.8944742966135,67.4276436274588,0.9249914847527836,9.477495350684839
136.0,47.05795089291824,66.5814483042349,0.9238178855129806,9.11083058893703
137.0,46.40863889928233,65.53205587611863,0.922557932273081,8.775776370516105
138.0,45.82557136798182,64.40184310231596,0.921211662021188,8.468941369257557
139.0,45.25791742822582,63.242411865218436,0.9197790690050436,8.187390699581675
140.0,44.68539221284194,62.07459021467204,0.9182601340152418,7.928571353605083
141.0,44.09991989106211,60.90693761198729,0.9166548532646012,7.69025048769909
142.0,43.49837610486012,59.74306971718748,0.9149632549121779,7.470464385401372
143.0,42.879653589854364,58.584621600805136,0.9131854235726833,7.267480629274822
144.0,42.243437161460356,57.43248535095773,0.9113215168414208,7.079763170291233
145.0,41.589734882861016,56.28728586981005,0.9093717845961193,6.905946477273936
146.0,40.918710419139344,55.14955204959233,0.9073365849118639,6.744811530772331
147.0,40.23063292117554,54.019770036934666,0.9052163979928771,6.5952672789351405
148.0,39.52586125615326,52.89840115773194,0.9030118374744793,6.456334156252994
149.0,38.804838618262494,51.7858895391863,0.9007236762487749,6.327131371229539
150.0,38.068090875725076,50.682665068204884,0.8983528415733776,6.206864188245762
151.0,37.31622585727648,49.58914544088871,0.8959004358356287,6.094814447475292
152.0,36.54993114832586,48.5057372283317,0.8933677403303822,5.990330491150628
153.0,35.76997519250204,47.432836509913884,0.890756231563004,5.892821214490013
154.0,34.97720972032162,46.370828829308245,0.8880675938345887,5.801750733022786
155.0,34.17256515674376,45.32008903487575,0.8853037060012809,5.716629564186405
156.0,33.35704930583696,44.28098231601513,0.8824666581564997,5.637010574652585
157.0,32.531753548663886,43.25386463027041,0.8795587808985669,5.562487768848323
158.0,31.697845285094335,42.23908109052248,0.8765826037426765,5.492688225511477
159.0,30.856565499561125,41.236969523227614,0.8735408824673438,5.4272697172980235
160.0,30.009240536258158,40.247860222011866,0.8704366243385265,5.36592127943107
161.0,29.157263414597455,39.27207585339274,0.8672730265606172,5.308354535518847
162.0,28.302108541247183,38.309938214614895,0.8640535425549026,5.254306303435348
163.0,27.445327835688136,37.36176470747723,0.860781835980786,5.203534695329815
164.0,26.588543120397855,36.42787895159459,0.8574617878847529,5.155815545036389
165.0,25.733467242305867,35.50861134751195,0.8540975143525849,5.1109447962986945
166.0,24.881874904761396,34.60430335954892,0.8506933073968368,5.068731531990004
167.0,24.035645076311418,33.71532554207012,0.8472537055053654,5.029002458951724
168.0,23.19671313791327,32.84206882043981,0.8437833981263339,4.991595208415807
169.0,22.36712539756347,31.984979731001356,0.8402873004760423,4.956361627608176
170.0,21.548983332027092,31.144548726411,0.8367704744372017,4.923163691612111
171.0,20.744468956658267,30.321337420705756,0.833238153033786,4.89187390867519
172.0,19.955833200803305,29.515999197233764,0.8296957286264052,4.8623748079858515
173.0,19.185357668178742,28.729284256957143,0.8261487230907426,4.834557271759618
174.0,18.43535094046246,27.962060705361484,0.8226027830590616,4.80832013073782
175.0,17.708106635405425,27.2153419505358,0.8190636697503011,4.7835700846143565
176.0,17.00583590119717,26.490282367986396,0.8155372312477102,4.760220371369918
177.0,16.330647114666075,25.788194732936766,0.8120293939575092,4.738190456398149
178.0,15.684452249420575,25.110566530385636,0.8085461473066733,4.717405995863454
179.0,15.068874351874182,24.459032634841105,0.80509351982634,4.697797804165633
180.0,14.485220675731053,23.83537440729497,0.8016775677358197,4.679301612948838
181.0,13.934350369594382,23.241497817232766,0.7983043548581077,4.661858061943455
182.0,13.416593350265577,22.67937200288178,0.7949799337450252,4.645411892044732
183.0,12.931761314382133,22.15099476491079,0.7917103323165663,4.629911757269215
184.0,12.479043547760872,21.658307863464763,0.7885015296193079,4.615310233545847
185.0,12.05699697588217,21.203110178090043,0.7853594429417721,4.601563184090792
186.0,11.663686388054392,20.786988268857165,0.7822899118108265,4.588629650714971
187.0,11.296605739810891,20.41118946804404,0.7792986764390449,4.57647171962699
188.0,10.952890113730854,20.076543752618868,0.7763913638702304,4.565054238515991
189.0,10.629435459921295,19.78337886073795,0.7735734718067908,4.554344641988889
190.0,10.323059471287237,19.53145719486815,0.7708503532842459,4.544312784097194
191.0,10.030667492936507,19.319937417691673,0.7682272019122113,4.534930784393746
192.0,9.749416097840044,19.147365815147477,0.7657090369626189,4.526172891946353
193.0,9.47683568951332,19.0117015116152,0.7633006889364073,4.518015360348546
194.0,9.210914149325875,18.910381968442824,0.7610067878890922,4.510436315469843
195.0,8.95014886460407,18.840413587372904,0.7588317514206824,4.50341564631272
196.0,8.693548939730658,18.798481895583745,0.7567797733823242,4.496934906472971
197.0,8.440598827687941,18.781073474974853,0.7548548133026131,4.490977224184095
198.0,8.19119500855655,18.784601433814142,0.753060585293632,4.4855272254170595
199.0,7.945548637570177,18.80552454104145,0.7514005485065554,4.480570960936967
200.0,7.704089445063313,18.840449169976825,0.7498779003099074,4.476095830286122
201.0,7.467376516636943,18.886209224910036,0.748495568751125,4.4720905212708235
202.0,7.236016242675474,18.93992311212198,0.7472562057942354,4.468544956115818
203.0,7.010595049768791,18.999028195515667,0.7461621812235335,4.465450243574736
204.0,6.791628613777687,19.061294057361497,0.7452155776107344,4.462798635585791
205.0,6.579528687437572,19.124823055408612,0.7444181797433772,4.4605835086276855
206.0,6.374585510036127,19.18802618110197,0.7437714760920907,4.458799315431059
207.0,6.176976127281786,19.249585775026542,0.7432766698733674,4.45744151053932
208.0,5.986750505542445,19.308448292435397,0.7429346397446651,4.456506640810751
209.0,5.803862411061203,19.363769996759093,0.7427459704344889,4.455992242786981
210.0,5.628178807770436,19.414878042943656,0.7427109575188007,4.455896780673213
211.0,5.459493740162275,19.461271271209323,0.7428295447965253,4.456219870121936
212.0,5.297550040857145,19.50254328566481,0.7431014309818079,4.45696189304345
213.0,5.142065151581125,19.538410386837395,0.743525946274852,4.458124447458632
214.0,4.9927195765103685,19.56864625133596,0.7441021736055511,4.459709906298041
215.0,4.849206390838064,19.59310224874575,0.7448288510994608,4.461721810284082
216.0,4.711217876631484,19.611671362296974,0.7457044588676611,4.464164565550041
217.0,4.5784441450497315,19.624290325722683,0.7467271409505075,4.467043734819344
218.0,4.45061107835252,19.63092988721284,0.747894776567795,4.470365859620589
219.0,4.327444479002211,19.63158632420375,0.7492049553798262,4.47413854336563
220.0,4.208709134404704,19.62628545654311,0.7506549665788355,4.478370596143662
221.0,4.094189829653648,19.615072841509694,0.7522418596148708,4.483071819791351
222.0,3.983688997946876,19.5980168728901,0.7539623785908629,4.48825335625312
223.0,3.8770501631286853,19.575207957549132,0.7558130341321583,4.493927481395843
224.0,3.774123239018816,19.546753983561022,0.7577900816019404,4.500107736145997
225.0,3.6747975150569423,19.51278747708997,0.7598895133538293,4.506809152837726
226.0,3.578970496876156,19.47345569630047,0.7621071300531148,4.514047885984869
227.0,3.486569071030058,19.428931872383384,0.7644384567813415,4.521841950176299
228.0,3.3975328458017504,19.37940280520912,0.766878872915858,4.530210401596602
229.0,3.311824825937151,19.325082434382633,0.7694234900185876,4.539174539006359
230.0,3.2294098509278224,19.266195039676255,0.7720673066405617,4.5487566449399175
231.0,3.150291956694326,19.2029947044612,0.7748050872310934,4.558981580060073
232.0,3.0744456123888932,19.13574317471798,0.7776314756251663,4.569875551540957
233.0,3.0019088715230193,19.064727014647737,0.7805409858007317,4.581466721279481
234.0,2.9326853380451703,18.9902513370673,0.7835279423006906,4.593786481994617
235.0,2.866789770309456,18.9126262469628,0.7865866410566432,4.606866717887842
236.0,2.8042823149746363,18.83219015482067,0.7897112353449022,4.6207431013632165
237.0,2.7451895097392067,18.749290741431377,0.7928958009722539,4.635453949109432
238.0,2.68955976394129,18.66428289395756,0.7961343856678087,4.651038527995535
239.0,2.637457886995404,18.57754422682945,0.7994209663881912,4.667541426628097
240.0,2.58893651724048,18.489456789828456,0.8027495096895839,4.685008943289015
241.0,2.5440630601856355,18.40041159089465,0.8061139710118417,4.703490129116303
242.0,2.5029157653320437,18.31081330662334,0.8095083253288434,4.723039038162831
243.0,2.4655698155050123,18.221069604566793,0.8129265589679912,4.743711616633882
244.0,2.4321182498126825,18.131599481975467,0.8163627327493179,4.765569656462586
245.0,2.4026573396520816,18.04282525460769,0.8198109436131265,4.788677302809679
246.0,2.377294117447967,17.955176144675182,0.8232653921912003,4.8131044927097735
247.0,2.3561447215937132,17.86908528590895,0.826720353138353,4.838924706905823
248.0,2.339344882499706,17.78499201494277,0.8301702441295774,4.866217620365793
249.0,2.3270351078983254,17.703337772458543,0.8336095769750411,4.8950669136670175
250.0,2.319387120137896,17.624570718059303,0.8370330448330343,4.925563165843072
251.0,2.3165782884384996,17.549140578693066,0.8404354647592495,4.9578018302462725
