Time,J,A,S,tau,r
0.0,1.0,1.0,0.6265441712842129,23.255813953488374,0.0
1.0,1.1649469875537843,1.387964345429045,0.6254757681304477,23.92541439117908,0.003940144700313508
2.0,1.5005199552934034,1.7647045107618204,0.6243823433016016,24.602026752736258,0.003894561004657463
3.0,1.9922213191524893,2.1305454410681057,0.6232641278219886,25.28547069339609,0.00384974447699997
4.0,2.6267704205570324,2.4858043389758944,0.6221213810223374,25.97556826004975,0.00380568788632312
5.0,3.392013549914091,2.830789182640888,0.6209543544020275,26.67214527915553,0.003762380612853412
6.0,4.2768280812588415,3.165806396265009,0.6197633720548256,27.375025035081816,0.0037198240751005647
7.0,5.2710574684103,3.4911531462033545,0.6185487363404125,28.08403486901803,0.003678011748501838
8.0,6.365417282295473,3.807127687990288,0.6173108488395116,28.798997563532247,0.003636946982788622
9.0,7.551446345172092,4.114023487142229,0.6160501299198031,29.519736375561333,0.0035966307593542444
10.0,8.82144123655739,4.41212545321287,0.6147669872448015,30.246078355487686,0.0035570588872229116
11.0,10.168384695660967,4.701715575603267,0.6134618747252245,30.977849658000615,0.003518229383106384
12.0,11.5859138370836,4.983080900891218,0.612135358538595,31.714868777568043,0.0034801482057236766
13.0,13.068254805294949,5.256499604352092,0.6107879859704334,32.456958505209634,0.0034428152411744716
14.0,14.610187822499384,5.522253207276682,0.6094203977681082,33.203935521017925,0.0034062352319531902
15.0,16.207002371917266,5.780611103213077,0.6080331796573683,33.95562375662123,0.0033704055952893082
16.0,17.84721210594607,5.971128871665326,0.6066270079293639,34.71184015985666,0.003329002680024241
17.0,19.481619633163113,6.054311427709041,0.6052028019432076,35.472384479192975,0.00327929253271413
18.0,21.088056758569937,6.067367185369777,0.6037612370067733,36.237077193745684,0.0032262283910695785
19.0,22.651616828749564,6.029669749755241,0.6023031901680753,37.00572415054978,0.0031719542955280467
20.0,24.161611427494584,5.953148071871336,0.6008294923486213,37.77813589972891,0.0031175177696250627
21.0,25.610445313486967,5.846126549712106,0.5993412040290348,38.55410425073085,0.003063485810557826
22.0,26.993189417089546,5.716101746058692,0.5978391972180996,39.33343827655793,0.003010266399441325
23.0,28.306675617730274,5.568384069741566,0.5963245294771313,40.115932382760505,0.0029580607677592687
24.0,29.549466479308524,5.4082124563951774,0.5947981844052809,40.90138735427339,0.00290705417255642
25.0,30.721415309050066,5.239827243284833,0.5932611629746136,41.689603321597154,0.0028573598379925385
26.0,31.82334627188735,5.066733245699821,0.5917146109544507,42.48036829222244,0.00280905268196437
27.0,32.85692745295474,4.8920578694378865,0.5901596558401108,43.27347156105396,0.0027621966901277754
28.0,33.82445115373715,4.718433920131533,0.588597461093949,44.06870012587948,0.0027168391391613434
29.0,34.72866201968586,4.547660433132065,0.5870291283435698,44.8658455404909,0.002672984005456519
30.0,35.572634354078296,4.381540887395779,0.5854560346317563,45.66467641505563,0.002630661742001815
31.0,36.359656737060064,4.221361435118352,0.5838791879795494,46.464991755525425,0.0025898728951249256
32.0,37.093307005681154,4.068376229584813,0.582299777825333,47.2665750857461,0.0025506393295513297
33.0,37.776968428970974,3.9230281158639277,0.5807190468973054,48.06920477204867,0.0025129344592305083
34.0,38.41425169539584,3.786044204908563,0.5791381161867986,48.872668686485504,0.002476766241412872
35.0,39.00870348269984,3.6579090901403593,0.5775582131453333,49.67674546409872,0.002442137725785103
36.0,39.563900092977626,3.5390183752875006,0.5759804719028572,50.481219494009075,0.0024090544809480534
37.0,40.083261998439234,3.4293694047615184,0.5744060859035472,51.28587082774255,0.002377499159189884
38.0,40.57017389674455,3.329062643663253,0.5728362478456559,52.09047713887294,0.002347470155400026
39.0,41.02792133928028,3.2381045524556487,0.5712720698684118,52.89482269082951,0.002318961855574618
40.0,41.45971869357415,3.1564462599792122,0.5697147766954809,53.69868151009183,0.0022919709427720153
41.0,41.86874371778786,3.084045571345371,0.5681654341574952,54.50183815943706,0.002266495507588081
42.0,42.25807275377939,3.021076127718131,0.5666250927935997,55.30407862311624,0.0022425508384171173
43.0,42.630714821664334,2.9671972533499416,0.5650948946026266,56.10517904988191,0.002220116229184507
44.0,42.98965251012901,2.922316664816267,0.5635758360464602,56.904926870116896,0.002199187942486976
45.0,43.33785556460531,2.8863790962903244,0.562068935596654,57.70310630798466,0.0021797647583751945
46.0,43.67835643182294,2.8598191712682586,0.5605752281161748,58.49949833104584,0.002161882517268774
47.0,44.01413867763751,2.842301497581023,0.5590956359052338,59.29389210205813,0.0021455141383124278
48.0,44.34828527867797,2.8340384381877,0.5576310703504054,60.08607750597965,0.0021306720468931384
49.0,44.68402252898194,2.835338219328977,0.5561824361481831,60.875841628918046,0.002117371937174671
50.0,45.02475595480725,2.846647455709818,0.5547505472911338,61.66297797759434,0.0021056340770874743
51.0,45.37410387940822,2.868471920113287,0.5533362478781847,62.44727632696181,0.002095477343107996
52.0,45.73605927639882,2.901588438913018,0.5519403669021835,63.22852597634508,0.002086932765402263
53.0,46.115010366552475,2.947115397555551,0.550563541744682,64.00653129845274,0.0020800421367678395
54.0,46.51592382430339,3.0062229463163717,0.5492064412660033,64.78109215576282,0.0020748401218634352
55.0,46.944669896650275,3.081963338741048,0.5478695855844166,65.55201996791116,0.002071458451157031
56.0,47.40847109997634,3.1775471971777898,0.5465536841403144,66.31910730862252,0.0020700137662864665
57.0,47.91657388194938,3.299185625256058,0.5452592667562457,67.08216039858624,0.0020707493304762906
58.0,48.48245104891254,3.462138221758114,0.5439867762660614,67.84099205430653,0.0020743005925388833
59.0,49.12784316256919,3.6775305224524164,0.5427366539735217,68.59541262072365,0.0020809617013257276
60.0,49.86784847830201,3.916137080629664,0.5415093175679546,69.34523480261888,0.0020890871041830033
61.0,50.70381448421823,4.157695653806362,0.5403050496851515,70.09027676670068,0.0020976645346576692
62.0,51.63969954496227,4.402346996823304,0.5391241507120679,70.83035691910966,0.002106700727345011
63.0,52.67973936151804,4.6502218548867145,0.5379668220567584,71.56530099676269,0.0021162007012583126
64.0,53.828543996421985,4.901457188821488,0.5368333076224666,72.29492636952041,0.002126170466205912
65.0,55.090981913053604,5.156187736007107,0.5357238369819597,73.01905011993976,0.0021366156506183245
66.0,56.47223572313656,5.414532930387384,0.5346384892325852,73.73750192822628,0.002147539510105037
67.0,57.977813806917084,5.676614568282443,0.5335773607311246,74.45010679123786,0.0021589457912539163
68.0,59.61355101045101,5.942553191044346,0.5325405344243552,75.15668855612721,0.002170838160329237
69.0,61.38561608003818,6.212465000850768,0.5315280469175439,75.85707293208712,0.002183219764162423
70.0,63.300502598268494,6.486463881371532,0.5305399148294442,76.55108550798471,0.0021960935674715503
71.0,65.36509996972379,6.764670100680465,0.5295762065373446,77.23854311640959,0.002209463614702595
72.0,67.5865793994705,7.047182556414647,0.5286367903927195,77.91928129030384,0.0022233310490612284
73.0,69.9725290842258,7.334113415387958,0.52772164019463,78.59311984767763,0.0022376991478117833
74.0,72.53084474772281,7.62557738156507,0.5268307837891174,79.25987369512976,0.0022525716923212126
75.0,75.26982178298985,7.92167433114207,0.5259640621475999,79.9193696519071,0.002267950623585072
76.0,78.19809523033203,8.222515306705168,0.5251214526314057,80.57142105000396,0.0022838396168402826
77.0,81.3246977224411,8.52822960569995,0.5243031088058906,81.21582021151272,0.002300244924010391
78.0,84.6590046436863,8.838904275272277,0.5235087401077656,81.85239883877327,0.002317167367010155
79.0,88.21073889436285,9.154650517691078,0.5227383002670442,82.48096170614441,0.0023346111985340094
80.0,91.99006183885757,9.475611150219208,0.5219920747218919,83.10127929527982,0.002352584837323245
81.0,96.0073891238678,9.801885142811203,0.5212698950344258,83.71316293775573,0.002371091204022625
82.0,100.27351780362736,10.133598761395248,0.5205718600342183,84.31639354149173,0.002390136856661564
83.0,104.79961385247042,10.470872684445782,0.5198980023267861,84.91075462194296,0.002409727763845786
84.0,109.59711425503134,10.813827204497287,0.519248337688823,85.49602680802059,0.0024298699980349757
85.0,114.67782139917863,11.162611436968595,0.5186232099505296,86.07195897375178,0.0024505731797383316
86.0,120.0537664735468,11.517363484496807,0.5180228021615476,86.6383072977978,0.0024718456721142396
87.0,125.73721287901313,11.878222107059553,0.5174473484437312,87.19482453797269,0.002493695937480497
88.0,131.77996719481288,12.19941944625046,0.5171484231640082,87.38039429415055,0.0025077878456282033
89.0,137.99827114323563,12.688568758929208,0.5188113417193961,86.61693965486558,0.002520001418184872
90.0,144.5485616700261,13.30968811092875,0.5189152947458707,86.40697945108919,0.002528851299931697
91.0,151.423989657043,14.208107615038584,0.5206468419402546,85.56459284608101,0.002541692236325341
92.0,158.81096479003082,15.343203648219317,0.5223560210918251,84.71442890913208,0.002555346699329879
93.0,167.0540229815929,16.532155142968982,0.5225742393040114,84.37328178402805,0.002564727436621994
94.0,175.9831396352829,18.098940286023197,0.5244235855172706,83.41120387755507,0.0025789558229884976
95.0,185.91672112225555,19.898409840248082,0.5263208563203887,82.39928713191503,0.002593467165295215
96.0,197.01180108592962,21.941735528312577,0.5283243059438246,81.31956566436574,0.002608431950829696
97.0,209.2293747998952,24.449951015249756,0.5320528602865976,79.57788256051764,0.0026284265666352094
98.0,223.30658728025085,26.751735059000342,0.5341185836341221,78.4195062412555,0.0026444254913211345
99.0,238.8482757327726,29.234223426021714,0.5380871944414685,76.5367673468543,0.0026656229762229144
100.0,256.1069250782972,31.57375569683446,0.5421522777036732,74.59845585864718,0.002687580397738865
101.0,275.0313587146465,33.7122410531119,0.5463167762273927,72.60342546632225,0.002710256297123158
102.0,295.4998754405729,35.63702855077023,0.5505835223517246,70.55431922496031,0.0027337249174091216
103.0,317.3615789267161,37.357546860538804,0.5549149081935313,68.46871454973436,0.002758069336579731
104.0,340.3745106663319,38.982225957916135,0.5604355580577555,65.93114397619702,0.0027858757768701886
105.0,364.50180267001485,40.448823917543386,0.5657283072999355,63.51074221536839,0.0028142826619740814
106.0,389.61920181803976,41.772275094452304,0.5702826214805383,61.33497188673087,0.0028416407588742402
107.0,415.44808016144896,43.17871841354008,0.5766539892238725,58.525625676598864,0.0028743706679086184
108.0,442.10315322966943,44.50220387167706,0.5810967018270454,56.39157220537513,0.0029036005313428977
109.0,469.23350511854454,46.08882087028323,0.5874690769195404,53.622906589199935,0.0029386143359404313
110.0,497.0248759899423,47.777535314374916,0.591809541089201,51.545242427448876,0.002970066597696348
111.0,525.1931231220483,49.929292516790085,0.5960683843763652,49.50924146897474,0.003002877592442688
112.0,553.7676450716812,52.63177560018881,0.6002530737921566,47.51286842360525,0.003036999835299534
113.0,582.8011967177642,55.912083801067055,0.6043498241044671,45.5607698422153,0.0030724252016529844
114.0,612.2589772245926,59.825709604582954,0.6083487770688009,43.667678689999946,0.003109575547908884
115.0,642.434383197057,64.04673283384781,0.6103958839169749,42.388201118403835,0.003144191394197603
116.0,672.5779338495296,69.19798119716967,0.6141830946513505,40.57575831245876,0.003183680476999303
117.0,703.0227921586554,74.74839164970358,0.6160904592860068,39.369777071588736,0.0032220058533834486
118.0,732.912190970301,81.28105359999716,0.6196225701929936,37.66456924836422,0.0032643712950985297
119.0,762.5288572382948,88.16978964395436,0.6213084322827803,36.52623623088563,0.003305286343180325
120.0,791.0183473878637,95.83886946460697,0.6229361561311039,35.42612821209533,0.0033484078243948474
121.0,818.0403493794976,104.16896489616666,0.6244169774899527,34.35455536150139,0.003392387506223981
122.0,843.0847500041939,113.18317478799472,0.6257573980671344,33.315831768506776,0.003437468953206776
123.0,865.3478667688706,123.18997761038085,0.626969689211785,32.31731628504456,0.0034840617975812494
124.0,883.7178284334055,134.75252454838596,0.6280314593839578,31.359612658603766,0.003531933505866668
125.0,897.1730358862662,148.27260851905507,0.628864761618722,30.438145173992094,0.0035800894688250576
126.0,904.6426485252105,164.15371428202698,0.6293982489208949,29.552070807275122,0.0036278591429776685
127.0,904.8434338754917,183.02289206525364,0.6297678362214917,28.7214988501817,0.003677233733004265
128.0,897.9639112975175,204.19459565425495,0.6290027546148836,28.267895273345413,0.0037285108880210473
129.0,883.8085504421451,227.6686736336728,0.6288670318399766,27.505560671349603,0.0037780718831720425
130.0,863.081976033925,252.85043808648626,0.6284566654120523,26.808376120475927,0.003828446452927833
131.0,837.1935138581106,278.68877634436745,0.6272057091002531,26.410925121644908,0.0038810856291522046
132.0,806.5538671997314,305.26707309823513,0.6260289605668705,25.772841699256944,0.00392885811774937
133.0,771.7150134143841,332.6192580805716,0.6244923663857458,25.426224639553244,0.00398307133619063
134.0,733.6274279760324,360.35249614676565,0.6227828391782638,24.91329288949243,0.004032408720693958
135.0,693.0783358025157,388.25693910789323,0.620611373125953,24.546175043207466,0.004082985312360732
136.0,649.7052499974897,417.183789854613,0.6186503064302826,24.255257837471035,0.004138558710197567
137.0,604.8504436528801,446.25694490778073,0.6159521441571396,23.788586749166914,0.004184057373314535
138.0,557.794257710687,476.6046873991191,0.6135401938730375,23.516117998491204,0.004238630060647042
139.0,509.8162623117724,507.30858213911625,0.6111834937590389,23.265792572559146,0.004294966302972994
140.0,460.55340406023936,539.0307691571011,0.6079823166158692,22.888472320192186,0.004342155684019244
141.0,410.96101733495976,571.0684711052161,0.604939847893389,22.614295849947716,0.004394802622365022
142.0,363.8231737483704,600.8519396714648,0.6024887123593882,22.404544432423364,0.004453235731379904
143.0,316.32549968176306,631.3475566172249,0.5994621871198987,22.159439528627562,0.004508400867845111
144.0,268.3138881025061,662.8016771129279,0.5958133591051162,21.835449619779293,0.004557261990994074
145.0,224.73052124416222,690.3428095216656,0.592675865018937,21.60484697151574,0.004613646894690656
146.0,186.98341235959586,712.6064992016965,0.5900517552882385,21.418404737670517,0.0046734295316185745
147.0,151.40639090288815,733.2619851881915,0.5869972530180603,21.20837862780057,0.004731728014237422
148.0,115.04044072837253,755.2409944207949,0.5832209553391627,20.92810749937651,0.004783869601338958
149.0,85.9026355117218,770.4847009066542,0.5796847220991892,20.68975503675609,0.004839796109949258
150.0,65.47350123267852,777.4592007219205,0.5768455340030358,20.512433408570256,0.00490036578254946
151.0,49.219297372213106,780.6395736678832,0.5740672084585797,20.342592714563537,0.004961066637618092
152.0,34.99258551194386,782.1095458170172,0.5706652375025975,20.134074667380343,0.005019488347009671
153.0,20.87330491765529,783.7321485517426,0.5667696309106759,19.880218385735635,0.005073791126342624
154.0,13.183721260627621,779.1372839748666,0.5632866838332031,19.676463438360773,0.005132504916623573
155.0,8.261735035122236,771.9487449432462,0.5604159588647936,19.51872358148332,0.005193284063320426
156.0,4.66363698187499,763.5810223929125,0.5576308344866754,19.36879298071472,0.005253709972421065
157.0,2.0136893074313846,754.3845975368357,0.5543617324048407,19.194933386565097,0.005313497271039242
158.0,-0.4928105948768252,745.1449936566509,0.5505239109289053,18.97735642541162,0.005369657050761278
159.0,-1.8289188443715791,734.8227952240284,0.5467542662480932,18.772943127685068,0.005426616551040158
160.0,-2.3594718869236107,723.7739656176324,0.5435457103659295,18.617573383366,0.005486169852027231
161.0,-2.6628407613974545,712.5731503707832,0.5407344473873529,18.486119271294466,0.005544851918684838
162.0,-2.8148078297531365,701.2941416347857,0.5378749937273949,18.356300599330513,0.00560301758444509
163.0,-2.864394784723392,689.9853979038725,0.5345889080347901,18.209035703402918,0.005660987158660423
164.0,-2.8763893592909473,678.7125505210777,0.5308237850944001,18.03083246266373,0.005716650858006024
165.0,-2.8472713321876713,667.4731289025634,0.5269665033777411,17.849851818081262,0.005771356546200007
166.0,-2.7509248750143427,656.2438990019195,0.5234593696709088,17.70418248391443,0.005827527499715575
167.0,-2.642964112960948,645.0832341956386,0.5203695046176683,17.58687756872317,0.00588292568105814
168.0,-2.529624403769458,634.00031337891,0.5175142676489304,17.482034878501846,0.00593673011680184
169.0,-2.412863528581795,623.0001926980177,0.5146046940690959,17.379427280088876,0.005989758122529629
170.0,-2.293432910326572,612.0865142330655,0.511410625274713,17.270650695253202,0.006042629145150042
171.0,-2.171831343081852,601.2628313907801,0.5078641460756883,17.147540884374017,0.006094769114516447
172.0,-2.051505709034532,590.5357825245,0.5040639129795833,17.01058033088944,0.006145198686570797
173.0,-1.9289362888826167,579.9052885335233,0.500242951168855,16.877940258363857,0.0061947539881295225
174.0,-1.7993691096533164,569.3701557181627,0.49660350278729865,16.766189581077214,0.006244187690867756
175.0,-1.665305706077124,558.9363389911206,0.49320567996352677,16.67460259795856,0.0062925959501142536
176.0,-1.5258384520897859,548.6068300874064,0.4900189512179358,16.596117395858197,0.006339297608300886
177.0,-1.3793952072172937,538.3840348859119,0.48697506960507486,16.524921615015323,0.006384428104838169
178.0,-1.224019356000829,528.2701536470622,0.4839663733846369,16.45788898969077,0.006428337581033737
179.0,-1.0573541836666123,518.2672967646031,0.4808767043291581,16.393618809273285,0.006471302189097387
180.0,-0.8766519113178424,508.3775003758164,0.477642900147663,16.330810860217714,0.006513492173519041
181.0,-0.6787689406760726,498.6027215262678,0.47425800536349716,16.268017340475787,0.006554942599361955
182.0,-0.46013765774428134,488.9449001757856,0.4707423443449873,16.204298102028346,0.006595528779076945
183.0,-0.21682503575447787,479.4060400738155,0.46712816730567686,16.139769376820944,0.006635043171313488
184.0,0.05537265678070554,469.98833743180455,0.4634542789358982,16.07579344638556,0.0066733473532396646
185.0,0.36144385178876587,460.69371329547573,0.45975972333609827,16.014642837226976,0.006710444769995224
186.0,0.707974858312531,451.5230110108808,0.4560767449426537,15.958593470196163,0.006746411572415363
187.0,1.1022345934251314,442.4769516804067,0.452426645754707,15.90906048569443,0.006781296949857077
188.0,1.5513132133994163,433.5570022582733,0.44882007587365164,15.866396683216154,0.00681509393905231
189.0,2.062626157365535,424.76488770098524,0.44525998608481543,15.830231716158272,0.006847768213500904
190.0,2.6442524313700986,416.1022321623749,0.4417452453184707,15.799881743341869,0.0068792940314164495
191.0,3.3049514574189156,407.57054459810035,0.43827311093929167,15.77462000578404,0.0069096688708646945
192.0,4.054048563196365,399.1712887422671,0.43484094134465945,15.75379111809246,0.006938911748213755
193.0,4.9013515549614155,390.90592507663655,0.43144691064621243,15.736846572650482,0.006967054561368458
194.0,5.857079216080453,382.7759410494174,0.4280901819445396,15.723343227741081,0.006994134584507361
195.0,6.9317630354609285,374.78286233860473,0.4247710464106813,15.712923025870504,0.007020189812267059
196.0,8.136164277401868,366.9282838279685,0.42149073239549817,15.705296500241955,0.007045256576919117
197.0,9.481076851631581,359.2138797291399,0.41825169057770695,15.700216082891368,0.007069369399115857
