Time,J,A,S,tau
0.0,100.0,10.0,0.6752544739567641,7.442383357051076
1.0,97.48665698186039,10.67423989259241,0.6777089320335773,7.636000377451615
2.0,94.88460546512884,11.31219104337319,0.6801913040809588,7.832613804197294
3.0,92.21683439144428,11.91589144545118,0.6826991368341743,8.03200593846061
4.0,89.50334544323391,12.487553837954025,0.6852318361347622,8.234117526076453
5.0,86.76172284272452,13.02924548873391,0.6877888257599492,8.438888501028373
6.0,84.00711607342238,13.542892226804538,0.6903695473927733,8.646258004276806
7.0,81.25244798933834,14.030294934883797,0.6929734604830798,8.856164404531356
8.0,78.50857288458863,14.493131660175958,0.695600042359374,9.068545309830599
9.0,75.78455605761219,14.932971301557396,0.6982487878970962,9.283337595505971
10.0,72.74575511759826,15.669846541291077,0.6993492090084391,9.380980416614424
11.0,69.6083969377472,16.4346645775353,0.6995554429638347,9.410719833562073
12.0,66.60451816220436,17.037488110386455,0.699754581183495,9.439933591798408
13.0,63.749374412304725,17.499588025349585,0.6999467165924949,9.468601371482189
14.0,61.05018225829315,17.840047029268995,0.7001319428710234,9.496702929545583
15.0,58.509128165492136,18.07579728146287,0.7003103542076424,9.52421812550952
16.0,56.12530937927692,18.221738334826263,0.7004820450539724,9.551126948982619
17.0,53.896007337413224,18.290921611802126,0.700647109876958,9.57740954588274
18.0,51.817498246757566,18.294734583047916,0.7008056429164389,9.603046246996836
19.0,49.88545425017889,18.243165287040853,0.7009577379310701,9.628017596246988
20.0,48.13119663920365,18.111035118776357,0.7011034879712424,9.652304377361691
21.0,46.56862030031688,17.895236236425138,0.7012429851261665,9.67588764473059
22.0,45.174605953701644,17.62658779235824,0.7013763202860356,9.6987487512156
23.0,43.93068706947273,17.327435555137864,0.7015035829083242,9.720869377287757
24.0,42.821531968517476,17.014145632866164,0.701624860780948,9.742231560545823
25.0,41.833799367059875,16.698861544918604,0.7017402397977961,9.762817724453958
26.0,40.95533706900289,16.390701617368617,0.701849803723894,9.78261070863979
27.0,40.17462456540568,16.096605864011426,0.7019536339848057,9.801593796089584
28.0,39.48040771689421,15.821911506748142,0.7020518094453563,9.81975074319687
29.0,38.86148624038368,15.570757610366966,0.702144406192687,9.837065808702805
30.0,38.304667414290236,15.34816782060172,0.7022314973404149,9.853523781070113
31.0,37.79298002232968,15.161287182261962,0.7023131528259058,9.869110006635962
32.0,37.31008992316706,15.015028510574695,0.7023894392177463,9.883810416932686
33.0,36.84084133882497,14.912142412781293,0.7024604195305909,9.897611555409688
34.0,36.37129329206275,14.853741743996894,0.7025261530475229,9.910500603496446
35.0,35.88888527860995,14.839628056692835,0.702586695150386,9.922465405921502
36.0,35.38265231799088,14.868507496224423,0.7026420971594975,9.933494495068711
37.0,34.84343386064996,14.938145794062326,0.7026924061806522,9.943577115058746
38.0,34.264064010169776,15.045494364723934,0.7027376649653361,9.952703243255378
39.0,33.639509524769565,15.186802210803368,0.702777911767969,9.960863612314101
40.0,32.96702226231191,15.357617854235091,0.7028131802027014,9.9680497346814
41.0,32.246590369069004,15.552454733510226,0.702843499201905,9.974253912533497
42.0,31.481085243980882,15.764853027552872,0.7028688928472685,9.979469263336307
43.0,30.675874274514648,15.987770867092653,0.7028893803001245,9.983689733906143
44.0,29.838361075128503,16.21394127131383,0.7029049757212321,9.986910115669238
45.0,28.977475694548676,16.436187201426744,0.7029156882030313,9.989126058285558
46.0,28.10314552946301,16.647698106208296,0.7029215217140239,9.990334081725075
47.0,27.22577917067683,16.842266309953523,0.7029224750554532,9.990531586752013
48.0,26.355791121606,17.014480130358866,0.702918541830489,9.98971686376474
49.0,25.50318966892192,17.15987012582862,0.7029097104264649,9.987889099921382
50.0,24.677237540189147,17.275010217204695,0.7028959640100411,9.985048384541086
51.0,23.886149803392033,17.357611181754002,0.7028772805355501,9.981195712737014
52.0,23.136825186812295,17.406602892965292,0.7028536327678131,9.97633298707579
53.0,22.434687829244567,17.422133265312677,0.7028249883175217,9.970463018173719
54.0,21.783630336957074,17.405477425970627,0.7027913097014211,9.963589520093818
55.0,21.186030260340825,17.358892789328706,0.7027525543852359,9.955717108633438
56.0,20.642842808494787,17.28544436819562,0.7027086748028453,9.946851307227915
57.0,20.15377438316159,17.18879167944905,0.7026596185549076,9.936998522282245
58.0,19.717395346965752,17.073000056037845,0.7026053285095859,9.926166030146137
59.0,19.331290114029738,16.942370731741498,0.7025457428323203,9.914361986121369
60.0,18.99218619404829,16.8012768381403,0.7024807951620422,9.901595399512752
61.0,18.6960853955305,16.654033233520096,0.7024104147418162,9.887876122256676
62.0,18.438388572796406,16.504781477354538,0.7023345265804604,9.873214831931998
63.0,18.21401776087536,16.357391470627565,0.7022530516208243,9.857623013394985
64.0,18.017538545682662,16.215381851846864,0.7021659069191649,9.841112939218236
65.0,17.84328338634939,16.081858096486513,0.7020730058366256,9.823697648553594
66.0,17.68547794555074,15.959465893601458,0.7019742582421977,9.805390924495796
67.0,17.538371353780562,15.850357749503019,0.7018695707267599,9.7862072700158
68.0,17.396371507527785,15.756169717049328,0.7017588468277546,9.766161882538087
69.0,17.254183670911818,15.678007113593814,0.7016419872639995,9.745270627243839
70.0,17.106951576820368,15.616438415582113,0.7015188901778435,9.723550009558275
71.0,16.950389802539284,15.571497088568265,0.7013894513907349,9.701017146261199
72.0,16.7809061441829,15.542694274249202,0.7012535646687055,9.677689734756788
73.0,16.595700800980765,15.529043816518643,0.7011111219985993,9.65358602054665
74.0,16.392864736488956,15.529094734826632,0.7009620138438951,9.628724771582693
75.0,16.17139977278554,15.540988491510763,0.7008061294634321,9.603125237681216
76.0,15.93125301315665,15.56252388095802,0.7006433571666325,9.576807115702984
77.0,15.673293650652317,15.59121898849851,0.7004735846135764,9.54979053469053
78.0,15.399213516693365,15.624414696322752,0.7002966991573204,9.52209600184613
79.0,15.111448258391887,15.6593629199875,0.7001125880970922,9.493744369129566
80.0,14.813056377957864,15.69332321057157,0.6999211390127899,9.464756810363681
81.0,14.507559706307687,15.72366607563754,0.6997222400673593,9.43515478065128
82.0,14.19877707844034,15.747968792036026,0.6995157803243004,9.404959981530437
83.0,13.890654487080257,15.764101307725163,0.6993016500558129,9.37419432633787
84.0,13.58709994892022,15.770298936012699,0.6990797410528227,9.342879906272962
85.0,13.291830533978457,15.765218370616761,0.6988499469344834,9.31103895676762
86.0,13.008235345148973,15.747974301435335,0.6986121634604598,9.278693824186364
87.0,12.739262091930078,15.718157532858198,0.6983662888559645,9.245866932821713
88.0,12.487342356660957,15.675827160399255,0.6981122241094753,9.212580752031018
89.0,12.254336782711253,15.621482354444678,0.6978498732603686,9.178857764610525
90.0,12.041500006419133,15.556022967937569,0.6975791437367418,9.144720435398257
91.0,11.849495346924156,15.480683137354859,0.6972999464959279,9.110191184489866
92.0,11.67833389017098,15.39698235103491,0.6970121966568092,9.075292348999106
93.0,11.527528199665781,15.306636304874534,0.6967158134701132,9.040046163216445
94.0,11.396060314336278,15.211485908185825,0.6964107205364882,9.004474733004844
95.0,11.282463091059823,15.113432243792229,0.6960968464354242,8.96859999918899
96.0,11.184891070314322,15.014356811743154,0.6957741247283774,8.932443719241904
97.0,11.101191137099205,14.916062875358588,0.6954424941800554,8.896027445432459
98.0,11.02898919730336,14.820219316182499,0.6951018991223423,8.859372496906087
99.0,10.965765649058296,14.728308104617524,0.6947522896694351,8.822499939218511
100.0,10.908950673023606,14.641587163126351,0.6943936219155841,8.785430564366191
101.0,10.856009853578726,14.561059025638041,0.69402585815237,8.748184871623424
102.0,10.804529229071155,14.487450057935146,0.6936489670723076,8.710783049595822
103.0,10.752296881497092,14.421198247034216,0.6932629239617915,8.673244959516754
104.0,10.69737678995091,14.362450966797052,0.692867710883119,8.635590119788118
105.0,10.638168446341707,14.311072494752262,0.6924633168260733,8.597837692711826
106.0,10.573469752102637,14.266660423855534,0.6920497379258485,8.560006468635969
107.0,10.502503997872662,14.228569103520833,0.6916269776904945,8.522114849731565
108.0,10.424899642774447,14.195953360814704,0.6911950467191257,8.484180860717338
109.0,10.340792467899623,14.167803831034183,0.690753963486311,8.446222108094867
110.0,10.25066269264728,14.142994699079079,0.690303754059238,8.408255787049464
111.0,10.15538906526578,14.120342578142761,0.6898444518741111,8.370298698380266
112.0,10.056148122543075,14.098651315802,0.6893760986037022,8.33236719484381
113.0,9.95436000643497,14.076773758178565,0.6888987436374083,8.294477211309372
114.0,9.851611225745685,14.053655099416106,0.6884124441948423,8.256644258111914
115.0,9.749563510485102,14.02838287382394,0.6879172657342144,8.218883399703206
116.0,9.64987360653567,14.000224044599562,0.6874132817739965,8.18120926274427
117.0,9.55411984059917,13.968645144700474,0.6869005737365642,8.143636045917019
118.0,9.463725066075067,13.93332890023824,0.6863792311255292,8.106177512316066
119.0,9.379891315593873,13.894188673332973,0.6858493517873759,8.068846975755177
120.0,9.303572006342376,13.851351862846162,0.6853110415250491,8.031657321651577
121.0,9.235440614874747,13.805141711147895,0.6847644140059047,7.994621013518178
122.0,9.175847010080492,13.756058752174647,0.6842095911023268,7.957750079995112
123.0,9.124838808737113,13.70475039817054,0.6836467031238747,7.9210560972067805
124.0,9.082175763020865,13.65195489838944,0.6830758874007911,7.884550277637726
125.0,9.04734387776305,13.598483210371832,0.6824972903205401,7.8482433472881965
126.0,9.019616679863958,13.54516454526555,0.6819110649404023,7.8121456919626855
127.0,8.998066177609862,13.492809775766924,0.6813173728195485,7.776267244609811
128.0,8.981628378222823,13.442174073107763,0.6807163827478109,7.740617563621184
129.0,8.969163663865848,13.393929622251932,0.6801082710943519,7.70520581768415
130.0,8.9595085680136,13.34862812574054,0.6794932219893355,7.670040774131632
131.0,8.951518367079531,13.30669019936167,0.6788714265301466,7.635130840528145
132.0,8.944140774969366,13.268395359247046,0.6782430829691356,7.6004840608858295
133.0,8.936458465802275,13.233863509347696,0.6776083969689172,7.566108100941031
134.0,8.927700732818387,13.203069604911377,0.676967580789195,7.532010288709513
135.0,8.917289928051108,13.175854404974695,0.6763208532386443,7.498197621056537
136.0,8.904894472483807,13.151926789622728,0.6756684404158408,7.464676729281211
137.0,8.890316533033852,13.13090152578159,0.6750105737006109,7.431453966277442
138.0,8.873709314988389,13.112316311481841,0.6743474926984058,7.3985352927187895
139.0,8.855284641485122,13.095668887218684,0.6736794407448793,7.365926462606618
140.0,8.835471404999018,13.080434177746765,0.6730066688142731,7.333632851982867
141.0,8.814794212303799,13.066100919239759,0.6723294324863273,7.301659595497162
142.0,8.7938908770933,13.052201359797316,0.6716479935530512,7.270011525810263
143.0,8.773420863705613,13.038332117288062,0.670962618788032,7.238693209157503
144.0,8.754055970359554,13.024166220684334,0.6702735799960434,7.207708966326225
145.0,8.736411066280192,13.00948448712258,0.669581154304144,7.177062835274315
146.0,8.72104311387776,12.994151101796648,0.6688856227986151,7.146758652947064
147.0,8.708378940440134,12.978150554376283,0.6681872719260064,7.116799975884366
148.0,8.698746231958648,12.961544886397997,0.6674863914451559,7.087190179014567
149.0,8.692312738133964,12.944492486952647,0.6667832758759,7.057932389418747
150.0,8.689123749355872,12.927209616729025,0.6660782226941707,7.029029553186204
151.0,8.689061136464408,12.909976209982698,0.6653715345921484,7.00048435569745
152.0,8.691928133308704,12.893083891164224,0.6646635155511155,6.97229938757054
153.0,8.697394911253943,12.876840034891543,0.6639544741730784,6.944476963593133
154.0,8.705073172325795,12.861543894887031,0.6632447208973679,6.917019293555227
155.0,8.714513928895844,12.847452950754304,0.6625345696001371,6.889928359168368
156.0,8.72526231448531,12.834798303575482,0.661824335937024,6.86320603464911
157.0,8.736850201148142,12.823734360404776,0.6611143381476171,6.836853994248929
158.0,8.748872426721933,12.814376029829162,0.6604048961305268,6.8108738052669375
159.0,8.760938401318288,12.806750890709983,0.6596963315640537,6.7852668630465836
160.0,8.77277771735019,12.800845496982316,0.6589889675964065,6.760034455712041
161.0,8.784143404840151,12.796570223164352,0.6582831284306125,6.7351777261816395
162.0,8.794925792289009,12.793801871562438,0.657579139400431,6.710697716337901
163.0,8.805016434232934,12.792364670615706,0.6568773261843223,6.686595346513875
164.0,8.814540775870435,12.792072090559639,0.6561780156496053,6.662871386209326
165.0,8.823614279636267,12.792730292954088,0.6554815346017501,6.639526582798499
166.0,8.832331572297264,12.794129272258676,0.6547882094460545,6.616561534767982
167.0,8.840908591672047,12.796084561385554,0.6540983668608511,6.593976755291405
168.0,8.849533284472423,12.798425013710705,0.6534123328155641,6.571772692333465
169.0,8.858413728202391,12.801025825915705,0.6527304325530736,6.549949677051825
170.0,8.867747398058738,12.80377886838027,0.652052990802056,6.528508006812019
171.0,8.877679461866654,12.806631506542056,0.6513803304504758,6.507447867251325
172.0,8.888343904778187,12.80955178790748,0.6507127738349339,6.486769406993302
173.0,8.899807560312883,12.812548427448082,0.650050641034606,6.4664726980128195
174.0,8.912093753553291,12.815662562583295,0.6493942502958607,6.446557741882195
175.0,8.92518959675977,12.818943590883418,0.6487439192755626,6.427024527560337
176.0,8.939013404875281,12.822464107594158,0.6480999609384968,6.407872941007988
177.0,8.953481042608248,12.82630114618656,0.6474626865875679,6.389102830559884
178.0,8.968475664672159,12.830531262332405,0.6468324072050239,6.370714040717377
179.0,8.98381538800297,12.835215144541447,0.6462094283339511,6.352706343839361
180.0,8.999383360179296,12.840400069272457,0.6455940515320449,6.33507945778671
181.0,9.015053147425744,12.846131471802444,0.6449865782830182,6.317833099728091
182.0,9.030625290257989,12.852422453929245,0.6443873059325812,6.300966954933309
183.0,9.046013594480259,12.859257639723896,0.6437965246219566,6.284480646927153
184.0,9.06115560611448,12.866620730514455,0.6432145238788844,6.268373793601115
185.0,9.075932321618888,12.87447436303832,0.642641591164426,6.252646006317851
186.0,9.090299225329542,12.882755526074126,0.6420780043142528,6.237296845829028
187.0,9.104264207987818,12.891402416100716,0.641524038844229,6.2223258586283166
188.0,9.117817885647064,12.900347518813609,0.6409799702331921,6.207732594950996
189.0,9.130956045787558,12.909516615814791,0.6404460641667952,6.193516579265398
190.0,9.14372042430652,12.918844173061709,0.639922578848387,6.179677307030404
191.0,9.156153585248125,12.928264862544795,0.6394097724041538,6.166214273327079
192.0,9.168305388566765,12.937719161249763,0.6389079016648826,6.153126980337954
193.0,9.180204672234144,12.947167993275293,0.6384172096060958,6.140414911353057
194.0,9.191862302015453,12.95657669191775,0.6379379335426343,6.128077532958966
195.0,9.203290215116475,12.965910904246709,0.6374703108486522,6.116114312068906
196.0,9.214540245705564,12.97515753034282,0.6370145764967511,6.10452472987701
197.0,9.225605649241105,12.984314383114835,0.6365709486942766,6.093308255923749
198.0,9.236444021856396,12.993373844851996,0.6361396412597157,6.082464349985418
199.0,9.247014073098873,13.002328680624231,0.6357208680637826,6.071992472148869
200.0,9.257331428594831,13.011193297226425,0.6353148402118511,6.061892102656382
201.0,9.267368260716697,13.019973389409186,0.6349217504574348,6.052162722477475
202.0,9.277056815549306,13.028662068014748,0.6345417866883369,6.042803803802301
203.0,9.28633038257331,13.03725276101827,0.6341751368416513,6.033814819098719
204.0,9.295192463226492,13.04575644100001,0.6338219861642225,6.0251952650906935
205.0,9.30362333529439,13.054165361370574,0.6334825003524593,6.016944649427343
206.0,9.311561865684205,13.062456991725533,0.6331568396692139,6.009062471959391
207.0,9.318948035361673,13.070609075795465,0.632845164422107,6.001548232778808
208.0,9.325812127018914,13.078618641894685,0.6325476323338296,5.994401459256931
209.0,9.332160130212975,13.086467509542665,0.6322643806133388,5.987621697793286
210.0,9.337943641416834,13.094122327602115,0.6319955405032375,5.981208487708696
211.0,9.3431154512593,13.101550014094695,0.631741243285246,5.97516136852729
212.0,9.347742543078693,13.108743623784846,0.631501617781918,5.96947990916546
213.0,9.35185263305722,13.115688641933145,0.6312767715753035,5.964163703881068
214.0,9.355397389640073,13.122353667396563,0.6310668057923131,5.9592123403470385
215.0,9.35832962291493,13.128707558574508,0.6308718215926536,5.95462540640201
216.0,9.3607359383528,13.134751668443917,0.630691917814241,5.950402520617898
217.0,9.362653576561677,13.140482971965294,0.6305271715629085,5.946543331672959
218.0,9.364024084303798,13.145878084575402,0.6303776530534374,5.9430474819547445
219.0,9.364789970229767,13.150913845279183,0.6302434325268597,5.939914613980789
220.0,9.365038777215949,13.155602268762225,0.6301245780437451,5.9371444016852175
221.0,9.364810974242031,13.159949373512188,0.6300211356726559,5.9347365525069256
222.0,9.364039570987002,13.16393723634091,0.6299331442167356,5.9326907677052345
223.0,9.362658313153375,13.167548105510708,0.6298606424990163,5.931006748636771
224.0,9.360750458191395,13.170799276723727,0.6298036673010258,5.929684228194153
225.0,9.35836154066477,13.173700018136147,0.6297622333786359,5.928722974933993
226.0,9.355423842674064,13.176233379782266,0.6297363479178815,5.928122751166672
227.0,9.351870169134559,13.178382531697848,0.6297260181188635,5.927883319271186
228.0,9.347783731945754,13.180164910975225,0.6297312492718654,5.92800447279489
229.0,9.343219067116692,13.181590467956443,0.6297520248272449,5.928486041945831
230.0,9.33811337461289,13.182642021648462,0.6297883204391032,5.929327850434305
231.0,9.332404194866326,13.183302468058235,0.6298401117706077,5.930529722015153
232.0,9.326178061297012,13.183588454070861,0.6299073726960742,5.932091510819984
233.0,9.319499351619509,13.183511813543301,0.6299900556468554,5.93401310750495
234.0,9.312311236538346,13.183057012769376,0.630088105117228,5.936294395770999
235.0,9.30455707952674,13.182208561448533,0.6302014656065628,5.938935259344592
236.0,9.29632483498749,13.180984001001875,0.6303300799335776,5.941935611165126
237.0,9.287686118085654,13.17939895345776,0.6304738700730337,5.945295399413009
238.0,9.278589230538516,13.177441681912907,0.6306327500144525,5.949014564613047
239.0,9.268982559145044,13.175100468708845,0.6308066337496167,5.953093047301746
240.0,9.25895082435359,13.172395016406474,0.6309954336843615,5.957530815734971
241.0,9.24856927893861,13.169345100513674,0.6311990421715135,5.962327870922005
242.0,9.237791522161267,13.165943505178209,0.6314173436295497,5.967484205217686
243.0,9.226571174947082,13.162183019487491,0.6316502224775374,5.97299981098007
244.0,9.214986150794632,13.158085208200669,0.6318975616302529,5.978874706498105
245.0,9.20311261258231,13.153672934607402,0.632159224921403,5.98510893902507
246.0,9.190911108718446,13.148943114077412,0.6324350684059171,5.991702545785776
247.0,9.178342187766415,13.143892662016095,0.6327249481387295,5.9986555640050625
248.0,9.165475699064707,13.138543913004346,0.6330287187405365,6.005968054783806
249.0,9.152386930010564,13.132921523562086,0.6333462168920925,6.01364010295959
250.0,9.139045360214535,13.127026070097862,0.6336772717603518,6.02167178149088
251.0,9.125420469287171,13.120858129020222,0.6340217125122686,6.030063163336145
