Time,J,A,S,tau,r
0.0,1.0,1.0,0.8784457502934361,2.092050209205021,0.0
1.0,2.0390347044634747,1.9138048911864718,0.7944100238815652,2.316520842139449,0.014309665316162706
2.0,4.3383216764559265,2.0759702791263352,0.7191363691441547,2.540201687256217,0.013194419814599782
3.0,6.49696421729987,2.2779928900098514,0.650728355480385,2.732133666323697,0.012281498488536375
4.0,8.46834080880736,3.1880433958541268,0.6527748160072235,2.7293917874165836,0.010909008268274427
5.0,11.52279723095295,3.7775894008631195,0.6548576383929855,2.7266117943518013,0.01014160060439117
6.0,15.026565734895547,4.195476938503571,0.6569759838441755,2.7237956459761548,0.009676946530318246
7.0,18.36321943312666,5.361490055400373,0.659128507473081,2.7209452689357745,0.009385438088729837
8.0,22.75650211225602,6.570664345008113,0.6613145646722104,2.7180626797238783,0.009202240612446476
9.0,28.14092061090082,7.580537909085211,0.6635327518856654,2.7151506407558896,0.009091309977050838
10.0,33.7443970107258,9.28940949239624,0.6657822792084422,2.712210644693622,0.009030995201552362
11.0,40.354559641316705,11.391376470326682,0.6680620098359021,2.7092453151171134,0.009007499489702333
12.0,48.26126500473733,13.455273289507984,0.6703707402552387,2.7062569510982364,0.009011603554546456
13.0,56.74692683560818,16.127844066128684,0.6727074331908671,2.7032479319475753,0.009036910335193106
14.0,65.95492845376165,19.42451021636549,0.6750709201035011,2.7002210897191468,0.009078838053427697
15.0,76.08401181008034,22.92232289119358,0.6774598618293011,2.6971792077686505,0.009134009408759762
16.0,86.51836639414189,26.884350054690078,0.6798736046504498,2.6941243318604093,0.009199881821338919
17.0,96.83944705781431,31.39429418273176,0.6823097826762838,2.691061235330259,0.009274498075695956
18.0,106.87474034767251,36.129548615748995,0.6847675601951859,2.6879924145657443,0.009356325972494152
19.0,116.18607860798632,41.00841037777142,0.6872455104558444,2.6849213888058645,0.009444147196045383
20.0,124.37507463190727,45.97351967065255,0.6897418780164444,2.681852577826764,0.009536978472297857
21.0,131.29745250192306,50.809814533371245,0.6922556483663667,2.678788607007383,0.009634015209596027
22.0,136.92630962114387,55.35902833310837,0.6947850765471449,2.675734120168215,0.009734592718542203
23.0,141.32206225676455,59.54382754250922,0.6973281957122762,2.6726940789735734,0.009838155821822419
24.0,144.64803837432595,63.31861144030567,0.6998839357868147,2.6696716404570338,0.00994423566502222
25.0,147.11632608227086,66.68438568735998,0.7024499642869224,2.6666725550310946,0.010052431519576657
26.0,148.92985568917254,69.68970434024317,0.7050244642969394,2.6637020326133483,0.0101624006582824
27.0,150.2597299134636,72.4067100773154,0.7076058181194768,2.66076453596638,0.010273846254405363
28.0,151.23831831374926,74.91174989471992,0.7101921094923532,2.65786529366751,0.010386509872887287
29.0,151.95904828991308,77.27418251443031,0.7127815124240735,2.6550094717958532,0.010500164361235766
30.0,152.48330171356525,79.55003704294437,0.7153720389409087,2.652202521403803,0.010614609753853586
31.0,152.84942931155203,81.78022742128724,0.7179612573141311,2.649450871351061,0.010729669251671839
32.0,153.08029025795065,83.99261986915552,0.720547481929131,2.6467596264450326,0.010845183977099236
33.0,153.18929942387064,86.20450586805536,0.7231286935250595,2.6441343137940554,0.010961013974238588
34.0,153.1844510777693,88.42577969954964,0.7257020781943622,2.641582338466395,0.011077030982995992
35.0,153.07092057828484,90.66135285375991,0.7282661987255973,2.639108035525038,0.011193119295699936
36.0,152.85278414372652,92.91330868154857,0.7308187788504683,2.636717413262857,0.011309176038526887
37.0,152.53368697961196,95.181717979579,0.7333579160181916,2.6344159849652327,0.011425106108221662
38.0,152.11729658018,97.46617108768328,0.7358818003462615,2.632208803057135,0.011540824225870478
39.0,151.60744429204323,99.76545863455739,0.7383883216000714,2.6301013595471434,0.011656252374927864
40.0,151.0080631177492,102.07834409626554,0.7408753906927424,2.628098900116321,0.01177131847467918
41.0,150.32329714088434,104.40351294585197,0.7433414432873754,2.6262060374708676,0.011885956239451562
42.0,149.55749530604152,106.73955251777727,0.7457843574847478,2.6244279962074857,0.01200010567928657
43.0,148.71495184711173,109.08519075939404,0.7482029325823847,2.6227679740145757,0.012113711465489082
44.0,147.80001607737975,111.43931111021419,0.7505956470259845,2.6212296978368568,0.012226722722374135
45.0,146.81705162531884,113.80054051708849,0.7529609455949683,2.6198174820539353,0.012339091899721565
46.0,145.77044884382533,116.16776604458721,0.7552977921968247,2.618533306243675,0.012450776271951333
47.0,144.6645211894341,118.53988784896637,0.7576050773765022,2.6173794472875738,0.0125617361927152
48.0,143.50352211887298,120.91564122425419,0.7598817672195092,2.6163588449694717,0.012671934527548506
49.0,142.2917022159941,123.29399110942181,0.7621264974570116,2.6154741279752702,0.012781337289393723
50.0,141.03333452163986,125.67369639401188,0.7643387945127534,2.614726062945438,0.012889913388924333
51.0,139.73248054798958,128.05389409740212,0.7665189115920723,2.614113436653927,0.012997634930006984
52.0,138.3930866156302,130.43367241565534,0.7686655621301679,2.6136384240541637,0.01310447498107824
53.0,137.01898096550474,132.8119132154451,0.7707786861444569,2.6133011358211196,0.013210409613444551
54.0,135.6139473662141,135.1878904081867,0.7728577789305998,2.613101365443937,0.013315416667363326
55.0,134.18154198230425,137.5606804291705,0.774903018477504,2.613037632431379,0.013419475698454609
56.0,132.72534898488325,139.92967248839196,0.7769141896694622,2.6131098788944853,0.013522568864844587
57.0,131.2487296123316,142.29422215140153,0.7788915294501569,2.6133163204635834,0.013624679106831449
58.0,129.75467279005358,144.65372896796168,0.7808351414575309,2.6136554723983783,0.013725791500218644
59.0,128.24622783386036,147.0077697743585,0.7827453785270921,2.6141249753019635,0.013825892455325854
60.0,126.72633258367931,149.35575069106866,0.784622563335196,2.614723400295222,0.013924969865071586
61.0,125.19773481576149,151.69723718265226,0.7864668384857195,2.6154489047831655,0.014023012883681032
62.0,123.66301981662599,154.0318305062287,0.788278664606691,2.616298938431932,0.014120011765571238
63.0,122.12451958249814,156.35929785240634,0.790058538838561,2.6172701096103728,0.014215958583852693
64.0,120.58468180851139,158.6794657084783,0.7918070131057726,2.6183608869679253,0.014310845634410131
65.0,119.04538361868258,160.99214991064787,0.793524607240504,2.6195680197301963,0.014404666901916453
66.0,117.50854785621482,163.2972393071497,0.7952120636147342,2.6208877696104653,0.014497417660707126
67.0,115.97604248594097,165.59445928211454,0.7968697440196386,2.622318403336411,0.014589093647332248
68.0,114.44971384771782,167.8836731088712,0.7984981997347722,2.623856748954678,0.014679691476656967
69.0,112.93107668529449,170.164931039852,0.8000980947423804,2.6254990502867703,0.014769209005417073
70.0,111.42156310682232,172.43798259069155,0.8016699644403512,2.6272431567379306,0.014857644940969845
71.0,109.92249562894155,174.70285257785807,0.8032145003154183,2.629085587363845,0.014944998724595888
72.0,108.43513093792696,176.95947744586707,0.8047322647421828,2.6310232188142355,0.015031270510292377
73.0,106.96078575882018,179.20770587193246,0.8062236533975249,2.633054289361616,0.015116461001185449
74.0,105.50042955125419,181.44751189423638,0.807689356062408,2.6351752728177944,0.015200571892599622
75.0,104.05497905977468,183.6786960835596,0.80912982626376,2.6373834798554814,0.015283605782056868
76.0,102.625454119925,185.90113190576005,0.8105455688924539,2.639676420566337,0.01536556539313001
77.0,101.21278414172627,188.1146320196891,0.8119370001712826,2.6420519912632154,0.015446454302343576
78.0,99.81784931700065,190.31902087645443,0.81330460137449,2.644507749439663,0.01552627632863359
79.0,98.44132426871926,192.5140676176236,0.8146488235219708,2.647040960041291,0.015605036343958522
80.0,97.08363903702197,194.69956225558363,0.8159702192403722,2.6496485807134698,0.01568273992558133
81.0,95.74573579405815,196.8750956619713,0.8172689621420206,2.652329544550769,0.015759392488641923
82.0,94.42822473074395,199.0404163239716,0.8185454530661552,2.6550820485524,0.015835000399789117
83.0,93.13163886368548,201.19525936426882,0.8198000833744629,2.657903669359981,0.015909570515760262
84.0,91.85658856782369,203.33925481823883,0.8210330837285694,2.6607930349928375,0.015983109909831678
85.0,90.60354027554048,205.4719574287701,0.8222447147875105,2.663748063445365,0.016055625987225864
86.0,89.37302183316812,207.59294733654278,0.8234351973500926,2.666768002586248,0.016127126799145665
87.0,88.16549919624134,209.7019339424759,0.8246047801276327,2.6698511956134197,0.01619762068430826
88.0,86.98120453639719,211.79863126014007,0.8257538069906991,2.6729955166934998,0.016267116801380002
89.0,85.82052334205349,213.88247443349488,0.8268822550186139,2.6762000811212867,0.016335624094992122
90.0,84.68373559808535,215.95318023515574,0.8279905360037538,2.6794630353648885,0.016403152216134056
91.0,83.57107761182672,218.01030330688718,0.8290787350567194,2.6827830563877053,0.01646971102928563
92.0,82.4826997998223,220.05345116640785,0.8301470676208589,2.68615809407729,0.016535311110168347
93.0,81.41884813353055,222.08208914892867,0.8311954487865335,2.6895878285936603,0.016599962805951853
94.0,80.37964174379916,224.0958744263087,0.8322240826417207,2.693070136265689,0.01666367691085845
95.0,79.36515857492577,226.09447788029843,0.8332333766621554,2.696602886328445,0.016726465086061865
96.0,78.37552533073134,228.07704989715327,0.8342228156913772,2.7001865789543356,0.016788338249615432
97.0,77.41059733309531,230.04356451502156,0.8351930000398462,2.7038174816628837,0.016849308876834907
98.0,76.47048118010166,231.99343087295736,0.8361438814149691,2.7074940609015834,0.01690938880154166
99.0,75.55503130189307,233.9263161033579,0.8370754734328425,2.7112148389428112,0.016968590319759128
100.0,74.66422558382963,235.8414240714529,0.8379876379058068,2.714978378797444,0.017026925559835336
101.0,73.79796662426817,237.738389630912,0.8388806659560925,2.7187821970210444,0.01708440761280011
102.0,72.9560556348001,239.61686312017602,0.8397546330817226,2.722622445120566,0.017141049386346252
103.0,72.13842725479142,241.47593893401145,0.8406092291929806,2.726498922637124,0.017196863611344572
104.0,71.34480950947685,243.3152143114235,0.8414446849579909,2.730407902976411,0.017251863509662766
105.0,70.57503342377618,245.13413056427973,0.8422611173889271,2.734345997942865,0.01730606264301361
106.0,69.82893731535786,246.9319603453686,0.8430583393964444,2.7383107448783623,0.01735947419567833
107.0,69.10621807035182,248.70789843112848,0.8438362357102073,2.7422998533090985,0.01741211103621262
108.0,68.40665230104081,250.4614368442784,0.8445950311212062,2.746307076109294,0.017463986963162474
109.0,67.73001490633644,252.1916714239577,0.8453345502309458,2.7503308566413875,0.017515114966458457
110.0,67.07626713288393,253.89764552191548,0.8460545549901116,2.754369366357431,0.017565507549152953
111.0,66.44508689750253,255.57873683769512,0.8467552832244863,2.7584171866362834,0.01761517849119295
112.0,65.83611074106521,257.2338976904076,0.8474364026984688,2.76247040168548,0.01766413973923362
113.0,65.24919102077183,258.8623046670713,0.8480978582140646,2.7665268286267124,0.017712404193125544
114.0,64.68400753065323,260.4629758282558,0.8487396054983768,2.770580679218344,0.01775998429493761
115.0,64.14050418559471,262.03495732683837,0.8493617375969695,2.7746274000289524,0.017806892116448782
116.0,63.61794848477474,263.5774287527072,0.8499640533763276,2.778660062563591,0.01785313995154866
117.0,63.11625612439628,265.08940977405314,0.850546607663244,2.782673761852393,0.017898739252607213
118.0,62.635251929481505,266.56930507546366,0.8511089551103531,2.7866680473030403,0.01794370083458599
119.0,62.17443921475466,268.01633075078223,0.8516512929258516,2.7906336161534515,0.017988036603882672
120.0,61.73380662094482,269.4292377242694,0.852173452107016,2.794566742266439,0.018031756719017977
121.0,61.31291978402251,270.80720697783505,0.8526754995547577,2.798459293226365,0.018074871740183927
122.0,60.911484331044136,272.1485045464976,0.8531571037883715,2.802309981742106,0.01811739202854056
123.0,60.5290516898445,273.45251407804244,0.8536183911651974,2.8061075389317707,0.01815932742994171
124.0,60.16536501669539,274.71747472706556,0.8540591801318943,2.8098493142037526,0.018200688299304574
125.0,59.820059530009324,275.94234845926735,0.8544794008697963,2.8135274897273024,0.01824148344875654
126.0,59.49276342209819,277.1258160987668,0.85487892732456,2.817134411941245,0.018281721726771977
127.0,59.182879095416155,278.26701222557995,0.8552579503622555,2.820658807387926,0.018321413538298522
128.0,58.88996547885219,279.3646493990465,0.8556162820171967,2.8240943432940155,0.01836056705700527
129.0,58.61352349598264,280.41747532970624,0.85595385146107,2.8274333072675844,0.01839919114918697
130.0,58.3529642687214,281.4242401587299,0.8562706524099859,2.8306639588184046,0.01843729499823622
131.0,58.10772902076509,282.3838508964995,0.8565666424649027,2.8337761979425244,0.018474886908969472
132.0,57.87708765373006,283.29555438644456,0.856841945877161,2.8367576019802323,0.018511975637339913
133.0,57.660307602740396,284.1582707270881,0.8570964949986929,2.8395954490069135,0.01854856985871531
134.0,57.45663149505441,284.9709904452039,0.8573302966384765,2.84227712618841,0.01858467742865136
135.0,57.26525732161177,285.7328204228334,0.8575433804028907,2.8447879488314975,0.018620307083191266
136.0,57.08546052186259,286.4428234631797,0.857735798377276,2.847114427728781,0.018655466642354263
137.0,56.916302333621566,287.10038808087705,0.8579075913151997,2.849240010209677,0.018690164774894262
138.0,56.757027591655444,287.70454557616085,0.8580589296248474,2.8511496488118886,0.01872440986013235
139.0,56.60698159264286,288.25473913649176,0.8581897694799404,2.852830910082135,0.018758209220302805
140.0,56.46539436587691,288.75016549123666,0.8583001586466449,2.854269374499148,0.01879157031582141
141.0,56.33163713869635,289.1900689693074,0.8583901535716592,2.855452066817329,0.018824501043627425
142.0,56.205384191127386,289.573292863238,0.8584598152251569,2.8563697709851925,0.0188570083634289
143.0,56.08611805464403,289.899357282405,0.8585091884779896,2.8570109172610563,0.018889099830887792
144.0,55.97376832878986,290.16738618049555,0.8585382947745686,2.857370146785074,0.018920782088318835
145.0,55.86830367391112,290.37650115589236,0.8585471609122014,2.85744328258348,0.01895206171152053
146.0,55.769749415185665,290.52621482014075,0.8585358274215824,2.85722718911703,0.018982945094860468
147.0,55.67870801490314,290.61482018319373,0.8585042344791218,2.8567273337968695,0.019013437847508637
148.0,55.5956657729031,290.64136969414716,0.8584523968760949,2.855946358200483,0.019043545937186053
149.0,55.52152268465849,290.6046324676761,0.8583802625041033,2.8548926651815303,0.01907327489993452
150.0,55.45720029696672,290.50333245916187,0.858287782550517,2.8535751049047087,0.01910262982424702
151.0,55.40361472461898,290.33698061221304,0.858174956767732,2.852003933475275,0.019131615664398516
152.0,55.36189521308861,290.1045066588225,0.8580416240743115,2.8501928351629795,0.01916023695273729
153.0,55.33321306737777,289.8049752622236,0.8578878472537734,2.848155958135233,0.019188498668918707
154.0,55.3186269070056,289.43759890274754,0.8577135801532991,2.8459057169859157,0.019216405114105467
155.0,55.31958251849233,289.00182741598076,0.8575186870716056,2.8434605236558395,0.01924395966632511
156.0,55.337174741991845,288.4975686760282,0.8573031007310801,2.8408340909003456,0.01927116660266523
157.0,55.3724993785119,287.92452551139417,0.8570668627646433,2.8380403169828514,0.019298030062326735
158.0,55.42662655184994,287.2826441566967,0.8568098852291279,2.835093627797482,0.01932455319800732
159.0,55.50057252721632,286.5723812564892,0.8565322861179043,2.8320067375245577,0.019350740337141445
160.0,55.595393948610706,285.79387099773123,0.8562338660965537,2.8287941594868133,0.01937659398839401
161.0,55.71176580509067,284.9481833883875,0.8559147405485429,2.825464836829456,0.019402117673195867
162.0,55.85060462692944,284.03604451812396,0.8555748680879061,2.822031700987823,0.019427314245961138
163.0,56.01254782103304,283.05845916166794,0.8552143161042625,2.8185039751504046,0.019452186604525447
164.0,56.198173858308614,282.016725201211,0.8548331800390142,2.814889763443767,0.01947673729594892
165.0,56.40808876290615,280.9119226380539,0.8544313643352048,2.811198377112963,0.019500968424053675
166.0,56.6428842482901,279.7456991637739,0.854009033767443,2.8074383241360934,0.01952488208624973
167.0,56.902996992836286,278.5194427438759,0.8535661636654108,2.8036174088785883,0.0195484799997328
168.0,57.18874197866658,277.23522416890364,0.8531028552844696,2.7997407085866253,0.019571763732523836
169.0,57.500600654802135,275.8944546851245,0.85261921116597,2.7958165780758217,0.019594734058038892
170.0,57.83871799146453,274.49913937271276,0.8521153198932487,2.791848297143099,0.019617392217098694
171.0,58.20364550545179,273.0509241780034,0.85159121639547,2.787844615320368,0.019639738246349365
172.0,58.595586804161016,271.55182741602067,0.851047019084661,2.783810230010045,0.01966177243470759
173.0,59.0147636827119,270.0039303972331,0.8504828645903011,2.779750100553932,0.01968349463563111
174.0,59.46152858465643,268.40874961416034,0.8498986957541531,2.775670756816229,0.01970490402763424
175.0,59.93595022065488,266.76864563379377,0.8492947768627358,2.771575323024931,0.01972600009309031
176.0,60.438307503616244,265.0853979989045,0.8486710876766721,2.7674699401645286,0.019746781414272586
177.0,60.96874761778342,263.3610022383867,0.8480277367941812,2.7633589133798186,0.019767246497621915
178.0,61.527531928962524,261.59719480376754,0.8473647135328592,2.759247606181754,0.01978739333174571
179.0,62.114800178086085,259.7960540474112,0.8466821366446787,2.755139943253979,0.019807219973220384
180.0,62.730577864279375,257.9593891051007,0.8459801804568443,2.751038049740408,0.019826724296222068
181.0,63.37502103470853,256.0889801753029,0.8452588705039412,2.7469470710457475,0.019845903671748853
182.0,64.04839856394298,254.186295131712,0.8445180215797539,2.7428741661934932,0.019864754851647227
183.0,64.75076269086014,252.253200619386,0.8437578726270063,2.738820694549022,0.01988327523245229
184.0,65.48213398653317,250.29149578023677,0.8429784254783851,2.734789746404251,0.019901461597809388
185.0,66.24250517903083,248.3027402542286,0.8421797621574001,2.730784539063883,0.01991931069965343
186.0,67.03167035918149,246.28861527736592,0.8413620361602333,2.7268065726763786,0.019936819255678313
187.0,67.8497801805081,244.25021888961763,0.8405249267826802,2.722861904348671,0.019953983351387546
188.0,68.69680598347932,242.18903524278386,0.8396684043951331,2.7189532685774362,0.019970799236769886
189.0,69.57278229419879,240.1063943815821,0.8387925312803601,2.7150827290737047,0.019987263168886493
190.0,70.47735319844223,238.00394397037343,0.8378977189426644,2.71124942029418,0.0200033717418657
191.0,71.41046663463331,235.88239887673052,0.8369832946346256,2.7074602187758234,0.020019120394583183
192.0,72.37204142104335,233.74309754312003,0.8360494562712623,2.7037155219427826,0.020034505118988317
193.0,73.36163285687505,231.58718652829165,0.835096370086946,2.7000155826554466,0.020049522097870094
194.0,74.37912521641576,229.4155374790589,0.8341237222080289,2.6963638828519483,0.0200641669248861
195.0,75.42421207795513,227.2292426548063,0.833131713948249,2.69276128780862,0.02007843542930726
196.0,76.49679962087203,225.02899907580002,0.8321199383045452,2.689210633318166,0.020092322854775666
197.0,77.59635055456792,222.8157037123596,0.831088343736472,2.685712995377932,0.020105824947125147
198.0,78.7223161755683,220.59032604169266,0.8300371803620622,2.682268269962581,0.020118937429562105
