Time,J,A,S,tau
0.0,100.0,10.0,0.6423963088303328,64.71380352349694
1.0,99.92619477303994,8.971309307432964,0.6419364406428698,65.71288099472649
2.0,99.85345526997992,8.048592876974698,0.641483552990361,66.71215392835067
3.0,99.78184216482799,7.22114628317544,0.6410371832793302,67.7114621351348
4.0,99.71128288178512,6.479090056391079,0.6405969333888658,68.7108022649117
5.0,99.6417075554418,5.813576940232167,0.6401624164603605,69.71017126584125
6.0,99.57304881393416,5.2166793387243136,0.6397332562050155,70.70956635051246
7.0,99.50524157808813,4.6812949072391685,0.6393090862322064,71.70898496596145
8.0,99.43822287491903,4.201061303195754,0.6388895493993595,72.70842476707244
9.0,99.37193166286679,3.770278347275319,0.6384742971781935,73.70788359280193
10.0,99.30630866326781,3.3838367065621364,0.6380629890171092,74.70735944449974
11.0,99.2412962028885,3.0371574421369565,0.6376552917255549,75.70685046658379
12.0,99.17683806555395,2.7261376181334467,0.6372508788761152,76.70635492916321
13.0,99.1128793505398,2.4470996687745847,0.6368494302171928,77.70587121223103
14.0,99.04936633511089,2.1967463827649083,0.6364506310866646,78.70539779108105
15.0,98.98624634428857,1.9721219805120656,0.6360541718438181,79.70493322307016
16.0,98.92346762613305,1.770577307884579,0.6356597473143076,80.70447613544496
17.0,98.86097923049256,1.5897369283333327,0.6352670562405045,81.70402521396461
18.0,98.79873089058887,1.4274706268441653,0.634875800735949,82.70357919218793
19.0,98.73667290870745,1.281867940820652,0.6344856857520524,83.70313684142033
20.0,98.67475604514692,1.1512172887599665,0.6340964185549343,84.7026969611523
21.0,98.61293140747372,1.033982332751204,0.6337077081991274,85.70225836971963
22.0,98.55115034244884,0.9287856709436009,0.6333192650112844,86.70181989528226
23.0,98.48936432935643,0.8343923645931817,0.6329308000799105,87.70138036688992
24.0,98.42752487315981,0.7496940212394069,0.6325420247433116,88.70093860556442
25.0,98.36558339871179,0.67369724606879,0.6321526500846404,89.70049341529923
26.0,98.30349114374367,0.6055106994486007,0.6317623864238359,90.70004357376956
27.0,98.24119905290347,0.5443346948020764,0.6313709428180092,91.69958782292653
28.0,98.17865766834556,0.4894524888049978,0.630978026551966,92.69912485888199
29.0,98.11581702039817,0.4402207116580327,0.6305833426355878,93.69865332143362
30.0,98.05262651691744,0.3960624766058306,0.630186593303587,94.69817178297954
31.0,97.98903482598023,0.3564605462313196,0.6297874774954761,95.69767873616219
32.0,97.92498976130432,0.32095070637172013,0.6293856903594822,96.6971725811507
33.0,97.86043815975157,0.28911697936494785,0.6289809227348663,97.69665161131823
34.0,97.79532575383197,0.26058624072614917,0.6285728606286376,98.6961139974662
35.0,97.72959704555187,0.235023893438687,0.6281611847162107,99.69555777120213
36.0,97.66319516530113,0.21213025934116445,0.6277455697984274,100.69498080546066
37.0,97.59606173125187,0.1916365952301455,0.6273256842855786,101.69438079371479
38.0,97.52813670200773,0.17330223936168385,0.6269011896792904,102.69375522693565
39.0,97.4593582113466,0.15691178357895802,0.6264717400121481,103.69310136658747
40.0,97.38966240794922,0.1422723222292173,0.6260369813431015,104.69241621629453
41.0,97.31898327431719,0.12921148847339597,0.6255965512079731,105.69169648867296
42.0,97.24725243319433,0.11757523251620955,0.6251500780681881,106.69093856785442
43.0,97.17439895382961,0.10722604799290829,0.624697180808029,107.69013846926632
44.0,97.10034912430396,0.09804151309806641,0.6242374681620975,108.68929179132249
45.0,97.02502622214577,0.08991264125565009,0.623770538203125,109.68839366313752
46.0,96.94835026545469,0.08274282333862279,0.6232959778291921,110.68743868539975
47.0,96.87023772368106,0.07644660668635614,0.6228133621986887,111.6864208598738
48.0,96.79060124484575,0.07094870514462465,0.6223222543062168,112.6853335168275
49.0,96.70934930073265,0.06618319109037128,0.6218222044022501,113.68416922214371
50.0,96.62638586959538,0.06209265236310954,0.6213127496376688,114.68291968505423
51.0,96.541610004159,0.05862769896499886,0.6207934135041373,115.68157563665179
52.0,96.45491544946762,0.055746298485355304,0.6202637055529449,116.6801267102982
53.0,96.36619015276807,0.05341331926214853,0.6197231209788878,117.67856129120277
54.0,96.27531572784189,0.051600261219398556,0.6191711402809802,118.67686634536634
55.0,96.18216692469025,0.050284884855972975,0.6186072291165559,119.67502723923086
56.0,96.08661097296881,0.04945102697829454,0.618030838087457,120.67302751802328
57.0,95.9885069212566,0.04908843177627859,0.6174414027357854,121.67084867034391
58.0,95.88770453010443,0.049193268913834756,0.6168383431232614,122.66846975733445
59.0,95.78404402469467,0.04976749197842431,0.616221064936138,123.66586726017397
60.0,95.6773545693227,0.05081893813013754,0.615588959003654,124.66301456157282
61.0,95.56745336920636,0.05236220643216129,0.614941402094434,125.65988157787874
62.0,95.4541444246119,0.054418301850405054,0.614277757628705,126.65643426931774
63.0,95.33721709549965,0.0570156370635926,0.6135973765884533,127.65263407083302
64.0,95.21644459280621,0.06019036758275014,0.612899598808056,128.6484372720945
65.0,95.09158219569692,0.06398702921557907,0.6121837545353359,129.643794281445
66.0,94.9623652699239,0.06845939085825396,0.6114491663871109,130.63864879285205
67.0,94.82850692419093,0.07367157678688434,0.6106951517444174,131.63293679370554
68.0,94.68969556840436,0.07969923149642356,0.6099210256985722,132.62658550082622
69.0,94.54559209541691,0.08663049371746216,0.6091261045359387,133.61951212330445
70.0,94.39582641846204,0.09456808697272684,0.6083097099419295,134.61162234531895
71.0,94.23999403226377,0.10363071561790069,0.6074711739066813,135.60280876685633
72.0,94.0776515968031,0.11395556402736245,0.6066098446371971,136.59294892246754
73.0,93.90831248947944,0.1257002243196534,0.6057250932712033,137.58190322785813
74.0,93.73144117571205,0.13904596978303593,0.6048163220057542,138.56951239989976
75.0,93.54644750917798,0.15420027011584497,0.6038829731314286,139.5555947776608
76.0,93.35267956936897,0.17140102083375355,0.6029245399865061,140.53994297534797
77.0,93.14941639231117,0.19091976857434945,0.6019405789238199,141.5223204072819
78.0,92.93585890715633,0.2130671154328931,0.6009307238026038,142.50245697442426
79.0,92.71112068910965,0.2381968950566176,0.5998947016412901,143.4800445728616
80.0,92.47421678833804,0.266712646090167,0.5988323512038468,144.45473167390446
81.0,92.22405178009268,0.29907314513120126,0.5977436435004483,145.42611744155536
82.0,91.9679507414691,0.34387406096636736,0.5966287049522031,146.39374507418248
83.0,91.72908264303673,0.4208636161654747,0.5954878431929135,147.35709440512093
84.0,91.48532308260353,0.5074540110365181,0.5943215760712852,148.3155735634107
85.0,91.23779904198499,0.6049381186567415,0.593130663083798,149.26850994513933
86.0,90.98802983123504,0.7147767253657153,0.5919161399558656,150.21514023542915
87.0,90.73801697317856,0.8386172397329946,0.5906793559134218,151.15459960726992
88.0,90.49034942562382,0.9783135210255252,0.5894220135088524,152.08591010554676
89.0,90.24832486130086,1.1359464233222178,0.588146210330334,153.00796838446172
90.0,90.01608710451062,1.313844735919294,0.5868544820138597,153.91953292485584
91.0,89.79877777642842,1.514605959297927,0.5855498455103656,154.81921099355614
92.0,89.60269834524239,1.741116126498826,0.5842358411740748,155.70544571459163
93.0,89.43547543913374,1.9965676441191513,0.5829165717829478,156.57650375127633
94.0,89.30621651465643,2.2844742436533365,0.5815967366109561,157.4304640853731
95.0,89.22564007492686,2.6086810281762514,0.5802816570855426,158.26520886075977
96.0,89.20615161233886,2.9733683597537492,0.578977291270998,159.07841704013924
97.0,89.26183172381394,3.3830474827055474,0.5776902333289383,159.86756195855546
98.0,89.40828916948654,3.842545986557011,0.5764276941408091,160.62991385344225
99.0,89.66232270911333,4.356980742240963,0.575197458506371,161.3625487270058
100.0,90.04132924028754,4.931716774065779,0.5740078160327853,162.06236432256995
101.0,90.56238306288887,5.572309639611683,0.5728674604424656,162.72610490904262
102.0,91.24093971169258,6.284431307952983,0.5717853569117526,163.35039506373028
103.0,92.08909324608446,7.073778324611877,0.5707705756561089,163.93178271401194
104.0,93.1134730901302,7.945964635674532,0.5698320940416318,164.46679178745237
105.0,94.3126986216768,8.906397884166982,0.5689785667938856,164.95198327827168
106.0,95.67480369987267,9.960149305800853,0.5682180799793826,165.38402213301868
107.0,97.17468126963831,11.11181522745501,0.5675578880157567,165.75974865935495
108.0,98.77202143948726,12.3653781098089,0.5670041455655876,166.0762517744271
109.0,100.41035516666271,13.724079327113133,0.5665616567487054,166.33093797041408
110.0,102.01756927014719,15.19030805609118,0.5662336538848113,166.52159232873947
111.0,103.5082237980265,16.765508693329963,0.5660216064644681,166.64643083577312
112.0,104.78795617243713,18.450114803879167,0.5659250764510546,166.7041396362401
113.0,105.75984084102936,20.243517855255032,0.5659416364604672,166.69389675047285
114.0,106.33192246978368,22.144072400980576,0.5660668568077558,166.6153746570139
115.0,106.4251001326004,24.14912515159316,0.5662943364436686,166.4687299368352
116.0,105.98019859851432,26.255077539120013,0.5666157962295956,166.25457559875557
117.0,104.96279701544938,28.45747656562033,0.5670212294225225,165.97393796663235
118.0,103.36542536018048,30.751116227162974,0.5674990713725979,165.62820772522932
119.0,101.20638532410332,33.130154942152174,0.5680364037070638,165.21908196188897
120.0,98.52519465542609,35.5882473316058,0.5686191974294436,164.7484980574838
121.0,95.37697469104403,38.11865460528996,0.5692325092285686,164.21857818390836
122.0,91.82526366891538,40.714366520587596,0.569860710209188,163.63156826446937
123.0,87.93547033489344,43.36820652063778,0.5704876878396383,162.98978468033306
124.0,83.76957112726072,46.072925926002966,0.5710970318574692,162.29556670435147
125.0,79.38260152923736,48.82128464606863,0.571672199806013,161.55123587105425
126.0,74.82099390896703,51.606117324169624,0.5721966601289796,160.75906274736147
127.0,70.12243094848456,54.420385807060775,0.5726540135897913,159.9212407918545
128.0,65.31673476871508,57.2572189044208,0.5730280946681328,159.03986679960016
129.0,60.42729682915858,60.10994038111917,0.5733030546722266,158.11692737893324
130.0,55.472618158552905,62.97208885027426,0.5734634313567839,157.15428997217649
131.0,50.467748319115174,65.83742643976963,0.5734942025770299,156.1536991996147
132.0,45.42541703036176,68.69994493206917,0.573380834342637,155.11677537055073
133.0,40.35689654905124,71.55386263194298,0.5731093166490521,154.04501706234183
134.0,35.272580304536035,74.39362000554327,0.5726661966255223,152.93980496633677
135.0,30.182358882509842,77.2138720506341,0.5720386072931248,151.80240745336434
136.0,25.09584750086625,80.00947902087026,0.5712142941928503,150.6339871564774
137.0,20.022514565216298,82.77549715944119,0.5701816425940105,149.43560795701197
138.0,14.97175022541067,85.50716581007484,0.5689296979523005,148.20824327094417
139.0,9.952894780167483,88.19990030015826,0.5674481975193431,146.9527827854781
140.0,4.9752477543627025,90.84928066380974,0.565727595604757,145.67004035447903
141.0,0.048061658661393,93.45104446537275,0.5637590897550813,144.36076128264799
142.0,0.0,96.00107837419746,0.5615346511022444,143.0256292302275
143.0,0.0,97.2737945092553,0.6179446173714236,48.67437012912807
144.0,0.0,101.53041906257504,0.6259452244087556,41.14163033374148
145.0,0.0,106.92963762632317,0.6263835040326617,37.73525727794538
146.0,0.0,111.67775247323117,0.6240337312871873,35.56828667269402
147.0,0.0,114.96258868403802,0.6201582113288246,34.00205436729126
148.0,0.0,116.58193149505749,0.6153029282835583,32.78842241460093
149.0,0.0,116.69861623464395,0.6097614804405973,31.8049824455691
150.0,0.0,115.64168562425898,0.6037136478050691,30.982429512627366
151.0,0.0,113.76663296929726,0.5972796852972917,30.277818197029898
152.0,0.0,111.37802084006509,0.5905454246594924,29.662784075701786
153.0,0.0,108.70182979592444,0.5835752747998992,29.11768341091202
154.0,0.0,105.8885291069648,0.5764195288197639,28.628409547240807
155.0,0.0,103.02976968540216,0.5691187511850607,28.184536346702448
156.0,0.0,100.1771841851347,0.5617065344679433,27.77818054729114
157.0,0.0,97.3579430988368,0.5542113261859914,27.403264188098024
158.0,0.0,94.58540970417562,0.5466576487653506,27.05503204261084
159.0,0.0,91.86576984568666,0.5390669788551136,26.72970957883989
160.0,0.0,89.20166300409758,0.5314583501385517,26.424270862042466
161.0,0.0,86.59408027537687,0.523848817058006,26.136261785040936
162.0,0.0,84.04326305953659,0.5162538312921754,25.863669037314715
163.0,0.0,81.54910996827009,0.5086873874389422,25.604850824062027
164.0,0.0,79.11135771255171,0.5011623311139012,25.358429204017852
165.0,0.0,76.72967262891012,0.49369051005548986,25.123255152425013
166.0,0.0,74.40364433656484,0.48628274073967437,24.898374890273615
167.0,0.0,72.13284172399393,0.47894918248466295,24.682961858077196
168.0,0.0,69.91677900110219,0.47169908038880065,24.4763349711029
169.0,0.0,67.75494103078388,0.46454115482454345,24.27789148082634
170.0,0.0,65.64678666887917,0.45748337010050383,24.087131141630156
171.0,0.0,63.591726711593815,0.4505332035829831,23.903607336892282
172.0,0.0,61.5891674671894,0.44369752434723553,23.726942723217842
173.0,0.0,59.63845216923431,0.4369827122473056,23.556800441179025
174.0,0.0,57.73894398215911,0.43039465726342646,23.3928907308034
175.0,0.0,55.88993100732861,0.42393878425557596,23.23495296014054
176.0,0.0,54.09072626300941,0.417620085218027,23.082760104767928
177.0,0.0,52.34056600297536,0.41144312006207334,22.936106445346205
178.0,0.0,50.63873290520587,0.40541204716660184,22.794812168813486
179.0,0.0,48.984418035661406,0.39953069924234863,22.658709154442857
180.0,0.0,47.3768539361113,0.39380240686819873,22.52765378951497
181.0,0.0,45.815261301086366,0.3882303705384287,22.40150767471103
182.0,0.0,44.2987727537635,0.3828172496691952,22.28014943127669
183.0,0.0,42.82661485780152,0.3775655050074921,22.163467427529255
184.0,0.0,41.39792093243052,0.37247731237387466,22.051356547971217
185.0,0.0,40.01184862216461,0.3675545001163773,21.943722500707064
186.0,0.0,38.6675293644665,0.3627986790891893,21.84047641596976
187.0,0.0,37.36410691467762,0.35821120126396533,21.74153635348264
188.0,0.0,36.10070726742598,0.35379317537144506,21.646826009131132
189.0,0.0,34.87646403292861,0.3495455165886295,21.55627374590528
190.0,0.0,33.69050160308344,0.345468923382072,21.469812711338626
191.0,0.0,32.54194616694367,0.34156391071261144,21.387380115264364
192.0,0.0,31.42992435488453,0.3378308257840947,21.30891682206667
193.0,0.0,30.353564835911314,0.33426985691760064,21.23436714240124
194.0,0.0,29.312000371973674,0.3308810499933853,21.163678506107612
195.0,0.0,28.304369573088735,0.3276643216238493,21.096801222695813
196.0,0.0,27.329815595186975,0.32461947172540645,21.033688279431715
197.0,0.0,26.387490628783944,0.3217461965255629,20.974295147339276
198.0,0.0,25.476556890146785,0.3190441002102606,20.918579623003744
199.0,0.0,24.59618833417867,0.3165127065879625,20.866501677856157
200.0,0.0,23.74557266327636,0.3141514696410593,20.818023338161268
201.0,0.0,22.92391423650451,0.3119597836763763,20.773108569958595
202.0,0.0,22.130437409901457,0.30993699247674517,20.731723182814267
203.0,0.0,21.364389159701183,0.30808239853062286,20.69383473056648
204.0,0.0,20.625043196546052,0.30639527078913426,20.659412441212655
205.0,0.0,19.91170430390958,0.30487485200900427,20.628427135818512
206.0,0.0,19.2237127075648,0.30352036549521805,20.600851170534487
207.0,0.0,18.560449104891706,0.3023310209829079,20.57665837186571
208.0,0.08312516248334875,17.92133996369836,0.3013060197699329,20.5558239854862
209.0,0.7032947437967656,17.305862651105798,0.3004445593592162,20.538324626899282
210.0,1.3594506397531787,16.713550969366413,0.29974583707033053,20.52413823658114
211.0,2.0535462737853782,16.144000205175452,0.2992090531203855,20.513244038272145
212.0,2.7871493343100195,15.596872081142983,0.2988334129464788,20.505622504088638
213.0,3.561399445021448,15.071898311140425,0.29861812903555596,20.50125531424487
214.0,4.3769675302200035,14.568884474198189,0.29856242196915767,20.50012533341621
215.0,5.234011254168824,14.087711655388759,0.2986655212419847,20.502216579273846
216.0,6.132153873435138,13.628335462587419,0.298926664903444,20.50751416676441
217.0,7.070561398067687,13.190802893494505,0.29934509300393075,20.516004395064844
218.0,8.04778688624852,12.775223367258658,0.2999200544026346,20.52767452453747
219.0,9.061718009708244,12.381782592457643,0.30065080394786475,20.542512946297173
220.0,10.10972643639847,12.010739379687006,0.301536594729974,20.56050908470852
221.0,11.188556664288464,11.6624143261542,0.3025766794919532,20.581653383363268
222.0,12.29440658021487,11.337187881188285,0.303770304395634,20.60593730099388
223.0,13.42293492959042,11.035491752310588,0.3051167056583668,20.633353297775002
224.0,14.569295265629318,10.757800589500873,0.3066151050656905,20.663894827662947
225.0,15.728181202798387,10.504622893037563,0.30826470502138115,20.697556332601906
226.0,16.893880078260114,10.276491240537485,0.3100646832189714,20.734333239492
227.0,18.06033347924242,10.073951960870138,0.31201418696675726,20.774221960143976
228.0,19.221202799639414,9.897554349555984,0.31411232719913307,20.817219894488606
229.0,20.369937854572278,9.747839520636912,0.31635817220779844,20.863325437355986
230.0,21.499846721239997,9.62532896434923,0.3187507411269394,20.91253798919184
231.0,22.60416539041085,9.530512870364214,0.32128899720628246,20.96485797113544
232.0,23.676127707382015,9.463838292046235,0.3239718408758271,21.02028684505469
233.0,24.709030847399305,9.425697068204146,0.3267981027282154,21.078827139142998
234.0,25.69630234732005,9.416413758946577,0.32976653637227704,21.14048247910597
235.0,26.63156905227068,9.436233662421285,0.3328758111909165,21.205257626319618
236.0,27.50872807552446,9.485310951301015,0.3361245050721778,21.27315852367095
237.0,28.32201693217139,9.563697102149538,0.33951109732397755,21.344192347966445
238.0,29.066110256646155,9.671329593449292,0.3430339606596402,21.418367582239963
239.0,29.736190273252124,9.808021662968637,0.34669135509110266,21.495694077832876
240.0,30.328035401824323,9.973452218758446,0.35048141974793634,21.576183154404
241.0,30.838122057497902,10.16716111524274,0.3544021681786316,21.659847668611647
242.0,31.263754871318874,10.388537870762676,0.3584514775368353,21.746702185424546
243.0,31.603079971889684,10.636813987913891,0.36262708007581373,21.836763134717952
244.0,31.855146250999848,10.911078249269572,0.36692657155340713,21.930048752567558
245.0,32.020094887014594,11.210249691437143,0.37134738136597273,22.026579609200493
246.0,32.09895233391878,11.533096933562673,0.3758867816999555,22.126378541182046
247.0,32.09379700210976,11.878244652290812,0.3805418860001984,22.22947085205064
248.0,32.00772311161144,12.24415926911243,0.38530961909165284,22.335884950750575
249.0,31.844652596157058,12.629181650642067,0.39018673922260116,22.44565214181715
250.0,31.60936166491822,13.03152176285221,0.39516981549559793,22.558807269413986
251.0,31.307362720848605,13.449272212648625,0.40025522406610287,22.675389101527823
252.0,30.944762459747352,13.880421914233342,0.4054391426074258,22.795440721568507
253.0,30.52814950659068,14.322870000057435,0.41071754688229034,22.919009977059527
254.0,30.06448200137467,14.774438066831527,0.41608620463483575,23.04615005586246
255.0,29.5609685798294,15.232883735812864,0.42154066358619324,23.17692019798235
256.0,29.024967327090774,15.695915890641809,0.4270762483555528,23.311386374683934
257.0,28.463896690341667,16.16120971189974,0.43268805212426337,23.44962210421111
258.0,27.88516284258283,16.626422479286774,0.4383709286477897,23.59170937090902
259.0,27.296102930645866,17.089210328723482,0.4441194834854582,23.737739658997043
260.0,26.703943626729092,17.5472461894405,0.4499280644168032,23.887815114001413
