Time,J,A,S,tau,r
0.0,1.0,1.0,0.991294372856334,9.25925925925926,0.0
1.0,6.972517514280266,5.100212147867838,0.9875138314271207,9.413360672054248,0.04234855395637689
2.0,25.025138352584438,9.101257554078634,0.983656078732473,9.563548110075816,0.04236431559426318
3.0,53.38440844296071,13.00516030158603,0.9797188207686782,9.709750994322235,0.042379608702954076
4.0,90.52162488012448,16.813873613549806,0.9756997564840888,9.85190011352075,0.042394368545593
5.0,135.11673210277092,20.52927712908782,0.9715966734182545,9.989928607180033,0.042408520835986445
6.0,186.02795677937726,24.153178844563673,0.9674071007775596,10.123771768741545,0.042421990384598214
7.0,242.2662390424578,27.68734456323046,0.9631287647577987,10.25336126066071,0.04243474163808543
8.0,302.9731512954596,31.133444546932893,0.9587595250430125,10.378636631679024,0.042446683972213406
9.0,367.402427717893,34.4931265281495,0.9542962948256349,10.499530260829722,0.04245778150219225
10.0,434.9043078110037,37.767936629823325,0.9497372806484409,10.61598384050127,0.04246794611395307
11.0,504.3869075887228,41.63644738944376,0.9453791657069334,10.594500468621492,0.0424733898289752
12.0,568.3205931255571,55.46564544207687,0.9445824268382651,10.564912861627374,0.04177702569842936
13.0,625.4866516508599,80.20549388312753,0.9438804102617482,10.536434343438199,0.041178822589127875
14.0,669.0082622813694,113.86034041764677,0.9432435622811212,10.508458364439889,0.040661556851989314
15.0,691.416776874616,154.7944614537095,0.9426171058003915,10.480446347959665,0.040212312767585884
16.0,690.4241693670367,201.65658629897726,0.9419332537709616,10.451837592526639,0.03982137099154546
17.0,668.3098557049874,253.3269940324097,0.9411283297232474,10.42201991207062,0.039481627340284466
18.0,629.1646115599274,308.87576621550437,0.9401602944368856,10.390205357106723,0.039188185400880274
19.0,576.9712821374865,367.52872919063816,0.9390178536414131,10.355330459778548,0.03893804127805302
20.0,514.9176940317161,428.64606606947837,0.9377199813405745,10.315773516043759,0.038729263637128405
21.0,445.3199845854086,491.76233211878025,0.9363020045051,10.268834460562346,0.038558946401934024
22.0,368.6387256576826,557.7099801458712,0.9347997948263264,10.208849485368061,0.03841913924260151
23.0,282.1216626571825,630.0765618778856,0.9332375835971928,10.108217276797255,0.03830410113407662
24.0,185.22478881527175,710.0132816477385,0.9316245371043061,9.865596017350674,0.038246221461497046
25.0,113.96110148744465,762.380624442546,0.9299680628264606,9.780684598172595,0.03814246723182432
26.0,64.5176684434442,791.8666128940032,0.9282815371055082,9.72434298252538,0.038037243944977914
27.0,31.023292174878108,804.9111666157587,0.9265974824134122,9.679162272887972,0.037925366361236286
28.0,8.675097908575891,806.6922339465289,0.924967893200195,9.640535709205041,0.03780581542539534
29.0,-6.016433102570732,800.9439876635424,0.9234532806254304,9.606097284744564,0.03768183311412204
30.0,-15.499472852036718,790.2721996710617,0.9221000840807025,9.57438597547173,0.037557076227657936
31.0,-21.41247816456533,776.4160348917086,0.9209177574220792,9.54441151741062,0.03743435509051519
32.0,-24.8323736812769,760.5170357856451,0.9198683574108848,9.51541826994203,0.037315591047785174
33.0,-26.45552654700507,743.3140179678223,0.918868020761881,9.486773253591856,0.037202103514034905
34.0,-26.857062287297996,725.4099009171281,0.9178079565729488,9.457890150028913,0.03709487828512099
35.0,-26.63686645212844,707.4199680324593,0.9165837023866638,9.428151564615321,0.036994829481856006
36.0,-26.071259422510145,689.6268823663937,0.9151231988620666,9.396831888452388,0.03690301053085746
37.0,-25.279923403059993,672.1533041069014,0.9134027888141979,9.36300731291777,0.036820772422880996
38.0,-24.31924118223798,655.0574223044434,0.9114443014799303,9.32533500510445,0.036749818227480045
39.0,-23.216424742116708,638.3685183898981,0.9093001698107093,9.281752033419973,0.03669160360515269
40.0,-21.984123797835718,622.1018696905916,0.9070263240611406,9.228620049980012,0.036645577366695145
41.0,-20.628223792988294,606.2668822137638,0.9046647063959661,9.156986791383723,0.036607168104764325
42.0,-19.509415439153305,591.227571778733,0.9022354706716149,9.010244973687142,0.03658161435217714
43.0,-18.451115642890247,576.8032363392953,0.8997463611677599,8.853611915669681,0.036557472001192325
44.0,-16.785582770787318,562.3409102165596,0.8972043318772163,8.781336410754966,0.03651921268644306
45.0,-14.980767498974211,548.3190245734057,0.8946285825383907,8.728769851253427,0.03647543883449484
46.0,-13.02972116056729,534.7401658490925,0.8920590716140123,8.68611497223683,0.03642296162602857
47.0,-10.922237473663628,521.604499779142,0.8895606559992699,8.649649559985935,0.036362303451266266
48.0,-8.649746920812664,508.91455371274833,0.8872056832412781,8.617301488862473,0.03629581304022081
49.0,-6.208352502919812,496.677511316954,0.8850586659691414,8.587760001723352,0.03622581466900786
50.0,-3.5998956138711815,484.9058311823594,0.8831488655675469,8.560148609860098,0.036154088109497835
51.0,-0.825611178412231,473.6104636293346,0.8814559553673779,8.533820673825893,0.036081888021821454
52.0,2.1132833246409524,462.8010518579852,0.8799089618521282,8.508268635345189,0.036010086572210435
53.0,5.214891190316203,452.48597513395777,0.8783992260518569,8.483062976479992,0.03593930839813079
54.0,8.485005759768045,442.66354587519146,0.8768035099337522,8.457809076749983,0.03587003838983857
55.0,11.929588690100669,433.3292734561199,0.8750101562166721,8.432110740671222,0.03580271011475711
56.0,15.549489230378734,424.4806099410501,0.8729412844981859,8.405536451723206,0.035737783091438345
57.0,19.337404130156255,416.1194501339793,0.8705651234981434,8.377561771285029,0.03567580480943641
58.0,23.276862913955586,408.2526213599683,0.867894316883358,8.347521236412456,0.03561747296418922
59.0,27.342585576645593,400.89071353893127,0.8649742834025266,8.314518879831308,0.035563624852371446
60.0,31.50443783355552,394.0435437478948,0.8618653110159467,8.277259384826683,0.03551503336506368
61.0,35.72747049488834,387.7199456352734,0.8586239157847192,8.233767526685583,0.03547182071463452
62.0,39.96110026288934,381.9378388078025,0.8552916967835439,8.180610260531768,0.03543255252004733
63.0,44.01430687664956,376.8462867366602,0.8518921614405366,8.109233036588858,0.03539481911332919
64.0,46.678246467369966,373.58694989670624,0.8484362588173676,7.995182080873921,0.035360251977710436
65.0,49.24728044305001,370.7832444909918,0.8449291937854614,7.887409057527677,0.03532390494056661
66.0,52.79271018132493,367.3487486350775,0.8413766004161823,7.821086037567612,0.03528276518911707
67.0,56.31664985479328,364.2532090571269,0.8377896373063077,7.771814892860652,0.03523860155749741
68.0,59.65342812890689,361.6156015835879,0.8341882246226228,7.731878958234185,0.03518984766581454
69.0,62.752748687550685,359.4354595126782,0.8306082284816538,7.698088791043853,0.03513599890830239
70.0,65.57450559264424,357.7019485719714,0.8270984208542431,7.6686228030087005,0.035077733263316986
71.0,68.08768297938634,356.39679971334107,0.8237145440941008,7.642307960963526,0.03501611300210111
72.0,70.276854500054,355.49076906785257,0.8205100102778533,7.618346001161753,0.03495212890309798
73.0,72.12093656046352,354.9659249433504,0.8175278665168588,7.596173288832432,0.03488657061333278
74.0,73.60134401020152,354.80645866962357,0.8147900609808579,7.575378606196502,0.03482002619831129
75.0,74.72791213319758,354.9729482048881,0.8122936248278473,7.555648503566201,0.03475292388566962
76.0,75.53284555341884,355.40960002304223,0.8100098363562169,7.536738481766701,0.03468557233527183
77.0,76.06083267716042,356.05482839684737,0.8078876587112758,7.518449805188241,0.034618194771232826
78.0,76.36210086351494,356.84733247273886,0.8058598615163136,7.500615685110849,0.03455095542528601
79.0,76.4893310445508,357.72887939265263,0.8038522222871958,7.483093711112083,0.03448396967426041
80.0,76.49408124327326,358.646997227911,0.8017911021918074,7.465757528828784,0.034417324379213285
81.0,76.42601951561201,359.5549032618225,0.7996120140425935,7.44848551103576,0.03435108649578009
82.0,76.33730780891005,360.40622108416704,0.7972653923539671,7.431161856174945,0.03428531202209236
83.0,76.27850158649932,361.15919255319517,0.7947198571876667,7.413668807965494,0.034220053672254225
84.0,76.2724586635685,361.8015227375668,0.7919627816882299,7.395883274691334,0.03415536746830314
85.0,76.34126054814253,362.3220797459281,0.788999078886982,7.377674391374304,0.03409131841410942
86.0,76.49903945452455,362.7179583361233,0.7858473027699118,7.358894957726259,0.03402798560376419
87.0,76.75088690296717,362.9953789715426,0.7825357732235984,7.339382123581908,0.03396546187434462
88.0,77.09357333445556,363.1676016360406,0.7790974912721963,7.318942123247512,0.03390385196662076
89.0,77.51830836285157,363.2520103908419,0.7755660266220505,7.2973459001149354,0.03384326020644178
90.0,78.01343731423486,363.26747628820766,0.7719727511610208,7.274321877567028,0.033783764320732046
91.0,78.56596339341985,363.23231027681436,0.7683436986007159,7.2495372511772675,0.033725378345929695
92.0,79.16177154555155,363.1639430871637,0.764700400497707,7.22258706420592,0.03366800187399547
93.0,79.78527004897089,363.079990623139,0.7610586646859603,7.192965018665887,0.03361137730624831
94.0,80.41417653570669,363.00310652032505,0.7574304589379405,7.160022134782483,0.03355510892082724
95.0,81.00752294324683,362.97253203225887,0.753823740389415,7.12281167924724,0.03349878794946138
96.0,81.48616531154453,363.06453497509403,0.750244812758739,7.080024496823348,0.03344219054602215
97.0,81.75211975409539,363.37261661544886,0.7466985239166303,7.0309399634132195,0.03338533350841295
98.0,81.8754138566571,363.82320630875773,0.7431898793602132,6.979143234012983,0.03332811112672147
99.0,82.11917323765168,364.1520221947598,0.739722887543676,6.932062895391605,0.033270186891891235
100.0,82.55200553757295,364.2904468413322,0.7363007628738671,6.892684750365199,0.03321149924734768
101.0,83.08668763274434,364.3268044945743,0.7329277684249964,6.859801036136887,0.03315216850560309
102.0,83.65531703855225,364.32862891089155,0.7296084236695866,6.831783206939163,0.033092189576795814
103.0,84.22640878649946,364.3263567874627,0.7263479742108256,6.807495244623675,0.0330314787467462
104.0,84.7873800877947,364.33113433269733,0.7231515293819339,6.786161591130255,0.032969973709821326
105.0,85.3327051144606,364.3467661745436,0.7200250737714988,6.767238405174329,0.03290767668106799
106.0,85.85905191901071,364.37494727577825,0.7169747094238238,6.750316140214881,0.03284465005995801
107.0,86.36366195813262,364.4168250908843,0.7140064953709206,6.735077414652929,0.032780999009927085
108.0,86.84401187599057,364.47333413149494,0.7111262708960782,6.721271523121475,0.03271684876435781
109.0,87.29837581932411,364.54485236213634,0.7083402428940843,6.708699022066476,0.03265232893847937
110.0,87.72522722946243,364.63137276598127,0.7056536673664416,6.697200488981023,0.03258756291358319
111.0,88.12406242849798,364.73246670219874,0.7030704151319812,6.6866476257551195,0.032522662558552635
112.0,88.49413972195372,364.84752941879555,0.7005950621706263,6.67693680522871,0.03245772808049528
113.0,88.83537177336648,364.97565511156375,0.6982303865447471,6.667981170496913,0.03239284761912403
114.0,89.14831443825751,365.1156690613072,0.695978538889516,6.659708711476034,0.03232809848279448
115.0,89.43369210149245,365.266101891687,0.6938415007093689,6.652059921160162,0.032263547637791906
116.0,89.6930051231172,365.42523124347275,0.6918184109798534,6.644983734330844,0.03219925394163446
117.0,89.92766607575658,365.5912873938101,0.6899100076236976,6.638437552915253,0.032135269588376876
118.0,90.13924807038129,365.7623349713234,0.6881152922941697,6.632382150376785,0.0320716390432135
119.0,90.32964092877401,365.9365531091726,0.6864331614366147,6.626787616405692,0.03200840298876293
120.0,90.50068317301519,366.1121494883561,0.6848619779055211,6.621627194758276,0.03194559739237841
121.0,90.65407016761044,366.28754793035364,0.6834003869167967,6.616879414111982,0.03188325454570101
122.0,90.79139402741737,366.46119232781075,0.6820464358832313,6.612521546599095,0.03182140393553832
123.0,90.91429465772185,366.6317899966447,0.6807978644296859,6.608536825928885,0.03176007255783427
124.0,91.02407856352687,366.7982111308898,0.679652724726132,6.604908771292304,0.031699284585453597
125.0,91.12194223226264,366.9595066650061,0.6786090503871504,6.601624482880682,0.031639062758659485
126.0,91.20899679319301,367.1148717036256,0.6776647972697798,6.598671006322028,0.03157942787063426
127.0,91.28604894276312,367.2637339678773,0.6768182457870534,6.5960402385619,0.031520399644440235
128.0,91.35382575760372,367.4056123276728,0.6760682195040306,6.593722517470589,0.031461996229660893
129.0,91.41295152412283,367.54008480437795,0.675413137110768,6.591710938772081,0.03140423456177925
130.0,91.46389395585865,367.66693586357815,0.6748519836792719,6.589997884911826,0.031347131259784985
131.0,91.50707959424975,367.7859606413272,0.6743835793033655,6.588578046855053,0.03129070163810607
132.0,91.54277103068615,367.8970386347225,0.6740068351201505,6.587446960788934,0.03123496016867941
133.0,91.57135199167482,368.0000256292325,0.6737212765478667,6.586603784381484,0.031179920987413602
134.0,91.59300848295247,368.09489028228876,0.6735257802286083,6.586041633746303,0.031125596817075607
135.0,91.6078752241775,368.1816587634034,0.673420342125076,6.585761352566574,0.03107200034264392
136.0,91.61589762415298,368.26042423723976,0.6734049777996032,6.585759689456394,0.031019143622802683
137.0,91.61735977019839,368.3311250606258,0.673479044349076,6.586039038708732,0.030967037849635077
138.0,91.611972896015,368.3939790724359,0.6736432867629408,6.586597277672117,0.03091569387390633
139.0,91.59999665185937,368.448936292332,0.6738975977562135,6.587437918746246,0.030865121906021507
140.0,91.5812856255676,368.49623394046154,0.6742420704664903,6.588562604190692,0.030815332058956774
141.0,91.55570068305342,368.53608258712893,0.6746777897720947,6.58997307137886,0.030766333210776608
142.0,91.5231513053478,368.56864233157523,0.6752053219286607,6.591673994300856,0.03071813405033366
143.0,91.48356053708505,368.5941148808362,0.6758256159039038,6.593671070708831,0.03067074268503982
144.0,91.43652254941108,368.6128978703277,0.6765405304435725,6.595968688022278,0.030624166643043627
145.0,91.38193125508016,368.6252717827372,0.6773499286394323,6.598576060621169,0.030578412816860655
146.0,91.31922462391222,368.6317623330466,0.6782567429303556,6.6014987573264605,0.030533487316676714
147.0,91.24810287415282,368.63284558528875,0.6792612293190415,6.604748755014549,0.03048939586793502
148.0,91.16797883142172,368.62910042857186,0.6803658407428061,6.608335769311694,0.030446142847405308
149.0,91.07823120671773,368.6212486231392,0.6815728973701752,6.612273304988103,0.03040373227411323
150.0,90.97815675239549,368.610052378222,0.6828842856782079,6.616575879580666,0.030362166969112748
151.0,90.8669183342976,368.59637636654236,0.6843021633257184,6.621260086631369,0.030321448657043847
152.0,90.74371611892794,368.58112392048804,0.6858285996784778,6.626343705637912,0.030281577937227615
153.0,90.60760556332343,368.56521345189486,0.6874652225946214,6.631849023032575,0.030242553535270698
154.0,90.45784514068782,368.54958816332277,0.6892138888824909,6.637802712796693,0.03020437285271537
155.0,90.29370964282664,368.5351510906812,0.6910757458907809,6.644235864998242,0.030167031163333483
156.0,90.11442248473931,368.5226918409481,0.6930520900605716,6.651182153398687,0.030130520879986713
157.0,89.91943108964566,368.5126930982467,0.6951428821592669,6.6586810980910105,0.030094831075280694
158.0,89.70834010007042,368.50577409966957,0.6973488890890351,6.666780340307436,0.030059948345557287
159.0,89.48150803783466,368.5017576906088,0.69966766530748,6.675536320729566,0.03002585441139217
160.0,89.23934250921933,368.500382798546,0.7020984084984372,6.685017199575574,0.029992527007437614
161.0,88.98259486383449,368.5011713002733,0.7046383731158163,6.695302492208253,0.02995993710764544
162.0,88.71262685493986,368.5029226366984,0.7072839692222951,6.706492430334044,0.029928050656171625
163.0,88.43122328671332,368.5044143523905,0.7100306741252599,6.718703259403233,0.029896828784522628
164.0,88.14017847153195,368.5042696663789,0.7128731720212604,6.732083393317063,0.02986622517954335
165.0,87.84159034299991,368.50102545727646,0.7158065443929769,6.746809980459519,0.029836194403217213
166.0,87.53752068598767,368.49316553574687,0.7188244446540888,6.7631054140946905,0.0298066929440315
167.0,87.23089091040592,368.4786146638778,0.7219206564991252,6.781256164035801,0.029777686500651972
168.0,86.92493643246603,368.4552555036116,0.7250892079672866,6.8016218521479175,0.02974916258897005
169.0,86.6249907072421,368.41931633397587,0.7283243424936464,6.8246790130241495,0.02972114138995249
170.0,86.3407396952221,368.3626097144743,0.7316202455618971,6.851056305569278,0.029693682764261542
171.0,86.09312452916276,368.2663683413331,0.7349722716332985,6.881645082429146,0.029666869241144027
172.0,85.92802970161243,368.0873007553834,0.7383750145567918,6.917705362426105,0.029640756652697792
173.0,85.91783810950774,367.7554456451267,0.7418255257736731,6.960508972070004,0.02961533397269766
174.0,86.07621353073627,367.25996615817166,0.7453186681527019,7.009129937573945,0.02959060956813382
175.0,86.23203523594643,366.77114739065377,0.7488492387484981,7.058116958367555,0.029566719163536426
176.0,86.23754688726173,366.4403036698643,0.7524151627527865,7.102347064986517,0.02954377601242101
177.0,86.12530994608531,366.23539021558656,0.7560113638575545,7.141075829806673,0.029521772362440992
178.0,85.96175374897601,366.0897456513346,0.7596318769506286,7.175303713466171,0.02950077459575168
179.0,85.7803155136419,365.969338801387,0.763269848411938,7.20597550222135,0.02948095569506877
180.0,85.59391076010871,365.861198518473,0.7669147185248473,7.233784645590437,0.029462504306299944
181.0,85.40754307062578,365.76050151501306,0.7705522876538823,7.259256379084609,0.029445542779512612
182.0,85.22507403914106,365.66380793341796,0.7741631365927066,7.282816785598455,0.02943010384044813
183.0,85.05265564938216,365.56560973022994,0.7777222053465059,7.304816778914432,0.029416147481793747
184.0,84.9006979651784,365.4566917546803,0.7811981240955757,7.325543689826831,0.02940358859364694
185.0,84.78337171019605,365.32465526131494,0.7845560737012872,7.3452372789712115,0.029392321595347288
186.0,84.71601804079882,365.1562435282918,0.7877601357994977,7.364101536580196,0.029382236710990814
187.0,84.71310134216509,364.93960063570205,0.7907740478078746,7.382306446331268,0.029373229876344633
188.0,84.78513988518,364.6671833476422,0.7935693690767261,7.40000106000705,0.02936520577539659
189.0,84.93719956567458,364.33699941812296,0.7961282025499646,7.417316229260593,0.029358079528978155
190.0,85.1683885911919,363.9527761195891,0.7984485147721757,7.434373003103005,0.02935177579689538
191.0,85.47296704951735,363.5235171725013,0.8005472481557411,7.451285180127916,0.02934622710200541
192.0,85.84080274206333,363.0621534045446,0.8024614307555831,7.468161862356807,0.02934137388573206
193.0,86.25834976577886,362.58505790798165,0.8042479785993869,7.485107598614865,0.029337161439113427
194.0,86.7095102071647,362.110824903563,0.8059792810295907,7.502234508910099,0.02933353871552029
195.0,87.17618598926332,361.65957960142975,0.8077376959810979,7.5196587428142925,0.02933045506974397
196.0,87.63866929531451,361.2525648369032,0.8096056043245984,7.537511830266384,0.029327859615310963
197.0,88.07631458872751,360.91152587319215,0.81165658268608,7.555949399071781,0.029325695588887764
198.0,88.47301902547595,360.6529953047871,0.8139473974881989,7.575158684206016,0.029323893739741366
199.0,88.80981668555063,360.4954539738808,0.8165108818913804,7.595367486211958,0.029322367030112373
200.0,89.06608323842474,360.45800727951206,0.8193525457075486,7.6168618480956045,0.029320999552508067
