Time,J,A,S,tau
0.0,100.0,100.0,0.6207079958960203,14.537635159974942
1.0,98.88501091950634,89.42943370603396,0.6140236318726322,15.525797014641437
2.0,97.79020660909573,79.98159240625849,0.6074488529851372,16.51480774436422
3.0,96.71536716274265,71.53862984536626,0.60098158141177,17.50439698208122
4.0,95.65969021327942,63.99263487902442,0.5946184132053282,18.494510414867655
5.0,94.62240536332064,57.24744440022578,0.5883559815368916,19.4850986473396
6.0,93.60277262507282,51.21732447935883,0.5821909653715938,20.47611666919633
7.0,92.60008093339191,45.82582083031527,0.5761200965270028,21.467523375764284
8.0,91.61364675778836,41.00474590243577,0.5701401653802493,22.459281140170585
9.0,90.64281279234622,36.69327412600606,0.5642480254038821,23.451355429158923
10.0,89.68694672895903,32.8371436233164,0.5584405967403463,24.443714458327577
11.0,88.74544007686036,29.387922966777218,0.5527148688562614,25.436328879431127
12.0,87.81770704834005,26.30238106572221,0.5470679024822512,26.429171497949323
13.0,86.9031835131831,23.541923400741194,0.5414968309648154,27.422217018185666
14.0,86.00132601205732,21.07209095173446,0.5359988611210105,28.415441811657256
15.0,85.11161082986855,18.86211336571576,0.5305712737009893,29.408823706016893
16.0,84.23353309592193,16.88449853499833,0.5252114234071217,30.402341790080968
17.0,83.36660595227308,15.114689398607597,0.5199167387186445,31.395976235176967
18.0,82.5103597482349,13.530747386886478,0.5146847214048281,32.389708128697684
19.0,81.66434132763342,12.113069026454253,0.5095129460874092,33.38351932071234
20.0,80.82811327512609,10.844125483571608,0.5043990593089313,34.37739227598061
21.0,80.00125326058007,9.708253392060728,0.49934077877480576,35.371309936067625
22.0,79.18335343254819,8.691451955090715,0.49433589260809785,36.365255586664524
23.0,78.37401977992084,7.781196719219313,0.4893822582470362,37.3592127275754
24.0,77.5728715764071,6.966291430556875,0.48447780158223064,38.35316494672451
25.0,76.77954087207844,6.236725133881771,0.47962051620835683,39.34709579428817
26.0,75.99367195403605,5.583539114530934,0.47480846239270147,40.34098865670081
27.0,75.21492087725781,4.998721725650254,0.4700397663231756,41.33482662927105
28.0,74.44295504046325,4.47510753692885,0.46531261955038683,42.32859238366482
29.0,73.67745273274997,4.006282156408224,0.4606252782070177,43.32226803247569
30.0,72.9181027395759,3.5865073978414914,0.4559760625328195,44.31583498699362
31.0,72.16460399177969,3.2106499702999067,0.45136335666323374,45.30927380376967
32.0,71.41666518740486,2.8741133290868475,0.44678560824909014,46.30256402502003
33.0,70.6740044635673,2.5727843206710164,0.44224132840450375,47.29568400619289
34.0,69.93634910949845,2.302982671581682,0.43772909198788645,48.288610724702146
35.0,69.20343525458094,2.061412151997812,0.43324753776646197,49.281319578265894
36.0,68.47500759839856,1.8451224615496837,0.42879536893541326,50.273784163078304
37.0,67.75081918024485,1.6514733931524255,0.4243713540483681,51.265976023030746
38.0,67.03063112581023,1.4780998122861955,0.41997432788692,52.25786438267206
39.0,66.3142124288871,1.3228843826797567,0.4156031927206744,53.249415850613936
40.0,65.60133977097182,1.1839321042561761,0.41125692007388825,54.24059408019163
41.0,64.89179732011678,1.0595451861391236,0.4069345524935927,55.23135940555599
42.0,64.185376558615,0.948203498605761,0.40263520575752365,56.22166843589491
43.0,63.48187614716654,0.8485464582650352,0.39835807170861964,57.211473587948674
44.0,62.78110177017805,0.7593549927462718,0.39410242116304717,58.20072258223347
45.0,62.08286600431817,0.6795375108015208,0.38986760732200865,59.18935788125432
46.0,61.38698822226505,0.6081170000944272,0.3856530699606579,60.17731604014581
47.0,60.69329447924148,0.5442180792617641,0.38145833977189486,61.1645270048778
48.0,60.001617417662686,0.4870569166932992,0.37728304328859374,62.150913331843796
49.0,59.31179620579055,0.4359320327002544,0.37312690876459853,63.136389285427725
50.0,58.62367646060037,0.39021500374177626,0.3689897722937303,64.12085986198005
51.0,57.93711018392191,0.34934321196824186,0.3648715845774382,65.104219710427
52.0,57.25195573150707,0.3128132841824138,0.36077241885182054,66.08635188707069
53.0,56.568077767565995,0.28017441947479205,0.35669247911420016,67.06712651154965
54.0,55.88534722799704,0.2510231715157699,0.3526321090270577,68.04639929338956
55.0,55.20364131564202,0.2249987671434174,0.34859180216190727,69.02400984175809
56.0,54.52284348226247,0.20177831903367285,0.3445722125279736,69.99977985182015
57.0,53.84284341498367,0.18107306953345753,0.3405741656884846,70.97351114275412
58.0,53.16353705426082,0.16262505039176084,0.3365986712883033,71.94498342970091
59.0,52.48482660016041,0.1462036492495165,0.3326469356652491,72.91395196147948
60.0,51.80662051956062,0.13160290431546123,0.32872037469926535,73.88014501724584
61.0,51.12883358524087,0.11863912032088884,0.3248206278643275,74.84326111174231
62.0,50.4513869058331,0.10714840464637479,0.32094957178310957,75.8029660973103
63.0,49.774207954443504,0.09698471493122511,0.3171093331828011,76.75889019499056
64.0,49.09723063120641,0.08801815316889382,0.31330230228839345,77.7106247766373
65.0,48.42039532109716,0.08013319047806058,0.30953114447333063,78.65771916696421
66.0,47.74364895032751,0.07322724783601649,0.3057988096963202,79.59967756619335
67.0,47.06694508142766,0.06720946333797456,0.30210854070479065,80.5359559033069
68.0,46.390244010361755,0.06199938084132437,0.2984638772546,81.46595899880955
69.0,45.71351286315816,0.05752593384311576,0.29486865550787006,82.38903824286021
70.0,45.03672575602551,0.05372653212866852,0.2913270040136693,83.30448946471199
71.0,44.35986392161376,0.05054598642779918,0.2878433306260124,84.2115519841702
72.0,43.68291590775083,0.047935861421121065,0.2844223042196475,85.10940822808723
73.0,43.00587777980525,0.04585357540512218,0.2810688261819609,85.9971847244353
74.0,42.328753366179924,0.044261815221455156,0.2777879929916681,86.87395441135412
75.0,41.651554496394326,0.04312766278259149,0.2745850470656265,87.73874079581739
76.0,40.974301365834144,0.04242218336456512,0.2714653184244749,88.59052343466422
77.0,40.29702279794875,0.042119656583768636,0.26843415352618877,89.42824603327963
78.0,39.61975663470191,0.0421970473143324,0.2654968351406216,90.25082602154153
79.0,38.94286003279334,0.04333900509801546,0.262658491374705,91.05716633271466
80.0,38.26784659315422,0.04836036864573292,0.25992400204002575,91.84616886839983
81.0,37.59342137288614,0.05371327564955373,0.2572978944981513,92.61674957514349
82.0,36.91973369220585,0.05940794621088516,0.2547842431754386,93.36785456499094
83.0,36.24695477683266,0.06545251816555424,0.25238657157890665,94.09847667120425
84.0,35.57527902009973,0.07185279138259745,0.25010777334073336,94.80767049457278
85.0,34.904925514391735,0.07861198141669057,0.24795003666491283,95.4945670507203
86.0,34.236142750120315,0.08573020280665275,0.24591469483746178,96.15839910804176
87.0,33.56920272728475,0.09320510046514704,0.24400239623977904,96.79848493049934
88.0,32.90441187052395,0.10103084689154097,0.24221282394833085,97.41427091496442
89.0,32.24210345637759,0.10919903694622173,0.24054494206233065,98.00530390999971
90.0,31.58264590353794,0.11769811500777157,0.23899683750276282,98.57125732200547
91.0,30.926439451172698,0.1265139592765648,0.23756588349421154,99.1119137425151
92.0,30.273917873017638,0.13562999981858956,0.23624877533234362,99.62716260232231
93.0,29.625550397408777,0.1450274272294626,0.2350415935365749,100.1169947064342
94.0,28.98184193360224,0.15468555295232791,0.23393990812159013,100.58149016397714
95.0,28.343331672929132,0.16458220860149422,0.2329388932335167,101.02080260622604
96.0,27.710593851893616,0.17469402367389006,0.2320334099893142,101.43514818246007
97.0,27.08423919862367,0.18499674376460912,0.23121810125325495,101.82479308190413
98.0,26.464911818119248,0.19546561312030164,0.23048749738686095,102.1900371720345
99.0,25.853288183985455,0.2060756296027967,0.2298360900955789,102.53120232908763
100.0,25.250078170107724,0.2168017896104783,0.22925840681774798,102.84862135228346
101.0,24.656021711620568,0.22761935901944316,0.2287490811878169,103.1426265298035
102.0,24.071885412299583,0.23850403878268975,0.22830289682436147,103.41354132578556
103.0,23.498461567043293,0.24943210225741536,0.227914827697968,103.66167345115764
104.0,22.939242575787777,0.2576421030420579,0.2598969619333428,91.36591382355822
105.0,22.404635460015143,0.24959029611930425,0.4586887266839379,39.478361455476254
106.0,21.8762737336625,0.24162555008196696,0.5102321628419558,31.511670175033476
107.0,21.35366755598171,0.23437569676019201,0.5385155622876745,27.571994636739877
108.0,20.833840786649375,0.23221604825989234,0.5573471903829094,25.030306499563483
109.0,20.321159368796177,0.23255522884089755,0.5709795423040297,23.187831798686048
110.0,19.816881688989266,0.23568920221047343,0.5813147870720662,21.75975927394903
111.0,19.32255940000057,0.24196775982341082,0.5893791560155166,20.602912010711044
112.0,18.84011455119679,0.25178549087960117,0.5957936464393069,19.635548592837495
113.0,18.371914797408472,0.26557645140429514,0.6009644990718076,18.80681305785289
114.0,17.920848673709145,0.283809930392874,0.6051726464382473,18.083070174409055
115.0,17.490400400134586,0.3069859326877126,0.6086206968909723,17.441020169303545
116.0,17.084717825211847,0.335630459580009,0.6114594965028782,16.863944327450152
117.0,16.70867067339852,0.3702898624711043,0.6138042149488436,16.33950452859903
118.0,16.36789354691623,0.4115242136766338,0.6157445498874967,15.858388342119483
119.0,16.068805542485944,0.45989974993126276,0.6173514844148681,15.413436573815256
120.0,15.820624322119384,0.5133902988547012,0.618681905164201,14.999062576930582
121.0,15.632035950523226,0.5670011847853884,0.6197819215645689,14.610845678524209
122.0,15.504659448724167,0.6209016334425109,0.6206891713741692,14.245256115475836
123.0,15.438919010971247,0.6773300264559355,0.6214346606051524,13.899440003506689
124.0,15.437153008122989,0.7382052684737785,0.6220440427062004,13.571074734309397
125.0,15.502886978505131,0.8058787909580504,0.6225386587190089,13.258253553085929
126.0,15.641125489216343,0.8833551629193384,0.622936334897766,12.959399490022733
127.0,15.858784174766146,0.9743932345755814,0.6232520136777202,12.6731990042022
128.0,16.165039122759012,1.0835907686806865,0.6234982574488841,12.39855037860329
129.0,16.571458169383824,1.2164410275576358,0.623685655476897,12.134523106330107
130.0,17.091659180581633,1.3793517915641145,0.6238231529197135,11.880325948740111
131.0,17.740265491740164,1.5796055398001463,0.6239183221661322,11.635281271742771
132.0,18.532279291478282,1.8233766574126997,0.6239775847371972,11.39880461356302
133.0,19.480193233870896,2.112068619955653,0.6240063935798962,11.170388363329533
134.0,20.584272675139456,2.4467923074729225,0.6240093875517164,10.94958834161309
135.0,21.829110069848447,2.8306741513282883,0.6239905185152079,10.736012922115428
136.0,23.182857167142572,3.268975473531741,0.6239531570300427,10.529314354114945
137.0,24.596005667881133,3.7697341253896943,0.6239001814679739,10.329181591922046
138.0,26.0002679068903,4.344365003264306,0.6238340532791185,10.13533439611471
139.0,27.307817817135405,5.007906043221046,0.6237568796951903,9.947518558451204
140.0,28.411954920382016,5.778517019643957,0.6236704669168428,9.765501946129872
141.0,29.19120989395509,6.675741690181695,0.6235763651612863,9.589071224877145
142.0,29.521115996097517,7.715782956419481,0.6234759063383291,9.418029206296824
143.0,29.297022166665485,8.902987612711739,0.6233702363707943,9.2521926109364
144.0,28.457468700160874,10.226376385471953,0.6232603423877588,9.091390230769761
145.0,27.00109939648489,11.659622509917638,0.6231470756832911,8.935461427388706
146.0,24.991475103655382,13.16125293222916,0.6230311716072716,8.78425482135679
147.0,22.548590459608953,14.674872666734322,0.6229132660516017,8.6376272631346
148.0,19.831471792253286,16.12957919353462,0.6227939097203862,8.495442934919486
149.0,17.018619737487565,17.441692943681755,0.6226735802274719,8.35757261178481
150.0,14.289292801416671,18.520487698571095,0.6225526924045369,8.223893034019907
151.0,11.803915103185044,19.281345613238546,0.6224316070978269,8.094286379355596
152.0,9.68233517280386,19.66627555384992,0.6223106386898773,7.968639814110191
153.0,7.987647730700421,19.661759388369465,0.6221900615292878,7.8468451084574005
154.0,6.725265713013504,19.30229684321563,0.622070115393777,7.728798320558554
155.0,5.858144765589396,18.657775219698387,0.6219510102595616,7.614399499279031
156.0,5.329044496636754,17.8130432207701,0.6218329302789689,7.503552448982253
157.0,5.079790640343991,16.84966708482004,0.621716037266524,7.396164516035451
158.0,5.061898243508232,15.83553560359754,0.6216004736634562,7.29214640336928
159.0,5.238813364142652,14.822154618234686,0.6214863650919525,7.191412005483878
160.0,5.582867967213003,13.846703038520427,0.6213738225489747,7.093878264452525
161.0,6.07005434313136,12.935933991688819,0.6212629442986495,6.999465037740617
162.0,6.67490085029159,12.109918561000013,0.6211538175011178,6.9080949827487945
163.0,7.3667578131037414,11.384641670431618,0.6210465196178716,6.8196934481103
164.0,8.108207775079453,10.773246558986399,0.6209411196218233,6.7341883794784385
165.0,8.85572265566373,10.286146622899444,0.6208376790515829,6.651510227427177
166.0,9.562356399207063,9.93036166423695,0.6207362529114007,6.5715918677963545
167.0,10.181909254709208,9.708442226223877,0.6206368904623469,6.494368523469172
168.0,10.673738394787264,9.617271239747774,0.6205396358995865,6.419777693040577
169.0,11.007469441136585,9.647077757259657,0.6204445289437046,6.347759084436285
170.0,11.166774563679567,9.781032641909464,0.6203516053528452,6.278254552631294
171.0,11.151468388426592,9.995797718470946,0.6202608973709497,6.211208037929795
172.0,10.977466052957597,10.263158413471084,0.6201724341139842,6.146565509758706
173.0,10.674475696162213,10.552555132912463,0.6200862419073474,6.0842749146747135
174.0,10.28182585440897,10.834040305014451,0.6200023445816017,6.024286121030369
175.0,9.843313916704927,11.081161111970202,0.6199207637292473,5.966550873304846
176.0,9.401929737824329,11.273394455276403,0.6198415189297639,5.911022743700706
177.0,8.995285293753922,11.397861604885257,0.6197646279461032,5.85765708695032
178.0,8.652341432266569,11.450064059896608,0.6196901068967797,5.806410996783735
179.0,8.391762280185903,11.433475028518304,0.6196179704069588,5.757243263676299
180.0,8.221793823709085,11.358090536393844,0.6195482317380535,5.710114338793436
181.0,8.141432090858213,11.238306178152943,0.6194809029091706,5.6649862877814
182.0,8.142138396603686,11.090671090959717,0.6194159947922279,5.621822762617379
183.0,8.209883633187479,10.93185009822066,0.6193535172073235,5.580588957878451
184.0,8.327129981567596,10.777024865778378,0.6192934789987242,5.541251580506234
185.0,8.474769143363535,10.63875869392062,0.6192358881042277,5.503778816451453
186.0,8.633918803088308,10.526302990099133,0.6191807516166454,5.468140298268881
187.0,8.787517609577124,10.445284609727807,0.6191280758376139,5.434307074231308
188.0,8.921623259616043,10.397721754615478,0.6190778663250983,5.402251578774621
189.0,9.026316522980641,10.382333253783841,0.6190301279355579,5.37194760292319
190.0,9.096141304951898,10.395088091600833,0.6189848648582111,5.34337027208744
191.0,9.130021281859005,10.429973068251714,0.6189420806479375,5.316496014256092
192.0,9.130677323041953,10.479844769208833,0.6189017782561271,5.291302534426593
193.0,9.103757615972945,10.537300810155573,0.6188639600545813,5.267768793853712
194.0,9.05675546095927,10.595475427725502,0.6188286278550441,5.245874987385304
195.0,8.997874571062656,10.64865636161452,0.6187957829297474,5.225602518547586
196.0,8.935019767317618,10.692682446117718,0.6187654260282727,5.206933978038261
197.0,8.875005275591885,10.725107895651123,0.6187375573919228,5.18985312343416
198.0,8.823034560641647,10.745152419283407,0.6187121767666075,5.1743448613180165
199.0,8.78245109364559,10.753470480561875,0.6186892834125852,5.160395228816968
200.0,8.754743026337971,10.751801610094514,0.618668876110928,5.147991378182927
201.0,8.739755160655244,10.742563304745774,0.6186509531709584,5.137121548569889
202.0,8.736048963598654,10.728468462953098,0.6186355124403846,5.127775060393235
203.0,8.74130088783269,10.712172665258013,0.6186225513060436,5.11994229732878
204.0,8.75272065628753,10.696006292209338,0.6186120666993821,5.113614692120737
205.0,8.767428191524024,10.681794672437098,0.6186040550988553,5.108784711423861
206.0,8.782762403490713,10.670771598188749,0.6185985125308887,5.10544584230162
207.0,8.796505341539115,10.663572648378896,0.6185954345702536,5.103592579523277
208.0,8.807014106063395,10.66029187734414,0.6185948163415532,5.103220412128625
209.0,8.813271153786808,10.660580423762969,0.6185966525165308,5.104325821206544
210.0,8.814844296357824,10.663777904082052,0.6186009373380592,5.106906234242855
211.0,8.811890080445597,10.669042107575107,0.6186076644978666,5.110960094126358
212.0,8.804887128647424,10.675473189091955,0.6186168273330239,5.116486754767884
213.0,8.794629841056215,10.682213394817895,0.6186284186387697,5.123486496048074
214.0,8.782024431835382,10.688537201084063,0.6186424307579879,5.1319606147065
215.0,8.768031990389579,10.693875625294808,0.6186588555991092,5.141911227020003
216.0,8.753507846899367,10.697868288950529,0.6186776844917058,5.15334145440135
217.0,8.73922033307201,10.70034064664725,0.6186989083600871,5.166255302868838
218.0,8.72573849162167,10.701281181110062,0.6187225175751873,5.1806576357506815
219.0,8.71346283752919,10.70083135337677,0.6187485019852275,5.196554307420723
220.0,8.702655647217378,10.699223564175721,0.6187768510330983,5.213951944835533
221.0,8.693357499322154,10.696752602620561,0.6188075533568197,5.232858232236503
222.0,8.685560690878628,10.693738413419716,0.6188405973580798,5.253281477011871
223.0,8.679165111133349,10.690496543567706,0.6188759705759148,5.2752311607443785
224.0,8.674022885752205,10.6873219843937,0.6189136602489442,5.298717310772348
225.0,8.670009289417365,10.68445888453711,0.6189536527519744,5.323751147041927
226.0,8.666979829761932,10.6821173447055,0.6189959341188299,5.350344385430577
227.0,8.664870998521085,10.680443031200598,0.6190404894597009,5.3785099963155485
228.0,8.66367971995965,10.679558660481435,0.6190873033798742,5.408261405996602
229.0,8.663390787331606,10.679532028855201,0.619136359854398,5.439613122605212
230.0,8.664174237932894,10.68042303260238,0.6191876418626132,5.4725804840127195
231.0,8.666116659162602,10.682261076456236,0.6192411320995649,5.5071793974452845
232.0,8.66945716769777,10.68508173490655,0.6192968119406846,5.543427037034925
233.0,8.674461272011827,10.688923882676107,0.6193546623719057,5.5813409276866945
234.0,8.681358977037178,10.69382627170482,0.6194146633019207,5.6209397423860725
235.0,8.690464226005153,10.699851482281883,0.6194767938781602,5.6622427389705345
236.0,8.702060739221164,10.707076789141302,0.6195410321274891,5.705270163079554
237.0,8.716481889850263,10.715602807248434,0.619607355270067,5.750042855086002
238.0,8.734017782985363,10.725546984882424,0.6196757392288719,5.796582638006366
239.0,8.755000767270557,10.737047596172838,0.6197461590559495,5.844911910152005
240.0,8.779716225077902,10.750257135578627,0.6198185882963547,5.895054042349665
241.0,8.808487142206907,10.765345428691207,0.6198929995385573,5.947032960939909
242.0,8.841595263539373,10.782490401167214,0.6199693636107948,6.000873552444322
243.0,8.879357933971049,10.8018822686097,0.6200476502718427,6.056601238372866
244.0,8.922063725688583,10.823714270621608,0.6201278272120042,6.11424238614178
245.0,8.970033119590415,10.84818746185941,0.6202098609046748,6.173823876476087
246.0,9.023575622282731,10.875503153522947,0.6202937153767084,6.235373520264987
247.0,9.08302514457465,10.905866602180334,0.6203793532466771,6.29891961846803
248.0,9.148726640764796,10.939483244798142,0.6204667342197859,6.3644913857378365
249.0,9.22103666811636,10.976559222552064,0.6205558163456362,6.432118501621767
