Time,J,A,S,tau,r
0.0,1.0,1.0,0.6271231522214537,24.390243902439025,0.0
1.0,1.2837113190593672,1.404435438390855,0.6262026474736543,25.064893355463997,0.0041184896284052865
2.0,1.785959188132812,1.7966320846767434,0.6252584247810116,25.746542771865503,0.0040705762912078116
3.0,2.4886580322874017,2.176945707277431,0.6242906635266398,26.43501036664041,0.004023475885568841
4.0,3.3752029597853492,2.545726780543544,0.623299599787997,27.13011444744988,0.00397718825144597
5.0,4.430367295325011,2.903312952714267,0.6222854372392578,27.831679496105263,0.003931697576109542
6.0,5.640187877348967,3.250039463596623,0.6212484386961602,28.539528039280945,0.003887002724603582
7.0,6.981808031563233,3.542239254727699,0.6201888982819375,29.253483306519712,0.0038254571053259767
8.0,8.393348430671171,3.7497977842517276,0.6191071390904493,29.973368742206016,0.003744112582399393
9.0,9.843566884373576,3.8958873054946332,0.6180035421145397,30.69900602461092,0.0036583294366876024
10.0,11.307568504309833,3.9919546597837017,0.6168785559681087,31.430213539104045,0.0035727788845910137
11.0,12.765342016938593,4.045811624906034,0.6157325994440991,32.166814813103294,0.00348912201590839
12.0,14.20056715441284,4.0635350392419625,0.6145661471847426,32.90863158568254,0.003407909901219879
13.0,15.60058379152233,4.050812672681871,0.6133797082369585,33.65548379882573,0.0033293782400871147
14.0,16.95554834393242,4.012595507670996,0.6121738164701721,34.40719305262756,0.0032535375024101165
15.0,18.25813021425751,3.953368476127918,0.6109492002560848,35.163564654328184,0.003180334458206215
16.0,19.503230886032323,3.8775675180674503,0.6097063962441724,35.924424189238024,0.003109732032931645
17.0,20.687549421173593,3.7887835840292943,0.6084461959748562,36.68957545112736,0.0030416260448448036
18.0,21.808952443937198,3.6898876997731604,0.6071693198944176,37.45883108065571,0.002975854238904942
19.0,22.866946501587563,3.5840474188757936,0.6058765093100186,38.23200137508978,0.0029123751598711125
20.0,23.86180414687008,3.4735431278023823,0.6045686269876126,39.00888901763068,0.0028510757492438404
21.0,24.794704198074253,3.3607102095694303,0.6032466154764884,39.78929216560467,0.002791911513124544
22.0,25.66744622769559,3.2471274730390767,0.601911258613359,40.57302067946645,0.0027347790034759614
23.0,26.482444246008896,3.134799053733711,0.6005635344242976,41.359871278171106,0.0026796878664494496
24.0,27.24214257561107,3.024338999784113,0.5992043687645444,42.14964471258225,0.002626493293825594
25.0,27.94943481782763,2.916905862000922,0.5978348500172923,42.94212972753561,0.002575170284022166
26.0,28.60729572865604,2.813363554500376,0.5964559003374387,43.7371259000099,0.002525680087374101
27.0,29.21884352295066,2.71429989169062,0.5950685907554177,44.53442411796962,0.002477980438157172
28.0,29.78720576976374,2.6202198388543696,0.5936739669067078,45.33381669250346,0.0024320410347925822
29.0,30.315483677223202,2.5313682773933195,0.592273113377429,46.13509228056133,0.0023878189342357533
30.0,30.806720314362686,2.447967605925916,0.5908671576323452,46.93803699973966,0.002345285601201475
31.0,31.263841806019823,2.3701085002048234,0.5894571116708293,47.74244399578967,0.002304406675952066
32.0,31.68977561003479,2.2979854487319606,0.5880441146963694,48.54809676208197,0.0022651781417967806
33.0,32.087260476927156,2.2314705159313455,0.586629273795756,49.354781512118294,0.002227560811519065
34.0,32.45899621694809,2.1706217146614186,0.5852136642402684,50.162286573383724,0.0021915487529947657
35.0,32.80748280488429,2.1152220548752854,0.5837985153060928,50.970389789060434,0.0021571059925849898
36.0,33.13512126535144,2.065119249256277,0.5823847650673409,51.77888211953546,0.0021242070345303707
37.0,33.44427749423865,2.0204177701195527,0.5809735705672124,52.58754678308487,0.002092866267336479
38.0,33.73711139985969,1.9807707208631415,0.5795659771406312,53.39617162414155,0.002063038672987518
39.0,34.01574775030982,1.9460776263336634,0.5781631116876391,54.20453623473958,0.002034715805465838
40.0,34.28224109420814,1.9163487889413162,0.5767660211682339,55.01242650891519,0.0020079023070853894
41.0,34.538597530306255,1.8914208376267962,0.5753757529891969,55.81962804201426,0.0019825827402045596
42.0,34.7866763538045,1.8710893790295882,0.5739933612162513,56.62592214563128,0.0019587337861151715
43.0,35.02834517992117,1.8553018641820647,0.5726197860327233,57.43110011120465,0.0019363506214998508
44.0,35.26546568920074,1.8440533368704137,0.5712560416610405,58.23494698132603,0.0019154348079126935
45.0,35.49981317686873,1.8371393030452363,0.5699031046904846,59.03724856048106,0.0018959610198564052
46.0,35.7331642363888,1.8345465634035882,0.5685618992984358,59.8377938531553,0.0018779247649936533
47.0,35.96735429032727,1.836252770387093,0.5672333285158302,60.636372787968256,0.0018613208558373882
48.0,36.20417535890664,1.8423226225608667,0.5659182893898053,61.43277393646974,0.0018461487739766266
49.0,36.44555941705099,1.8527992314938126,0.5646176343118925,62.226789453055545,0.0018324070406585285
50.0,36.693418413586265,1.8675983939229193,0.563332137994386,63.01821273314544,0.0018200761015602438
51.0,36.949793331957046,1.8869958498678572,0.5620625927361431,63.80683851707715,0.0018091722351596194
52.0,37.21685353878457,1.9110408654191293,0.560809746757625,64.59246287658762,0.0017996868487165291
53.0,37.4968900132147,1.940009221186169,0.5595743008179856,65.37488453078446,0.0017916295451775672
54.0,37.7923066828552,1.9738595679267883,0.5583568778809332,66.15390422091824,0.0017849764949211643
55.0,38.10575571976031,2.0130299072854485,0.5571581265039326,66.92932463946214,0.0017797462175647787
56.0,38.44015803200091,2.05797928518671,0.5559785796211558,67.70094946754108,0.0017759540284027155
57.0,38.79873191169947,2.1090704831969282,0.5548187893974961,68.46858517074071,0.0017736024137748779
58.0,39.18502209704502,2.166722143316104,0.5536792434401848,69.2320396654056,0.0017726938120147745
59.0,39.60303737107161,2.2318774997655866,0.5525603716737679,69.99112547622188,0.0017732645029505216
60.0,40.05736399573015,2.305263976131337,0.5514625446574596,70.74565696602878,0.0017753274086336024
61.0,40.553242549658776,2.387969705311965,0.5503861522886353,71.49544558807798,0.0017789126040274785
62.0,41.09680245183664,2.481480854626132,0.549331515916252,72.24030637751625,0.0017840655375662247
63.0,41.695329049733196,2.5877458615903626,0.548298858785361,72.98006162127515,0.0017908453600758683
64.0,42.357680428930095,2.709551490573641,0.5472884167269546,73.71453034544064,0.001799341645470159
65.0,43.09495826417182,2.8509836081376445,0.546300395584642,74.44353225325297,0.0018096876035716034
66.0,43.921945826509486,3.0192508875670647,0.5453349647641744,75.16688732816357,0.0018221343478086872
67.0,44.86122670370647,3.232233090623134,0.5443922441289749,75.88441756122687,0.0018373564839982738
68.0,45.948141264857504,3.5022318253972196,0.5434722923064033,76.59594987811855,0.0018556066379195814
69.0,47.20909456175395,3.801098727693084,0.5425751983085693,77.3013048990448,0.001875359058081241
70.0,48.64562369933161,4.10419292194927,0.5417009669823409,78.00030747360218,0.0018954762349406224
71.0,50.26528834121271,4.411642004944957,0.5408495933732771,78.69278167318899,0.0019159689247486493
72.0,52.07603082375555,4.7235751490403235,0.5400210809337261,79.37854784391672,0.0019368478574921621
73.0,54.08617673000859,5.040117725006307,0.5392153882404882,80.05742747496974,0.0019581230002776316
74.0,56.304457443111055,5.361395892114548,0.538432473085223,80.7292390507973,0.0019798042371531846
75.0,58.74000053152035,5.687545234441496,0.5376723743917204,81.39379008459382,0.002001902559697568
76.0,61.40230679234356,6.0186868910234335,0.5369349823490914,82.05089887196011,0.002024426817287257
77.0,64.30122734646127,6.354957431607391,0.5362203423503135,82.70036716169356,0.0020473877957951797
78.0,67.44703090028855,6.696473388317843,0.5355282758172669,83.34201264324804,0.0020707934923148005
79.0,70.85031594300067,7.043371957466008,0.5348588072415881,83.97563152573079,0.0020946545180697317
80.0,74.52208852122898,7.395790735544453,0.5342119321575436,84.6010171031445,0.0021189813901936042
81.0,78.47357690343931,7.753875890560852,0.5335877625165804,85.21795221311841,0.0021437855661064066
82.0,82.71648376535312,8.117760321277245,0.5329862158039336,85.82622919122963,0.0021690767169890122
83.0,87.26272286731785,8.487596084882693,0.5324074068259776,86.42562006760107,0.002194866769069062
84.0,92.12452353147374,8.863531491211848,0.531851397358501,87.01589758381341,0.0022211670558702273
85.0,97.314387401562,9.245712601725623,0.5313182039728885,87.5968337888282,0.002247988523292098
86.0,102.84496082739837,9.634317978632371,0.530808163493448,88.16816780515299,0.0022753458633150026
87.0,108.72910232250179,10.029541217397316,0.5303217373885601,88.72962194027657,0.0023032552976249634
88.0,114.97995362678292,10.431529317222797,0.5298588959937902,89.28095878856166,0.0023317274198520407
89.0,121.61065849351147,10.840485276852148,0.5294201562588152,89.82188603466011,0.002360779168617269
90.0,128.6344896647755,11.25662288474883,0.5290061054309801,90.35209836104141,0.002390428447990286
91.0,136.0689512536253,11.677827963161713,0.5290699053629229,90.54371194792937,0.0024194400726976952
92.0,143.84237827839334,12.219029917229873,0.5291614085506278,90.30693125283105,0.0024403177226116836
93.0,151.90018235292467,13.151406025798044,0.5307000292382074,89.4787104341178,0.0024680102768654837
94.0,160.54317338103482,14.40890524825487,0.5322888851705414,88.58608153293503,0.0024956426012553937
95.0,170.0173644691247,15.996082852140919,0.5339168307636925,87.65610726281156,0.0025239550598179037
96.0,180.65799879651962,17.79213753871731,0.535567480369043,86.67792031530936,0.0025523920661350316
97.0,192.6836614111453,19.708075816999763,0.5373045433435628,85.62894492171048,0.002581253309501742
98.0,206.22676891659617,21.664860876878823,0.5390605731282726,84.53825730699857,0.0026104721624410467
99.0,221.33775656941498,23.60322599804302,0.5408556176765799,83.40201954366256,0.0026402693176437505
100.0,237.83345174497055,25.668977994208266,0.5443544077989609,81.55097761158845,0.0026772530457848977
101.0,255.888104001555,27.593954502115714,0.5479153340500502,79.64540643735428,0.002714906873120512
102.0,275.42892609771627,29.338888697156335,0.5515288482743933,77.68263740912352,0.0027530073671415455
103.0,296.3103186129989,30.923711684209874,0.5553982989680574,75.60684998899595,0.0027927664091089103
104.0,318.412493317979,32.330857390621574,0.5592655486487181,73.50219313100108,0.002833024707776149
105.0,341.55058479050945,33.62002843459753,0.5633472516219471,71.30753461593626,0.0028749696054128316
106.0,365.55208993293206,34.87312478878266,0.5689650534103775,68.47300376632094,0.0029233229264752987
107.0,390.34267222027825,36.06664811373272,0.5747967338783787,65.56726616032681,0.0029734145810565147
108.0,415.9265519752237,37.13159342892454,0.5790464736017568,63.28466886566357,0.00301869377603956
109.0,442.0607333306753,38.27071565818381,0.5846587668046609,60.448577808780385,0.0030697519162571846
110.0,468.69508393937053,39.49661078954297,0.5904479332198073,57.57721249718636,0.0031227673255600046
111.0,495.91920514051424,40.71292006716913,0.5943465036261986,55.414657373002186,0.00317014587923387
112.0,523.4287488451696,42.226115020618906,0.5999547402739285,52.64365423654123,0.0032251701723006636
113.0,551.4456148166305,43.84065733621805,0.6036912617945782,50.557344369010586,0.003274726112860674
114.0,579.7590980034553,45.797338116671554,0.6073153592886384,48.52626382489893,0.0033256134328448175
115.0,608.2201452156273,48.31103204722043,0.6108331560702127,46.54427350164291,0.003377719734788755
116.0,636.6547572539008,51.65793973511901,0.614237792226722,44.61798785184373,0.0034311454401584353
117.0,665.4271547744635,55.52188834740874,0.6158600933742442,43.30416784506836,0.0034800614659554847
118.0,693.7696308672101,60.61339822803424,0.619028273485198,41.49018123978214,0.00353638162885088
119.0,721.7608614557278,66.61231197019079,0.6219447338359866,39.773583917842856,0.0035935518003577713
120.0,749.5821515981398,73.04731628904703,0.6233421855121082,38.540776169805234,0.0036465623929368847
121.0,776.2393961393065,80.41244746943345,0.6245914829936275,37.394184351331845,0.0037017931102297087
122.0,801.3691001463743,88.53493633110637,0.6256659955560298,36.25765694035697,0.0037568717980808997
123.0,823.5665034087012,98.24329714957977,0.6280359033750749,34.743701599469965,0.0038187008714265836
124.0,843.601758040283,108.14877656229405,0.6287996487820686,33.70576823570458,0.003875885022635551
125.0,860.1517635713824,118.98521314906645,0.6294210512290815,32.718375116148664,0.003934343486466449
126.0,872.0410811748959,131.36710857895417,0.6298819822220396,31.789770736639717,0.00399404323479426
127.0,878.7678783479951,145.15245314111633,0.6290262255511436,31.23336196208467,0.004050099842011261
128.0,877.3463202138432,162.6560065482948,0.6292148014060781,30.369725998324878,0.004111314217031662
129.0,868.6176440927759,182.55437879667102,0.6289602051163782,29.525244110711704,0.004170058221120602
130.0,852.4279121383364,204.84800601115668,0.6285038615267226,28.74020511322087,0.004229334943030461
131.0,830.3603680412607,228.1320267461119,0.6272655483754238,28.30647722977414,0.004289769825028633
132.0,802.0991453439357,253.21334223259507,0.6261414035568214,27.5816020799677,0.004346785111074807
133.0,769.9442644369449,278.446980422937,0.624519995624936,27.169245297580638,0.00440625943725499
134.0,733.3778840902444,305.0237455976865,0.6229764375611936,26.549728323839748,0.00446381509153826
135.0,694.7450481382327,331.2876547116997,0.6210333168055278,26.182494565619077,0.004523337323929362
136.0,653.5308900265225,358.34050360909004,0.6187893301812502,25.624883568261836,0.004578168909490121
137.0,611.2421926743814,385.2000133891403,0.616782467274657,25.323060074557556,0.004639516435326941
138.0,567.4598357672774,412.71560825752414,0.613966052277287,24.8319943441825,0.004692596606715408
139.0,523.0634161298617,440.3598263433783,0.611313604052343,24.525346477336214,0.004750918320230388
140.0,478.1618599979708,468.31967356975537,0.6088081313183341,24.25278806540327,0.004811021947869415
141.0,431.89508335384215,497.6780687783003,0.6054050633320686,23.833765481597858,0.004863120954159188
142.0,385.746841048407,527.1338932313345,0.6024161526519932,23.55810964333072,0.004921520132379044
143.0,340.92623346826633,555.63137835112,0.5997951304032393,23.326667520817104,0.004982048508251155
144.0,294.64175600061884,586.0640585397127,0.5962656182470848,23.004902263017925,0.0050371472680918895
145.0,249.22562221600026,616.1662576318064,0.5926351560917577,22.68924583256493,0.005092306178825176
146.0,209.2351275733359,641.4304488661362,0.5898167136458273,22.475810019805223,0.005152686918382045
147.0,171.96650420767628,664.5788413667412,0.5868323664558667,22.25740088971362,0.0052127432630447975
148.0,133.59277572602636,689.4262683481362,0.5829686494084955,21.952157001229708,0.0052675619415905985
149.0,100.51685860953444,709.5419246155152,0.579259542520425,21.6831130769704,0.005324539560413114
150.0,75.91072651654859,721.7126174596506,0.57633594390875,21.49009109583348,0.005384490812027823
151.0,55.91694739973719,729.7382332359796,0.5733541334679455,21.29831978367366,0.00544415047129335
152.0,37.39860204407481,736.6818714607025,0.5695665023084295,21.044056882180705,0.005501083414578189
153.0,22.22232668097102,740.6063236756441,0.5655695770908181,20.77288231435945,0.005556608631936143
154.0,14.018895213230909,737.8191786683152,0.5623085176370414,20.57968203100669,0.005615611688580835
155.0,8.312135898279509,732.74882109494,0.5594421243327385,20.414564987286287,0.0056734913072544685
156.0,4.152546587125545,726.3040742825224,0.556169936292727,20.230189930604112,0.005731538292540076
157.0,0.3617864679070668,719.6301704940662,0.5521830548554781,19.988789740679856,0.005786846531812641
158.0,-1.8891212851694754,711.5335547386106,0.5482252303328551,19.758057951126737,0.005842274715205067
159.0,-2.8417554415276403,702.2396796521148,0.5449375751500736,19.589049784158796,0.0058988691065469685
160.0,-3.4077429305669478,692.650455422237,0.5420289459524338,19.444098403785443,0.005953547867283095
161.0,-3.716976347361396,682.8889502674555,0.5388830131504958,19.29221184590498,0.0060081986350482815
162.0,-3.8762059274635816,673.0573696849636,0.5351254837156099,19.104403208829755,0.0060624207375421756
163.0,-3.978628794359879,663.2465784566255,0.5310196302980871,18.889012834060605,0.006114506617347691
164.0,-3.8971906912547887,653.3286726077491,0.5272483532568161,18.713133161203523,0.006167481189395778
165.0,-3.777297946549559,643.4499770559389,0.5240122028215856,18.5773397005911,0.006218928702355592
166.0,-3.6407438004966552,633.6333067736816,0.5210453932217721,18.4567643564023,0.00626823320987493
167.0,-3.493515880239088,623.8861468400187,0.5179250371228367,18.3350161295969,0.00631705653651063
168.0,-3.3402871361529636,614.2146133264008,0.5143710985771756,18.196843328795563,0.006366164880981051
169.0,-3.185725847869731,604.6251975951651,0.5103985559517069,18.032719251062282,0.006414073486135311
170.0,-3.028829434681752,595.1186992020209,0.5063404065944431,17.86712740629194,0.006460774557438912
171.0,-2.8655151351331507,585.6934251459156,0.502555528421705,17.73226607735157,0.006507050425264941
172.0,-2.698999154434086,576.3549906777781,0.4991299864970568,17.624553471896526,0.0065513151473529495
173.0,-2.5284004855549864,567.1050578890678,0.49597092960386674,17.530846783503574,0.0065933030938699205
174.0,-2.352299126211248,557.9449204564717,0.4928860155779846,17.442843782050925,0.006633808879142728
175.0,-2.168868660961817,548.8757167011917,0.489656219769802,17.355981671807548,0.006673573386556805
176.0,-1.9760431494780735,539.8986228775277,0.486171105934916,17.2656258314695,0.0067130248105684775
177.0,-1.7715195959594103,531.0148730075816,0.48242887995311423,17.16744102217006,0.006752012144568044
178.0,-1.552967718630217,522.2259657668286,0.4784981920103069,17.061330671702862,0.00678991065107026
179.0,-1.3175107858161728,513.5331721030916,0.47450000355370076,16.955190512433123,0.006826502015669498
180.0,-1.0602086081080209,504.93609332098816,0.47055546117159913,16.85994228618104,0.006861982153646341
181.0,-0.77719477948532,496.43577644537095,0.46673245429346094,16.779936237372212,0.006896177468219022
182.0,-0.4645237519207387,488.03357982650624,0.46304450967497074,16.71329068319941,0.006928734991196991
183.0,-0.11754670835083016,479.73056123758124,0.45947977757422886,16.656466018855404,0.006959575742443779
184.0,0.26879254638289507,471.5277854161251,0.4560209664746281,16.60640675920495,0.006988851192234629
185.0,0.699870061779963,463.4263899131867,0.45264706467834814,16.561041664219562,0.0070167595535039155
186.0,1.1814707374322098,455.42749445801644,0.4493278767491572,16.519282952834004,0.007043457246064564
187.0,1.7199306547724456,447.532037222204,0.4460260878101268,16.4807727923408,0.0070690468421190636
188.0,2.322095176316531,439.7407878614589,0.44270900798619417,16.44548955384914,0.007093591705704599
189.0,2.995096276831101,432.054532432843,0.4393589318847604,16.41343079933059,0.007117131781762048
190.0,3.7461706515343667,424.4742047239477,0.435973778172365,16.384513436515864,0.007139692843765757
191.0,4.582587654410505,417.0009044820528,0.4325617663703073,16.358599516182203,0.007161291530429195
192.0,5.511615128304537,409.63585031726933,0.4291356479118634,16.335555033813428,0.007181938552929742
193.0,6.540496558294745,402.38037584027285,0.4257088031406453,16.315278901426723,0.007201641381084591
194.0,7.676366578263669,395.23590180084085,0.42229388773531806,16.297698743728848,0.007220407768151511
195.0,8.92615192908224,388.20396188694923,0.41890234161871837,16.282755920434933,0.00723824773912633
196.0,10.296464364331156,381.28620617514105,0.4155440563601954,16.270390685072265,0.007255174634206343
197.0,11.793491859895164,374.4844148606223,0.4122277729408472,16.26052501709611,0.007271206176475118
