Time,J,A,S,tau,r
0.0,1.0,1.0,0.9685055773488649,8.547008547008547,0.0
1.0,1.819758808449352,1.516196483083129,0.9686141237279248,8.470039130360162,0.005247836073467977
2.0,3.2002375710188176,2.026695869754304,0.9687542641607504,8.378629875224807,0.005283732115446517
3.0,5.138836657312802,2.5314089588907134,0.9689260710174874,8.272748358960184,0.005319744280163439
4.0,7.631810221994088,3.030246115460634,0.9691295918514768,8.1523722761503,0.005355861811132069
5.0,10.674321738247693,3.5231181696342526,0.9693648516309301,8.017488150027416,0.005392075173689002
6.0,14.260606122456624,4.009936896556288,0.969631853906529,7.868091033911568,0.005428375317915984
7.0,18.38386579065199,4.490614861622541,0.9699305788669854,7.704185304706547,0.005464752698072233
8.0,22.767698657137256,5.233334038612778,0.9702685129176427,7.534308785689196,0.005763561844839395
9.0,27.533125487629505,6.892749392885749,0.9704046439513995,7.474942654721212,0.006466750938186157
10.0,33.51845646559309,9.204399924298022,0.9705416074353996,7.415056568654425,0.00704703442799527
11.0,41.152902886207286,12.158871725122912,0.970688068315591,7.350429506174787,0.007541948860315072
12.0,50.812671494298,15.660144501211766,0.9708567820132836,7.274647917287878,0.007950233932641724
13.0,62.87188612206941,19.478799929502735,0.9710789131523906,7.172878941496451,0.008254453252547242
14.0,77.38590585679181,23.563618423897672,0.9714853949330396,6.990672595164682,0.008489460022861354
15.0,94.05153744818136,28.078326013284297,0.9718545735733725,6.824138450584084,0.008703557965450446
16.0,111.65806069150092,34.15376920915663,0.9720515787264041,6.7327675579202975,0.008932143772160683
17.0,129.25487212628715,42.70453975022279,0.9721974597789187,6.665840023098643,0.009178628718806767
18.0,146.3606301623697,53.881018274436194,0.9723184560220726,6.610695932989161,0.00941143053664388
19.0,162.20360263349755,67.6695667334657,0.9724249267318068,6.562086561751969,0.009616244468709954
20.0,175.5584896449988,84.12194808920106,0.9725231776406231,6.517047415474707,0.009796527272914286
21.0,185.27370903216587,103.12886015886029,0.9726170462194593,6.473718679578519,0.009959567212754799
22.0,190.51380447207765,124.51231869057095,0.9727087131579738,6.430803748810717,0.010111598128482406
23.0,190.69162263520658,148.23414668645052,0.97280043434559,6.387060644692843,0.010257169126899722
24.0,185.92238699055073,173.9112278651538,0.9728953555631062,6.340987608569707,0.010398320522898161
25.0,177.03646142838912,200.75658979746018,0.972997234819137,6.290696928694144,0.010532409604045098
26.0,165.32278677811965,227.76529329822546,0.9731109981703515,6.23356008851371,0.010651515636306088
27.0,152.4527366958577,253.6788984911555,0.9732453490344481,6.16529449728607,0.010749594062600343
28.0,140.51720232800778,276.8195651429828,0.9734176736021031,6.078603109433764,0.010831011234044995
29.0,130.2549388036095,296.79087955232706,0.973628375419032,5.974356512490653,0.010904555185955568
30.0,120.79967350504366,314.7468329701369,0.9738026811706049,5.884808724703286,0.010976071264291572
31.0,111.77189299558795,331.3201185359575,0.9739190846943475,5.819763676437943,0.011050161615010563
32.0,105.29978039243625,344.5556498386027,0.9739995027967373,5.77021034771013,0.011129288523746134
33.0,101.49703600478153,354.4374646948075,0.9740562943485231,5.730475781039342,0.011210955221806275
34.0,99.0343252338699,362.37148725118635,0.9740952256287404,5.697577163906212,0.011290279221103126
35.0,97.24712771890496,369.0890761461352,0.9741194293648001,5.6697790614724095,0.011363906921190946
36.0,95.83516700829625,374.9361432283538,0.9741309197694024,5.645975713539796,0.011430829759582997
37.0,94.62296385686945,380.11578512517565,0.9741311571254824,5.625417470194966,0.011491438886209357
38.0,93.52125873087962,384.73624484352695,0.9741212996155854,5.607570108746013,0.011546608348101561
39.0,92.48999012054546,388.8528396816258,0.974102272468511,5.5920472626881725,0.011597218818328333
40.0,91.49858881796644,392.51237921960774,0.974074740977027,5.578578859629232,0.011643999209903394
41.0,90.52063957610075,395.7576061908837,0.9740390637714572,5.566994804250099,0.011687508104209186
42.0,89.54704880080236,398.61536145785516,0.9739953341881082,5.55720211160774,0.011728173376456106
43.0,88.58304410579626,401.10007103872647,0.9739434219128452,5.549167189565351,0.011766320638158528
44.0,87.64137451358998,403.2202844664313,0.9738830333568129,5.542898639064824,0.011802201151105212
45.0,86.73887982117917,404.9840172141272,0.9738138037323452,5.538426477739917,0.011836014839461242
46.0,85.89302382518768,406.400194019531,0.9737353521407826,5.535791120301382,0.01186793148744295
47.0,85.12161875573582,407.4789845857698,0.9736473347408146,5.535030991646659,0.011898090647425136
48.0,84.44191489639816,408.2326778205417,0.9735494877632326,5.536175775006873,0.011926614242711844
49.0,83.86879773641678,408.67669229477724,0.973441737044491,5.539228443158216,0.011953620927940691
50.0,83.41340630215599,408.8296268294606,0.9733242103352984,5.544162540829269,0.011979209052358952
51.0,83.08238612854167,408.71442941143374,0.9731974487309479,5.550889867272114,0.012003473089521348
52.0,82.87543214825585,408.3599676179171,0.9730624346516811,5.5592588275737995,0.012026503303155642
53.0,82.78654457603157,407.79853692862264,0.9729206238844733,5.569046896215093,0.012048377211423536
54.0,82.80492374202936,407.06551055132564,0.9727737876775432,5.579987272246525,0.012069162570634626
55.0,82.91646874513431,406.1965610931873,0.9726237521759177,5.591808925841696,0.012088915004482451
56.0,83.10627033028017,405.22538668248666,0.9724721106239937,5.604281128918999,0.012107674896239293
57.0,83.36083713986937,404.1812894979652,0.972320042659587,5.6172432841072055,0.012125461319817427
58.0,83.66861924357492,403.08894867557797,0.9721683015679967,5.630605260968632,0.012142281225794976
59.0,84.01954980936422,401.968473434123,0.9720173147773545,5.644333108496552,0.012158125816218729
60.0,84.40553274551,400.8363343569386,0.9718672507748854,5.658437929938787,0.012172978506041817
61.0,84.8191267985565,399.7058719040273,0.9717182241456954,5.672941451107006,0.012186828862232362
62.0,85.25350235286237,398.5884364786335,0.9715703689938587,5.687864532353412,0.012199679226800585
63.0,85.70294474451629,397.49289013852353,0.9714238447291323,5.703223934952721,0.012211556627313264
64.0,86.16228660696322,396.42660365053564,0.9712788999629237,5.719018691974085,0.012222529236664715
65.0,86.62710940632931,395.3957285166405,0.9711357872205054,5.735242438147094,0.012232710756408688
66.0,87.09439035875127,394.4041329129286,0.9709947991837499,5.751876616213255,0.012242259870207661
67.0,87.56211811010836,393.45543862429133,0.9708562001244281,5.7689007385931115,0.01225136541686767
68.0,88.02994993784223,392.5507520855106,0.970720327662881,5.786270369754771,0.012260232989199711
69.0,88.49910759599497,391.6894958538621,0.9705875186357712,5.803929150755985,0.012269053045126542
70.0,88.97401747380708,390.86784998508483,0.9704581211239549,5.821803481675318,0.012277972413771382
71.0,89.46349852111206,390.07752091485037,0.9703324778776589,5.839804795492609,0.012287082689677526
72.0,89.98198221320303,389.30444878867456,0.9702109349778407,5.857827141439881,0.012296411243799606
73.0,90.54644146638152,388.5314656191401,0.9700938927723928,5.875735998693134,0.012305939365866094
74.0,91.17002299349708,387.7448930121644,0.9699817400663686,5.893384193015586,0.012315612957939889
75.0,91.85451700598489,386.9418545989416,0.9698748981708766,5.9106055746125925,0.01232536600110362
76.0,92.58769931511797,386.1329657277378,0.969773792021126,5.927226595548279,0.012335129576199476
77.0,93.34620095401263,385.3394329423344,0.9696788480002134,5.943072247134439,0.012344845876244901
78.0,94.10289311248948,384.58598037165615,0.9695904224628867,5.957991562139774,0.012354474253847095
79.0,94.83243781809308,383.89434980890724,0.9695088315660269,5.971851154334091,0.0123639739133133
80.0,95.51399221179447,383.2816573691469,0.9694343659296571,5.984539550073063,0.012373329278257872
81.0,96.13302015597895,382.7590229307343,0.9693672277190056,5.995979991404081,0.012382537229556002
82.0,96.68051234512576,382.33007672736454,0.9693075512801527,6.00612797931288,0.012391596153157696
83.0,97.1522540367382,381.99486789103395,0.9692554401394892,6.014954304316819,0.01240051082790729
84.0,97.5484788806203,381.7487095640286,0.9692108618605002,6.022468947100005,0.012409293617753574
85.0,97.87124546961567,381.5848941129624,0.9691738007569883,6.028683517857407,0.012417952194861975
86.0,98.1240702033998,381.49634668778504,0.969144229056692,6.033616233115689,0.012426500623792644
87.0,98.3111089006458,381.47561059571564,0.9691221193119488,6.037285243143464,0.012434946565860553
88.0,98.43697997839749,381.5150772046453,0.969107422402451,6.03971109708693,0.012443305273661304
89.0,98.5046083793273,381.60888426983587,0.9691001433714926,6.0408999852042635,0.012451581637456263
90.0,98.51686344360006,381.75190705294756,0.9691002763072679,6.040857198277399,0.012459785893251548
91.0,98.47543185873164,381.94077245337394,0.9691078108277935,6.039586985303564,0.012467921934364372
92.0,98.38125339248552,382.1732431499706,0.9691227305759873,6.037091674089283,0.012475992933700103
93.0,98.23362963792121,382.4483250343418,0.969145070265118,6.033357346027033,0.012484001228819007
94.0,98.031408871701,382.76607210172057,0.969174831393476,6.02837623206972,0.012491949164578194
95.0,97.7726017006266,383.1271768892952,0.9692120494818561,6.022131534546428,0.012499832851846778
96.0,97.45605165428485,383.5323588052432,0.9692567061984326,6.0146192400746425,0.012507654980417287
97.0,97.08076335300656,383.9812313113256,0.9693088115023611,6.005831054646027,0.0125154100267528
98.0,96.64852510167506,384.47127559743933,0.9693682941297234,5.99578087607534,0.012523113475443505
99.0,96.1636700404898,384.99901958214184,0.9694350396985288,5.984501640093833,0.012530772462026973
100.0,95.63372469310366,385.556951866655,0.9695089746953433,5.972028241042733,0.012538390069695536
101.0,95.07112431714512,386.1338533397383,0.9695899398790995,5.958428183398186,0.012545986182173074
102.0,94.49324507992674,386.71409653323406,0.9696777014287297,5.94379797802447,0.012553587063561262
103.0,93.92220152579971,387.2776340945543,0.9697719821879776,5.928257642154964,0.012561220955963138
104.0,93.38184665954434,387.8037657151525,0.9698723503243326,5.911974455425238,0.012568921286116011
105.0,92.89073822645686,388.2774138652153,0.9699784415258755,5.8951034377647495,0.012576730009299545
106.0,92.4589992549369,388.6929410307099,0.9700898273482925,5.877814785229764,0.01258468992551887
107.0,92.08464948101941,389.05674908716145,0.9702061296085441,5.860260499767548,0.012592838923843545
108.0,91.75799230286795,389.38378119814337,0.9703269287124137,5.8425916237591045,0.012601199260704441
109.0,91.46630373213667,389.6916697675869,0.9704518734083939,5.82492982268604,0.012609771332365129
110.0,91.19958973466096,389.99580914516145,0.9705805908490144,5.807386327628486,0.01261852155925066
111.0,90.95146922910864,390.30726653079887,0.970712729754793,5.790050870920417,0.012627384240828514
112.0,90.7186760554187,390.6340359616612,0.9708479534833151,5.772994991824754,0.012636265882516548
113.0,90.49913886518367,390.98209176210065,0.9709859483547107,5.756271884452167,0.012645059712411836
114.0,90.29137864158943,391.3569768088021,0.9711263371734311,5.739934501601196,0.012653657466774115
115.0,90.09278508220238,391.7634089361961,0.9712688321914463,5.7240091898754795,0.012661972364315422
116.0,89.90093021417783,392.2063523791479,0.9714131321894351,5.708516660885419,0.012669944748345765
117.0,89.71197547051258,392.69106068261044,0.9715589834196569,5.69346324031877,0.012677545934385664
118.0,89.52187413743492,393.2228127377666,0.9717062063852521,5.678838318913443,0.012684775095553054
119.0,89.32537167468135,393.8072949395872,0.9718546937476912,5.664617835215649,0.012691651804086585
120.0,89.11586676386523,394.45118740813183,0.9720044375663677,5.6507625086841085,0.012698207903229092
121.0,88.88726568776138,395.16066413513494,0.9721554235954429,5.637235896138677,0.012704479272915159
122.0,88.63441293939414,395.94096854165764,0.9723076190860027,5.62400517049527,0.01271050338223649
123.0,88.355582978655,396.7944749973024,0.972460810744079,5.611071367045708,0.012716311433844722
124.0,88.05381163719848,397.7198913893468,0.9726143947954855,5.59850167667382,0.012721927383967145
125.0,87.73762695041083,398.71136158119566,0.9727672721600942,5.586444257533328,0.012727367029933847
126.0,87.42167015020893,399.7577850724836,0.9729176753779596,5.575155757593598,0.012732637278970763
127.0,87.12517467061376,400.8444553223866,0.9730633326399686,5.5649756756640345,0.012737736796658345
128.0,86.86806624932916,401.9562289041009,0.9732018369574246,5.5562673556281865,0.012742659234512609
129.0,86.66622318050638,403.08192397503245,0.9733311049357075,5.54934859576123,0.01274739818865843
130.0,86.5297921628009,404.2163185704179,0.9734496902569589,5.544440704552958,0.012751943842879542
131.0,86.46029878891004,405.3612985665624,0.9735568767198153,5.541656280762301,0.01275628769878217
132.0,86.45299353234532,406.5247075810797,0.9736526216510958,5.54100697516136,0.0127604245820154
133.0,86.49791039890256,407.71844359977405,0.9737372897525938,5.542442358403738,0.012764344825278384
134.0,86.58252984290338,408.9561758483639,0.973811554488796,5.545867871528239,0.012768040464956262
135.0,86.69156530783245,410.2521922020379,0.9738762143690257,5.551171335933017,0.01277149802153831
136.0,86.81012640134512,411.62004996907325,0.9739321141090744,5.558239594911657,0.012774701300999634
137.0,86.92190096561764,413.0729062366941,0.9739800463410823,5.5669737211382815,0.012777629093067663
138.0,87.01386984381213,414.6198466027895,0.9740205415245763,5.577328097680735,0.012780244319711852
139.0,87.07364666945992,416.26746443583244,0.9740538707071125,5.589313294023821,0.012782497286911143
140.0,87.0941196094312,418.01680542824425,0.9740798506419082,5.603038798779388,0.012784311418284235
141.0,87.07011925663296,419.86525830665744,0.9740979998610395,5.618693875059591,0.012785582464467708
142.0,87.00108160223499,421.80567465480163,0.9741074122333669,5.636592128183998,0.012786179073679014
143.0,86.88795903427592,423.82849013370094,0.9741069777459938,5.657152727692091,0.012785948227679764
144.0,86.73344468749853,425.9236023602347,0.9740953839123531,5.680937872543867,0.01278476156959278
145.0,86.54127765650293,428.0806607243529,0.9740711400759652,5.7086990573756236,0.012782630759356902
146.0,86.32481826995001,430.28588586347786,0.9740322459783214,5.741523082835454,0.012779891720457608
147.0,86.14120122748005,432.48256822828125,0.9739757581987001,5.781057025003155,0.012777354883288461
148.0,86.43668091050242,434.21394556611784,0.9738964388138577,5.830022152247673,0.012776035451023909
149.0,88.58916824205231,434.0827819579648,0.9737843306943649,5.893062849913371,0.012776351735349321
150.0,91.78320654572835,432.88037306024665,0.973625408050331,5.975937064262692,0.012777710012411162
151.0,94.77753661109539,431.82104308512265,0.9734381531354234,6.07015944091649,0.012779156094652147
152.0,97.7792738902675,430.6973093798517,0.9732760749892801,6.152344318456572,0.012779623009146106
153.0,98.51901118065659,431.79289636232335,0.9731450073949144,6.21910244683646,0.012777791705412654
154.0,98.02291887956972,434.08661060570586,0.9730331393936998,6.275384336228661,0.01277331276617918
155.0,97.36489173376334,436.51205850500185,0.9729331482393767,6.324838728852498,0.012767543406608947
156.0,96.6617163654432,438.9418985103402,0.9728405145946168,6.369890082780424,0.012761966390385649
157.0,95.93493879839467,441.3417081355178,0.9727514662312348,6.412356992961996,0.01275707443125424
158.0,95.1988213551189,443.69302057774496,0.9726625449719543,6.453716508520807,0.012752630081122837
159.0,94.44432070470987,446.00401864696823,0.9725716481436535,6.4950741372530265,0.012748150047762117
160.0,93.64382469236813,448.3016343832323,0.9724784098962067,6.53722975791557,0.012743100988333995
161.0,92.77654037441016,450.6055576248588,0.9723815036753132,6.581260099699472,0.012736895043893609
162.0,91.86183473016662,452.8967236939401,0.9722764081809984,6.62910347091011,0.012728964569972672
163.0,90.93853648324301,455.1449328310051,0.972156125811036,6.683829547568041,0.012719366167153691
164.0,90.13151135916367,457.24131120475903,0.9720103109538202,6.750644098903494,0.012710117079323251
165.0,91.74929454377147,456.85585905038823,0.9718146530115658,6.84133539658602,0.012704343176466676
166.0,95.0680565460027,454.71071018178213,0.9714854582559447,6.9909513818804525,0.012701289468787201
167.0,97.98428508760563,452.8786687421731,0.971128005178604,7.152452288650854,0.012697884295487807
168.0,99.85929910969483,452.03753962507875,0.970908642153466,7.252989296983775,0.01269107383630744
169.0,98.91099630731088,453.9811179391919,0.9707417004170685,7.327958513847609,0.01267972255849618
170.0,97.87747761460709,455.99865351204096,0.9705985646514559,7.3910260564020245,0.01266683740698185
171.0,96.86735284763199,457.9760170378443,0.9704670202760128,7.4483439753329,0.012654237364307194
172.0,95.86342310202807,459.92607336339955,0.9703391383743977,7.503734947723828,0.012641638013866942
173.0,94.88959947434883,461.82965987259803,0.9702087693213289,7.5602553964634716,0.012628112349135372
174.0,93.96041209191333,463.68046761444555,0.9700684707390199,7.621505727818663,0.012612918594085695
175.0,93.12224353122757,465.4568393518362,0.9699063694141103,7.693307553145497,0.012596884121150726
176.0,93.85204781248672,465.6699822611047,0.9696963862178549,7.78865050026909,0.012583838988246127
177.0,97.61733293005632,462.85968674229224,0.969296685647623,7.96830886152109,0.012574777061834073
178.0,100.39379277805747,461.0188458221178,0.9688025251420228,8.18826901873243,0.012565451803831503
179.0,102.2715877386229,460.0975933252393,0.9685605284160237,8.298212189615384,0.012551563737960512
180.0,101.51848770379841,461.83151918803907,0.9683780877364779,8.379200880943529,0.012532760621867962
181.0,100.77979551686322,463.6053099931712,0.9682186750690843,8.448964349904237,0.012512735286245719
182.0,100.09739628731478,465.36426564083433,0.96806679405213,8.515196048668475,0.012492386522057067
183.0,99.46567134188703,467.11573753685917,0.9679106934124456,8.583584808727387,0.012471004513512575
184.0,98.90217735831008,468.8637300242978,0.9677360040624025,8.66120068474544,0.01244885810191118
185.0,99.84704876237502,469.15948728158764,0.9675124588588143,8.763117480055636,0.012429564106980975
186.0,103.72091205617582,466.5897575465585,0.9670110234763359,8.987638596909125,0.01241459424883942
187.0,107.26223996461255,464.385407456587,0.9664589700582724,9.234028691707996,0.012398940023174918
188.0,108.61886570896013,464.43888087982316,0.9662206555313979,9.342964488189446,0.012377721692170142
189.0,108.26137008493212,466.2800155779213,0.9660343489410684,9.426532873803627,0.012352199229265785
190.0,107.93130397079375,468.1893752582385,0.9658650958806464,9.50199331831233,0.012325627947577581
191.0,107.6611716356615,470.123287745323,0.9656945482632413,9.578382737173863,0.012298326307797296
192.0,107.54888780497235,466.42532746125465,0.965502648975995,9.665661729105976,0.012270374802479932
193.0,111.31107034911496,450.501757592757,0.965237047176639,9.788997008129508,0.012245455900334662
194.0,114.44374183679861,430.7943465744291,0.9644336224532811,10.14567826935488,0.012223182716384569
195.0,119.79346614764842,406.54258080282546,0.9640837214594691,10.30720071499695,0.012197281167826715
196.0,120.9157686801156,385.3200119349853,0.9638712211870768,10.405438132645472,0.012164447006125477
197.0,122.03056769354339,363.69563447245827,0.9636889688573123,10.489025512904234,0.012128473449374082
198.0,123.66664072311258,341.7683017466087,0.9635095603916248,10.571628080486686,0.012091477460074315
199.0,126.18096185334169,319.7244304706236,0.9633074098914353,10.666012464845968,0.012055345667740941
200.0,134.01840700668774,293.73909157489993,0.9630005594505933,10.810261878021604,0.012024131987599313
