Time,J,A,S,tau
0.0,100.0,100.0,0.9685055773488649,8.547008547008547
1.0,99.87349110121475,98.49603064002821,0.9686148329672271,8.469741176161932
2.0,99.74770518412545,97.01597352681917,0.9687549829374622,8.378329036612284
3.0,99.62343907515503,95.56014587206604,0.9689267999146896,8.272444971813574
4.0,99.50025810716045,94.12856494872408,0.9691303298259173,8.152066211665153
5.0,99.37797963344237,92.7212267066247,0.9693656115492617,8.01717140308191
6.0,99.25640959330457,91.33816524173257,0.9696326181930497,7.867773014231467
7.0,99.13545701149908,89.97934551872831,0.9699313542325996,7.703862260281882
8.0,98.85020800565545,88.80653619131188,0.9702695174958178,7.533924918606721
9.0,98.59727589326087,87.6232690127809,0.9704056442584501,7.474562922624367
10.0,98.34174547514965,86.46021442865295,0.9705426332726418,7.414663964429065
11.0,98.08262023507764,85.31745138065364,0.9706892043965927,7.349985948892713
12.0,97.82004648271332,84.19492980592953,0.9708581191861252,7.2741039909162
13.0,97.41005931222641,83.23423767933654,0.9710808445374636,7.1720570642584995
14.0,96.62763748840881,82.65935098034545,0.9714889747507013,6.989150269785576
15.0,95.8174402765873,82.12390734596426,0.9718563851981019,6.823372969965555
16.0,95.41632658639526,81.19001601556182,0.9720528947206454,6.732242193283862
17.0,95.10750359612132,80.1732508358716,0.9721985731553924,6.665418464379132
18.0,94.79025647038894,79.17309879227936,0.9723194488719461,6.610333362714816
19.0,94.46448713890462,78.18833895741794,0.9724258508116943,6.561757206781105
20.0,94.12933257148694,77.21801099193004,0.9725240751158638,6.516733406864189
21.0,93.78247930989184,76.26237542329753,0.9726179403097753,6.473407592250865
22.0,93.42373408351838,75.32015865226595,0.9727096186919717,6.430486643543733
23.0,93.05436570839356,74.3885987854032,0.9728013800372758,6.38672518284762
24.0,92.67425530993039,73.46634061842437,0.9728963564443617,6.340625413878739
25.0,92.28218916116175,72.55292267080233,0.9729982723944213,6.290301987136612
26.0,91.87770468309007,71.64750930147495,0.9731121080694578,6.233107573001598
27.0,91.41531872657046,70.79329048928139,0.9732467298585203,6.164711721540163
28.0,90.64967273833496,70.23366310904873,0.9734192623487299,6.077886122685169
29.0,89.8023328607661,69.7458448152785,0.9736300651705706,5.973588957552012
30.0,88.95312532969814,69.24842659678342,0.9738039312586819,5.884227783696594
31.0,88.32333831304483,68.52021562198783,0.9739199440810518,5.819340229743002
32.0,87.84440487974214,67.62999393186116,0.9740001741540308,5.769871911714868
33.0,87.37103321201866,66.72417455901812,0.9740569439145255,5.730165768844933
34.0,86.89378500581535,65.81354323665826,0.9740957990561648,5.697301254871729
35.0,86.41409878484598,64.89749797035633,0.9741198985474329,5.669535060716626
36.0,85.93346421045723,63.975566550781366,0.9741313905481067,5.645732396448047
37.0,85.45449300520323,63.04689485995931,0.9741314540366919,5.625193729240901
38.0,84.97854264907018,62.11186135973438,0.9741218742712596,5.607292020360216
39.0,84.50692448320504,61.171791055538094,0.9741025723822282,5.591816553118142
40.0,84.04071284912813,60.228054091935974,0.9740750083258511,5.578354659939812
41.0,83.58143177070882,59.28170885126424,0.9740391200343006,5.566806461374221
42.0,83.1308289688361,58.33411453037977,0.9739952921180306,5.5570294303310686
43.0,82.69064942866325,57.38677801803646,0.9739432138325378,5.54901919990266
44.0,82.26241056166413,56.44160065826036,0.9738827866053932,5.542754685626442
45.0,81.84784020850896,55.500469307001005,0.9738135541242929,5.5382810307371395
46.0,81.44866605750282,54.56538698546567,0.9737351186806088,5.53564075915961
47.0,81.06644532160492,53.63851309436111,0.9736471172135254,5.53487622008925
48.0,80.70251446055762,52.72211958157918,0.9735492777257967,5.536017416446145
49.0,80.35805525082024,51.81860918682659,0.9734415322038938,5.539066533265918
50.0,80.03396474603134,50.930455072149336,0.9733240107469133,5.5439979292607955
51.0,79.73056634866094,50.06032286994112,0.9731972070610312,5.550730537652689
52.0,79.44760436445804,49.21109052824881,0.9730621636695064,5.559101963503927
53.0,79.18403116099776,48.385814660329316,0.9729203585502693,5.56888714335296
54.0,78.93849529583035,47.587756555860146,0.9727734491407897,5.579836620691489
55.0,78.7088220796493,46.82011897051739,0.9726234253484274,5.591652438140622
56.0,78.49277244693741,46.08573059948059,0.972471713885171,5.604132286965317
57.0,78.2877237609657,45.38708824344549,0.9723196487458964,5.617089002430794
58.0,78.09140402287592,44.72612534176435,0.9721679204590685,5.630443043362314
59.0,77.90129012482883,44.104215550488384,0.9720168631994761,5.644178193149033
60.0,77.71511661679952,43.522236729679534,0.9718667430906128,5.65828634321079
61.0,77.53045130175622,42.98063396326759,0.9717177046478439,5.672787584334216
62.0,77.34536042254392,42.47931968195092,0.9715698237075876,5.687709965629934
63.0,77.1579563498023,42.01778913825212,0.9714233046733873,5.703064185317919
64.0,76.96663936181946,41.595120386730365,0.9712783153161813,5.718862300899724
65.0,76.7700679597566,41.21012246456251,0.9711351698136294,5.735087893752714
66.0,76.56731927610932,40.8611279094199,0.9709941450241937,5.751724788945004
67.0,76.35776175191877,40.546287342032606,0.9708555251639212,5.768747473252052
68.0,76.14114055977852,40.26354411483825,0.9707196758143171,5.78610771752544
69.0,75.91742954228326,40.01058244342492,0.970586884933317,5.80375693115273
70.0,75.6873142917259,39.78466865242947,0.970457513082681,5.821619403595982
71.0,75.45196712849689,39.582717208741215,0.9703318921096772,5.839608466743569
72.0,75.2131556026311,39.40111550863316,0.9702103619107553,5.857620421230243
73.0,74.97329818204466,39.23588885968458,0.9700932811454482,5.875529470666311
74.0,74.73441776168735,39.08355610646235,0.9699810860624101,5.893179419850699
75.0,74.49751551222823,38.94179676949926,0.9698742166708862,5.910399372749757
76.0,74.26199832539167,38.80990243124518,0.969773099938884,5.927014807046181
77.0,74.02630828328941,38.688309684462645,0.9696780761838644,5.9428725523956585
78.0,73.78808786217746,38.57826420667862,0.9695895761151224,5.957801767392469
79.0,73.54521131952792,38.48098683331892,0.9695079863394733,5.971654445622507
80.0,73.29608650088309,38.397075709024705,0.9694335296340448,5.9843358478360775
81.0,73.03972020291144,38.32665235439002,0.9693663873007777,5.995777329320343
82.0,72.77554542384536,38.26945049517852,0.9693067073236346,6.005926893478357
83.0,72.50343199217912,38.22469157523718,0.9692545888912378,6.014755208007767
84.0,72.22369724519051,38.19149272726333,0.9692100474523084,6.0222616897197
85.0,71.9367836738212,38.16863390684012,0.9691730405306063,6.028466657365611
86.0,71.64339685643777,38.15497426847127,0.9691435376070403,6.033386613825745
87.0,71.3441473454425,38.14949242856305,0.9691215142247602,6.037040593433004
88.0,71.03968451228195,38.15109463199335,0.9691069127140672,6.03944835434543
89.0,70.73045412435911,38.15889266292502,0.969099746685722,6.040614179094628
90.0,70.41677524718366,38.17226458655509,0.9691000751416514,6.040529306772144
91.0,70.09920660870495,38.190692583537825,0.969107705699025,6.0392397975030825
92.0,69.77772598897356,38.213849374388836,0.9691227596090616,6.036715143909472
93.0,69.45243624452328,38.24146214273882,0.9691451926069815,6.032963089377526
94.0,69.12329952262213,38.27362202382967,0.9691750966040378,6.02795077417708
95.0,68.79017310138637,38.310107155535995,0.96921243992496,6.021676744022017
96.0,68.45313211318752,38.35096473410687,0.9692571613682058,6.014149881415637
97.0,68.11207934090415,38.39614089190835,0.9693092692788122,6.005359931847147
98.0,67.76712592514687,38.44551348270689,0.9693687857176951,5.995301053991457
99.0,67.41878434844996,38.49858623271622,0.9694355953053073,5.984006544933562
100.0,67.06786526044088,38.554637798219225,0.9695095145693341,5.971536352953237
101.0,66.71558432738536,38.61253493456723,0.9695904863470912,5.957931105627259
102.0,66.36390524500138,38.67054572870767,0.9696781735815158,5.943318208275015
103.0,66.01491834340575,38.72676739934028,0.9697723258947237,5.9278101656576885
104.0,65.67096315999706,38.779182726381975,0.9698725541355325,5.911560735351956
105.0,65.33382561279332,38.82642782803811,0.9699785428116573,5.894717209911177
106.0,65.00453276908905,38.86789253109941,0.9700898576990975,5.877449986609587
107.0,64.68285345416535,38.904257508555006,0.9702061147577119,5.859911595440169
108.0,64.36790836686414,38.93695372661686,0.9703268445423867,5.842264145966926
109.0,64.05840344083002,38.96776227446471,0.9704517204389244,5.824624395791291
110.0,63.75330250556938,38.998240264854275,0.9705803632426672,5.807103119737888
111.0,63.45203708475026,39.0294625539752,0.9707124653740997,5.7897823638082855
112.0,63.15424594817513,39.06221098058219,0.9708476654356273,5.77273853616446
113.0,62.85976669029052,39.09712704581979,0.9709855831901585,5.756036868790907
114.0,62.56845717705436,39.13468402478572,0.9711259209023265,5.73971540768347
115.0,62.28006753017221,39.17540337247208,0.9712683677319934,5.723804856132195
116.0,61.99433136570639,39.21980205594858,0.9714126468988966,5.708321668979957
117.0,61.71091800607897,39.26833877011856,0.9715584275376594,5.6932839056943285
118.0,61.42945124583308,39.321584563520354,0.9717056188325753,5.678666845753764
119.0,61.14942449181747,39.38005710274825,0.9718540709323166,5.6644548907066765
120.0,60.87004960761448,39.44450772823566,0.9720037664695118,5.65060843174029
121.0,60.590870183158856,39.51546612771153,0.9721547211426421,5.637086720875912
122.0,60.31126836081346,39.59351870666911,0.9723069231452212,5.623855289870727
123.0,60.031029630214675,39.67888150435906,0.9724601209624827,5.610920772531171
124.0,59.75048225915861,39.77148031068125,0.9726137455389268,5.598343491368434
125.0,59.470546341808756,39.87065408822628,0.9727666444735109,5.5862815991606665
126.0,59.19268834904325,39.97532527638453,0.9729170808583876,5.574986343071503
127.0,58.91873681192882,40.08401440357134,0.9730627814398155,5.5647981282700725
128.0,58.650803234462416,40.19521538684878,0.9732013235042385,5.556083198312151
129.0,58.39037723260773,40.307761175541025,0.9733306107416465,5.54916032351636
130.0,58.13837739398631,40.421197450365554,0.973449183290276,5.5442539909108275
131.0,57.89515293346315,40.535707711254084,0.9735563682744994,5.541469801447671
132.0,57.66016795995636,40.6520118640766,0.9736520757593624,5.540826036163111
133.0,57.432428461542784,40.77134124423019,0.973736714962647,5.542265981157495
134.0,57.21064318225417,40.89505397964129,0.9738109236285916,5.5456988539513175
135.0,56.993278705298785,41.0246359498429,0.9738755498357492,5.551007167491046
136.0,56.778819089269746,41.16142483534752,0.9739314241480513,5.558078632333403
137.0,56.565654535252456,41.306690338509036,0.9739793067100196,5.566818392800365
138.0,56.352430489678916,41.46140910213541,0.974019787375936,5.577172615179715
139.0,56.13809569812945,41.62611982968703,0.9740530591722764,5.589164676024283
140.0,55.92173505457119,41.80102007111229,0.9740790091859175,5.602891421972706
141.0,55.70291898109779,41.98583020483395,0.9740971054292235,5.61855254958055
142.0,55.48143528789495,42.17986291494325,0.974106488145082,5.636451399846107
143.0,55.257439730013324,42.38210213767878,0.9741060105452927,5.657015665178896
144.0,55.03120518793108,42.59152210849339,0.9740943896731039,5.680799236107547
145.0,54.80303840482349,42.807219213865245,0.9740701389860102,5.708554903469744
146.0,54.57426568503992,43.027783582157035,0.9740312849927532,5.741360802986885
147.0,54.35067297771507,43.247542954542176,0.9739748226367975,5.780875812467454
148.0,54.1763967272411,43.421209446378306,0.973895649028351,5.829786702597381
149.0,54.18911408932813,43.40905476373257,0.9737837234212158,5.892753260786678
150.0,54.30878187158324,43.28885899828003,0.9736250354592313,5.975534301129919
151.0,54.41012818276841,43.183070820013484,0.9734376930132594,6.0697896085467535
152.0,54.51465413569439,43.0703219210326,0.9732753988413305,6.152065918646492
153.0,54.39532314298554,43.178985108962095,0.9731441942940635,6.218886932773578
154.0,54.15332247352468,43.40829853770033,0.9730322022803172,6.275218589879215
155.0,53.8967996857087,43.650877798690594,0.9729321252477884,6.32470552160241
156.0,53.637565763018415,43.893954348292255,0.9728394621131438,6.369771659967256
157.0,53.37771730654161,44.133989653206235,0.9727503968176096,6.412248969460533
158.0,53.11863202513841,44.369152023068494,0.9726614744913266,6.453611666662222
159.0,52.85956189080309,44.60021741823945,0.9725705706984475,6.494973262261013
160.0,52.597638440707286,44.830002226180795,0.9724773331645858,6.537128008737178
161.0,52.33068931531584,45.06040062632645,0.9723804367891914,6.581152810494784
162.0,52.06062256055895,45.28955256527648,0.972275362601246,6.628985760757786
163.0,51.791482013214925,45.51438098395558,0.9721551208991839,6.683692616846214
164.0,51.53543789446474,45.724029923060186,0.9720093664586705,6.7504718394903245
165.0,51.522563932651046,45.686507854794584,0.9718138907392782,6.841076322082066
166.0,51.683020310838735,45.471430937238765,0.9714851106206215,6.990515529447108
167.0,51.803451675553326,45.28889505416014,0.9711272868570076,7.152175523019507
168.0,51.82317656411669,45.20374171579826,0.9709077257731272,7.252804793879412
169.0,51.56102723925517,45.39814041053252,0.9707406873068055,7.327819312791397
170.0,51.291867955780134,45.59995878542545,0.9705975066983995,7.390908131967126
171.0,51.02661888822361,45.79779442046863,0.9704659493726563,7.448233039639458
172.0,50.76366372921507,45.99286343390524,0.9703380713679464,7.503623287360209
173.0,50.50528202098863,46.18326604964746,0.9702077135702483,7.560138775756417
174.0,50.25294102049539,46.36829532977018,0.9700674438757211,7.621376811856321
175.0,50.011077719623295,46.54593624523547,0.9699054181679079,7.693143503938438
176.0,49.92654577180298,46.5681787053307,0.9696956016551649,7.788407769005642
177.0,50.14861826474565,46.28652570567127,0.9692966734938849,7.967736263017637
178.0,50.27157843744089,46.10344128356752,0.9688018220308161,8.187991164614994
179.0,50.308142316872726,46.01019313287471,0.9685596002051746,8.298039842996175
180.0,50.08184923367452,46.18362128318583,0.9683770809824183,8.37906587893237
181.0,49.85839707165854,46.361043455652656,0.9682176416461857,8.448841991305013
182.0,49.64206001222573,46.53693169877624,0.9680657559145167,8.515075097920935
183.0,49.43230249791513,46.711994745210376,0.9679096750803851,8.5834538063583
184.0,49.23066729624085,46.88675616604386,0.9677350413659099,8.661042380100827
185.0,49.180267852866066,46.917174063642626,0.9675116394935788,8.762890544695999
186.0,49.4255857526093,46.65950243581158,0.9670114074255154,8.986895504162126
187.0,49.63745979013132,46.439992123955335,0.9664581742118554,9.233792043967325
188.0,49.633904147767005,46.4443805145741,0.9662197026657035,9.342803198560606
189.0,49.459225105465094,46.62842742222973,0.9660333499478373,9.426394711717753
190.0,49.28867301125753,46.81932036925956,0.9658640874081148,9.501858736872535
191.0,49.12533171780309,47.01263663454005,0.9656935493133662,9.578240836766296
192.0,48.9778152226583,46.09752632768184,0.9655017031117276,9.665490069904639
193.0,49.198022563973744,43.17532350387917,0.9652363187969675,9.788722667774978
194.0,49.357069128958294,39.57416702115967,0.9644332854892256,10.14523635446436
195.0,49.79279414277887,35.447122321680155,0.9640828052843669,10.30701312960047
196.0,49.85720987440222,31.717495209006017,0.9638702163671007,10.40529264982503
197.0,49.984979904744314,28.119562538015046,0.9636879268858562,10.488896385061667
198.0,50.23241823175675,24.736940720411567,0.9635085327169978,10.571490066646023
199.0,50.62878225571368,21.618344312809043,0.9633064562768532,10.665839910563408
200.0,51.58539410156158,18.417544892964354,0.9630000161482068,10.809911101236228
201.0,52.39585196564497,15.827147312335292,0.9620834172028195,11.219363442605204
202.0,53.42321612382785,13.432754649504648,0.9617997415225875,11.353798737497096
203.0,54.09470561700585,11.732187560831413,0.9615981400492711,11.449133614653661
204.0,54.73104629644761,10.303477908551846,0.9614141558688214,11.536160216246493
205.0,55.3020652823703,9.103421866246757,0.9612182612121462,11.629644281138697
206.0,56.14378195667423,7.774872319122247,0.9609526824965812,11.757394262045091
207.0,56.618709723486,6.908872176356093,0.9599660287670468,12.201725965665789
208.0,57.20562363520305,6.000143171696529,0.9596507908795541,12.352843912650682
209.0,57.24489078748023,5.659613820920864,0.9594449531143077,12.452861247872097
210.0,57.071133383805886,5.467869129701608,0.9592578970939218,12.543956963561214
211.0,56.896323854962446,5.217683301408463,0.9590544519508486,12.643781986939254
212.0,56.81951328259561,4.861691932944422,0.9587331182375636,12.798993018588549
213.0,56.234819989469415,4.974321269604566,0.9576965197985193,13.27034589464151
214.0,55.86799882840773,4.803988658131044,0.9574421273694468,13.396184089960386
215.0,55.25854472835487,4.834251361629436,0.9572474851248232,13.493292699532326
216.0,54.66701953871417,4.792042861728179,0.9570565371177168,13.589017262582487
217.0,54.16757956490942,4.6362004323538635,0.9568189955725142,13.708062721153068
218.0,53.24097313558259,4.834835070513089,0.9557584026497475,14.194867487100842
219.0,52.51223207033205,4.744506402454159,0.9554140960554126,14.36310911640705
220.0,51.95243363551678,4.471662205336192,0.9552103839122827,14.466947649620282
221.0,51.426812509287814,4.197332278157752,0.9550228307813425,14.563104245969594
222.0,50.91425090265957,3.940102120301743,0.9548045721298435,14.674854042377248
223.0,50.11040305088491,3.941142414862159,0.9538295966442811,15.129479292984636
224.0,49.38129701631972,3.8071422110424047,0.9533638986318266,15.352554474518453
225.0,48.90373949234401,3.4366714842450823,0.95315763123948,15.459665424085097
226.0,48.45669352864682,3.1086560244644326,0.9529725993454122,15.556539617542075
227.0,47.94686930517177,2.893527258285773,0.952759364349822,15.66762564136349
228.0,47.20100108813961,2.894696195549025,0.9517450381851921,16.144572792667088
229.0,46.49427690724321,2.8119467604115025,0.9512995828474475,16.36014327379035
230.0,45.99450472372602,2.5406749420021555,0.9510993822220766,16.465987336931985
231.0,45.514338884300365,2.3159707553834377,0.9509179924152503,16.562751621358977
232.0,44.95305758071456,2.2103183190194904,0.9507027458925577,16.676204410490246
233.0,44.18103512397944,2.2850355944372307,0.9495740649095764,17.20829382269155
234.0,43.489205177607886,2.2367936911625645,0.9492358018062448,17.377688322982277
235.0,42.981780576911426,2.0281947047150823,0.9490467840513747,17.47941267748556
236.0,42.499140530437785,1.8573824207694598,0.9488700029019241,17.57523625954068
237.0,41.91923564750254,1.809846650560242,0.948647781587368,17.692854314854692
238.0,41.20866277556489,1.8645134517237685,0.9474591224615829,18.255931632365765
239.0,40.611753113329364,1.784484314124787,0.9471882560087402,18.396104692049725
240.0,40.163822930235035,1.593486640150479,0.9470115241297183,18.49276703054412
241.0,39.73065793292276,1.44850145734122,0.9468407131650224,18.58654670342348
242.0,39.19773692889018,1.4245718452101046,0.9466124046460893,18.707232890540187
243.0,38.61266568834739,1.4351902974059365,0.9454069881756676,19.28215827036173
244.0,38.1557559621492,1.3214304314444034,0.9451706867194484,19.40688395358016
245.0,37.7910750688609,1.1607523169494944,0.9450057465167101,19.498291781157157
246.0,37.445746412276414,1.034906854995436,0.9448444692371138,19.587829975501947
247.0,37.019569787031806,1.0123606852324072,0.944628459090348,19.702659253840473
248.0,36.55401260880593,1.0197288013528176,0.9434266468430903,20.280075920833244
249.0,36.18588112277474,0.9356905757044677,0.9431973595226494,20.40106110378848
250.0,35.893424308607045,0.8133340544734452,0.9430428185118435,20.48741821053255
251.0,35.61428160186568,0.7199892272398654,0.9428966820654547,20.569489728115308
252.0,35.298442719332115,0.6865036660169052,0.9427204512708939,20.66548949570958
