Time,J,A,S,tau
0.0,100.0,100.0,0.9467835765982309,9.345794392523365
1.0,100.19046293932895,66.49031825473077,0.9468928585692877,10.28228714302706
2.0,100.290116304952,44.52222297131444,0.9470099970840212,11.216091786228837
3.0,100.32308050034287,30.04240049649354,0.9471355853024912,12.146995635665048
4.0,100.30662136615278,20.444312677702413,0.947270284911472,13.074784779145537
5.0,100.25291314182508,14.047927185441813,0.9474147307510038,13.999251862794017
6.0,100.17046003339348,9.760172273962558,0.9475695896290887,14.920174097537371
7.0,100.06518906789806,6.869572087793739,0.9477356552384764,15.837293993638395
8.0,99.94117590883735,4.910635007443551,0.9479136710291968,16.750364743777048
9.0,99.80119748605924,3.5769692943640052,0.9481044304631704,17.65911811421578
10.0,99.64710157240646,2.665757043584742,0.9483087794527618,18.563269189392553
11.0,99.48008951140457,2.0422957635261634,0.9485275681688956,19.462524509892184
12.0,99.30089897292153,1.616286097631902,0.948761665137503,20.356578567546684
13.0,99.10993638109082,1.32721576953353,0.9490119521815572,21.245113345813227
14.0,98.90737441795035,1.1343039074750687,0.9492793231094616,22.12779894078895
15.0,98.69322088605377,1.0099243692004922,0.9495646726359377,23.004293770463242
16.0,98.46736998952375,0.9353392965708232,0.9498688949972756,23.874244319825042
17.0,98.22964411102761,0.8980180278769127,0.95019286358799,24.737286813884744
18.0,97.97983864884291,0.889454055945745,0.9505374260848909,25.593051883805494
19.0,97.71772891947349,0.9044462694436202,0.950903408398787,26.441154308441185
20.0,97.44313170088475,0.9397467579645638,0.9512915722287003,27.2812079240845
21.0,97.15592509530357,0.9939658563039889,0.9517026201633055,28.112819595497495
22.0,96.85609001898233,1.0672985130860373,0.952137189627854,28.93558868745565
23.0,96.5437739698658,1.1617971800910465,0.9525958279769122,29.749111034996464
24.0,96.21938945822063,1.2818855109224723,0.9530789716929092,30.5529813216102
25.0,95.8837420753636,1.4372466065200855,0.953586937640947,31.34679226873492
26.0,95.53838242844391,1.6537631429030766,0.9541199165230166,32.130134735455925
27.0,95.1867082703575,1.9542786374778554,0.954677930302415,32.90260339481072
28.0,94.83326300157103,2.303519905663471,0.9552608367745309,33.663793448523535
29.0,94.48086126996174,2.668535422134992,0.9558683182745953,34.41329964834126
30.0,94.13288517369097,3.0497768518833452,0.956499845053739,35.15072239796649
31.0,93.79333791059415,3.447676248711965,0.9571546560153822,35.8756672577493
32.0,93.46690436355748,3.862646822321117,0.9578317458658331,36.58774382464782
33.0,93.15899517689138,4.295079963099764,0.9585298616614458,37.28656709204801
34.0,92.87579455215894,4.745353217562798,0.9592474870125092,37.97175129387954
35.0,92.62431357446171,5.213806748503014,0.9599827678331201,38.64292494964896
36.0,92.41236005938522,5.700781341082695,0.9607336146577746,39.2997045765035
37.0,92.2486006511894,6.206553195143088,0.961497468047135,39.941737320026206
38.0,92.1424494540019,6.731394783064429,0.9622714864505044,40.568659446337136
39.0,92.10397381893478,7.275575963141644,0.9630525277545483,41.18009448208068
40.0,92.14384852292397,7.839295431599288,0.9638369026024618,41.77569787743623
41.0,92.27308994676882,8.4227469046383,0.9646205625591832,42.35511166162231
42.0,92.50281355541506,9.026087565243065,0.9653989926774468,42.91798419365773
43.0,92.8439524716813,9.649431124501275,0.966167141820692,43.46397353615204
44.0,93.29804652930277,10.301649844810878,0.9669228530156901,43.638340777273974
45.0,93.7086181009755,11.18145953232716,0.9666855677027071,38.37601599715934
46.0,95.07750983481058,11.220545637484177,0.9663215299728019,33.64152556510458
47.0,96.61422494498125,11.182988504875963,0.9657399249128061,30.527792081050997
48.0,98.2446886789154,11.140794471831466,0.9650474383731787,27.730777339490018
49.0,99.95030593661579,11.113525360133305,0.9642118248928351,25.619014090272042
50.0,101.70884161209472,11.126207881070522,0.9632503342463016,24.021229943243448
51.0,103.48946576018083,11.215239878658869,0.9622024267532704,22.484498605308104
52.0,105.25458626814557,11.42761036477071,0.9610374689666977,21.322291215646842
53.0,107.02658709498712,11.753379266193052,0.9598145540806955,19.73301738054917
54.0,108.74469666434766,12.265417567240943,0.9584536573950463,18.6936448507543
55.0,110.37522215203654,13.006387993531161,0.957015712508585,17.764503466407415
56.0,111.84458770307083,14.05057229521408,0.9554712756430224,17.28558473670303
57.0,113.21437588429147,15.323781219662727,0.9538693472555063,16.419847643178713
58.0,114.56027914512634,16.729175490014278,0.9520182485123584,15.560499308329831
59.0,115.48906569435944,18.621889767062232,0.9502136779934413,14.870329979623548
60.0,115.97135364792284,20.949063199320356,0.94833056951213,14.441003945580203
61.0,116.5992708923759,23.076748109172613,0.9460529577138065,13.692375416855432
62.0,116.40901302585871,25.890786065307097,0.9441244301808814,13.404929245904015
63.0,116.57342727867055,28.192173191397778,0.9414906946724693,12.717671195830835
64.0,115.81337146525766,31.218544953475277,0.939317752241251,12.45153845158556
65.0,115.05171872236785,34.0540388655159,0.9365953697041006,12.023442656270808
66.0,113.94459647375824,37.02028653714746,0.933631910302651,11.57401034433835
67.0,112.04016681435641,40.58818276320682,0.931323569672279,11.355229429396132
68.0,110.4008831428113,43.699538066050444,0.9277543438774214,10.843269560942613
69.0,108.03933842372348,47.343383401956345,0.9243417108185101,10.58060157086116
70.0,105.59668369239483,50.88309058366552,0.9217475706834483,10.393962504702015
71.0,102.91398173000597,54.47835344011139,0.917899511925301,10.144796481409813
72.0,100.39776425853412,57.71344848205963,0.9133014790253972,9.72562201749145
73.0,97.90496760005675,60.720176164997916,0.9095737234860297,9.550047887210093
74.0,95.96441444990921,62.96269556140508,0.906398975627112,9.396841746416243
75.0,93.57694735167625,65.42568181271544,0.9019311676106279,9.219502513600002
76.0,90.83065729919497,67.99695412061676,0.8963021515997041,8.89768783928225
77.0,87.95837357321041,70.42100863130857,0.890638797971021,8.696284687917366
78.0,85.86766747490623,71.78746166124677,0.8859203224355497,8.562302769906042
79.0,83.74643936112268,72.91010327328243,0.8818269649482333,8.443649475661736
80.0,81.47468917353437,73.90252850924017,0.876888880099482,8.32194489060352
81.0,78.77718156670133,75.03218411868875,0.8704848054302169,8.177227878129157
82.0,75.21416795278087,76.72476947703521,0.8631376595895534,7.972188002655834
83.0,71.70734534660986,78.05720365976654,0.8554710933690631,7.7977458264762545
84.0,68.94674009067987,78.36731019151762,0.8480935203696062,7.679603688788388
85.0,66.22755114149639,78.3887897107406,0.8415088369161143,7.583612793679843
86.0,63.47904037634947,78.21365194674794,0.8355695579752936,7.497633039107514
87.0,60.717873579033764,77.84627108371821,0.8294347473434303,7.414872516086709
88.0,57.96730440071005,77.28410298032239,0.8222559831767438,7.330229499760236
89.0,55.24996252255259,76.52479592824463,0.81376657949152,7.238648882533884
90.0,52.52015447430956,75.63414868755491,0.8042058476915546,7.134669092034675
91.0,49.57756033555308,74.83044642900683,0.7939337559719936,7.016159722563343
92.0,46.72391548681086,73.83117567946975,0.7832247800264946,6.901320172797222
93.0,44.262002611123194,72.3575936012374,0.772309134321593,6.807271081215706
94.0,41.94381735441957,70.67934456025499,0.7614457666355279,6.730392841357917
95.0,39.679970019828936,68.90375452604621,0.7508822412402588,6.66527707330373
96.0,37.46675951601747,67.05075233923101,0.7407488483829222,6.608183848698108
97.0,35.30424656162702,65.13565005227063,0.7309957375447551,6.556472911868217
98.0,33.19317242582778,63.172175311500524,0.7213929081469214,6.508446348585205
99.0,31.13304023279173,61.17450780012133,0.7115901926649832,6.463259649842651
100.0,29.12321440559828,59.15636671968141,0.7012443172164328,6.420621233593847
101.0,27.165298325798773,57.12874932994743,0.6901424541107231,6.380409760799005
102.0,25.262808970206112,55.1005161115084,0.6782302461854264,6.342548874426164
103.0,23.42033700436396,53.07920033814668,0.6655610463629864,6.3070716655246795
104.0,21.643105772976178,51.071521807784954,0.6522345582703651,6.274196822454695
105.0,19.936976438749735,49.08338867852328,0.6383601924954196,6.244323032584816
106.0,18.30835159856726,47.12014811644622,0.6240375277854247,6.2179707163762155
107.0,16.764127926698777,45.186515234985116,0.6093488316201356,6.195700832987956
108.0,15.311894072366728,43.28669817301169,0.5943617018551153,6.178022646452071
109.0,13.959675228672642,41.42455861234962,0.5791295045382235,6.165332673260789
110.0,12.716024031719924,39.603591188479996,0.5636973606744219,6.15786244080065
111.0,11.58969872815594,37.82715571072255,0.5481031538833653,6.155675350231439
112.0,10.58942318152801,36.098602894808984,0.5323791425449313,6.158668815987614
113.0,9.723458473887941,34.421379208485966,0.5165534827711599,6.166581597460758
114.0,8.999071898005099,32.79906348758798,0.5006480490687389,6.17902240549538
115.0,8.421934195968708,31.23537708169789,0.48467804170180917,6.195484548354346
116.0,7.995501063443108,29.734128960547356,0.46864865068237843,6.215399678005555
117.0,7.720245573733014,28.299181627689514,0.45255231186328176,6.238191357904548
118.0,7.593145264962261,26.934285210308325,0.43636534406804317,6.263356226391022
119.0,7.607409635005552,25.642822340269348,0.42003972225112723,6.29060369748527
120.0,7.752710010390624,24.427225713820302,0.40348558039817445,6.320058783557216
121.0,8.016243835508226,23.28797322189195,0.3865225781959233,6.352643553584977
122.0,8.385157266167623,22.22145599777404,0.36875876397044965,6.390785927709828
123.0,8.850461485947013,21.21662367772297,0.3493811383072705,6.439456613519127
124.0,9.403674130311265,20.25912795968721,0.3276437635843534,6.503815676412746
125.0,10.00380669037561,19.365564505336568,0.3059157750206881,6.574687351316693
126.0,10.596562073345073,18.566162822685754,0.28739364190238825,6.636049943741668
127.0,11.164590032317461,17.855578710667587,0.2715983295601896,6.688560541583843
128.0,11.700837419620472,17.22013931244091,0.25750758240749466,6.737767220826352
129.0,12.198417384358123,16.64858792446144,0.24459653516539,6.787160731578845
130.0,12.652942230594922,16.130009272153387,0.23259725366822595,6.838327678086117
131.0,13.06358974922156,15.652575739886704,0.2213453889024461,6.891567910931583
132.0,13.431527506601155,15.2041117503182,0.21072796301845984,6.946210047465716
133.0,13.75712649634652,14.773594839037989,0.20066423859453209,7.00087808994464
134.0,14.039570644066389,14.355255903451361,0.19109510780734307,7.053900486563874
135.0,14.282060734951342,13.950864248026328,0.18196866405104617,7.103941319098499
136.0,14.490647090301621,13.561210418577211,0.1732385508852033,7.150320897671128
137.0,14.671675320177602,13.183395738594294,0.16485778934233503,7.193100220676285
138.0,14.830917454836474,12.813324816847283,0.1567705099166192,7.233098215199667
139.0,14.973668628887033,12.44675969775944,0.14888303081479307,7.272187262714852
140.0,15.106112743427788,12.078338382294412,0.14096501527307426,7.314468249412774
141.0,15.239867008250053,11.69711733500568,0.13218464820390088,7.371469589300718
142.0,15.404000281791824,11.274471358717474,0.11868555716825795,7.4844662301629645
143.0,15.551536230947953,10.858003736638933,0.10477431732860779,7.616174342509952
144.0,15.628468381813185,10.504048376724278,0.09761973613755721,7.681464850225461
145.0,15.674732698792782,10.174870073249823,0.092359093014634,7.724954730202044
146.0,15.703741866071816,9.858613053214354,0.08791703411135665,7.760850091523703
147.0,15.7201926516707,9.551802851182062,0.0840127341130986,7.793253397511025
148.0,15.72638836483054,9.253163606543716,0.08053115741072214,7.823585145620622
149.0,15.72378061362109,8.962240395185772,0.07740914524672028,7.852313292193867
150.0,15.713423265900236,8.678925519785498,0.07460552560230256,7.87950472222542
151.0,15.69618272553965,8.403263859633984,0.07209044565614058,7.905066060020058
152.0,15.672894762745235,8.135310820575345,0.06984121001284598,7.928841515061023
153.0,15.644326840647125,7.875081840303518,0.06783982281159455,7.950674437253415
154.0,15.611078899541868,7.622702789268348,0.06607171501837567,7.970441177942014
155.0,15.57394992214169,7.378095418441585,0.06452509132717271,7.988047078759638
156.0,15.534105204031322,7.141474709945224,0.06319049510143454,8.003431890298796
157.0,15.493139173703721,6.914054331313137,0.0620603441496833,8.016559690345574
158.0,15.452903385194531,6.69754619701793,0.061127503748464075,8.027450952856048
159.0,15.41502448760362,6.493247892100294,0.06038684584987122,8.036120181324257
160.0,15.381005384357406,6.301953173513948,0.059834464307508065,8.042586073296349
161.0,15.35234018631943,6.12413708119059,0.059467546035067625,8.04686831415587
162.0,15.33059050728967,5.960100099682343,0.059284244711166084,8.048983753889924
163.0,15.317416726604637,5.810062698266351,0.059283788805183084,8.04894045872355
164.0,15.314535104211823,5.6742268357626715,0.0594662441535874,8.046744079531539
165.0,15.323728766433222,5.5528333292476395,0.0598326407301581,8.042391880340535
166.0,15.34686218346454,5.446187283547786,0.060384987776155995,8.035875782086208
167.0,15.385892613033736,5.3546850508789845,0.061126328690160034,8.027185224816664
168.0,15.442916005235366,5.278881458293737,0.06206082388297232,8.016311097486993
169.0,15.520128883725514,5.21955215857954,0.06319372693738087,8.00325215205426
170.0,15.619783350915196,5.177554182539041,0.06453108929507197,7.988034071483349
171.0,15.743685272196291,5.153319792681664,0.06608152395587993,7.9706736605882345
172.0,15.89310066521984,5.146760648589063,0.06785543073587634,7.951221856994008
173.0,16.068895847028717,5.157798777492549,0.06986497761990122,7.929768941075226
174.0,16.27174503801607,5.186642788900422,0.0721253636939244,7.906432693485894
175.0,16.50212284753805,5.233808614640866,0.0746554479165006,7.881352619145153
176.0,16.7602207741966,5.300110506401673,0.07747939453090376,7.8546512701608835
177.0,17.045860268559622,5.386671566766014,0.08062951149633822,7.826370133292428
178.0,17.358290769128327,5.494966293718744,0.0841520035539843,7.796332828797164
179.0,17.695913350084677,5.626933508705327,0.08812232196768746,7.763825314800748
180.0,18.05568552570812,5.785367557704141,0.09269458467503355,7.726727476121325
181.0,18.431319903477487,5.975541438002516,0.09833396620389753,7.678161424141179
182.0,18.804764960706763,6.213302331545606,0.10791726548000852,7.584502936299225
183.0,19.149081717108345,6.5218268143069995,0.12903642970069878,7.397163908825426
184.0,19.522768823867878,6.837125255225674,0.1399760036941316,7.316329870364854
185.0,19.90346024412498,7.174493096964042,0.14832267274817798,7.268838158214559
186.0,20.268547099882873,7.547518513272782,0.15637755206493648,7.228259613002255
187.0,20.601352401074383,7.962211808502391,0.16456368681356467,7.188104758056283
188.0,20.885812897883547,8.422796906210202,0.17302072962579784,7.145879096532106
189.0,21.105550692622195,8.93314572429952,0.18181979728826397,7.1005636717556575
190.0,21.244384996804786,9.49700393024199,0.19101435800045882,7.052023392046981
191.0,21.28750892857443,10.117449492553856,0.20065555450246012,7.000841280541149
192.0,21.220543524077257,10.794626275717885,0.21079719496234128,6.9482171599267675
193.0,21.029983554282005,11.522134900644563,0.22150763208771004,6.895564369363249
194.0,20.707653670874496,12.290730356724236,0.2328772005380225,6.8440783859829
195.0,20.250784422914023,13.092618186486488,0.24503536407438378,6.794274275910082
196.0,19.660450319408934,13.922769462035186,0.25818576878959104,6.745591978897273
197.0,18.940314984411533,14.779330790699516,0.2727213141967635,6.695668622943379
198.0,18.092259030192338,15.666966406289044,0.289660798353737,6.638346612262192
199.0,17.10617465699752,16.605923717855696,0.3120153221273636,6.559789399005413
200.0,16.003996889217653,17.587528526534786,0.3408015618412989,6.461793636364366
201.0,14.926085444662764,18.48843805311111,0.3648996637739979,6.391430056563381
202.0,13.924046437427592,19.276499982863335,0.38432345991358857,6.345753156702044
203.0,13.001943079896108,19.96672462602581,0.40197103425117936,6.310636660126312
204.0,12.170227422010589,20.566237570846106,0.4188833728213171,6.280444240007052
205.0,11.439609852599009,21.07989417715905,0.43543286848861107,6.253191516824046
206.0,10.817356231284377,21.51374482789574,0.4517754323969012,6.228343564591017
207.0,10.306713399417296,21.87563538158376,0.46798601064693524,6.206003756804686
208.0,9.907324472055238,22.174999253052547,0.4841004716360846,6.186568523088684
209.0,9.615920072368167,22.42239679470877,0.5001327657931349,6.170541625761317
210.0,9.42666513897732,22.629384490380385,0.5160808145667145,6.158432376526531
211.0,9.33150875404252,22.80831489600429,0.5319315827616935,6.150690742948569
212.0,9.321647382775458,22.971060327955566,0.5476640817431178,6.147666378320335
213.0,9.388010720545205,23.12867907542063,0.56325065765666,6.149587710978351
214.0,9.521214332087274,23.2916058480308,0.578658643055979,6.156542450875662
215.0,9.711534584842425,23.469793058496276,0.5938483368902548,6.168476167806564
216.0,9.949088310261963,23.67275081547821,0.6087744713569883,6.185168383507687
217.0,10.22414345499984,23.90927605806045,0.6233781872661835,6.206270020150935
218.0,10.527735656583571,24.18704593105487,0.6375871136958552,6.231314839115222
219.0,10.852375878276588,24.512040088492007,0.6513080149388724,6.259788446827753
220.0,11.192299758429247,24.888346072570236,0.6644236354194399,6.291209563985229
221.0,11.5433950900636,25.31830165424568,0.6767950797079902,6.325217733859195
222.0,11.902860292524984,25.802796499856218,0.6882707446849963,6.3616557269525815
223.0,12.268678703729918,26.341894683695962,0.6987218386571883,6.400573052608618
224.0,12.638591755336282,26.935937462460714,0.7081219178902172,6.44208785327094
225.0,13.008736727992165,27.58700733810535,0.7166704872385876,6.486100354009167
226.0,13.373784990779198,28.299026793161925,0.7248411996394851,6.532216201176279
227.0,13.729829742334596,29.0751133827938,0.7331930467302197,6.580311656802812
228.0,14.078058773427037,29.91416893826989,0.7421020441347324,6.631275786534169
229.0,14.426377256172746,30.809774429322662,0.7516956604352795,6.687090226797845
230.0,14.793988286416058,31.745694636600472,0.7619103069671491,6.750446454105295
231.0,15.243512968935251,32.66155547700224,0.772535943576017,6.82449448532996
232.0,15.909327708440404,33.42088041197159,0.7832756126380954,6.912484254898243
233.0,16.78057255792627,34.02824812077431,0.7938366775338351,7.014415632199923
234.0,17.665607311578633,34.66987766964736,0.8039588105906482,7.119441461986043
235.0,18.335539388146664,35.574627308372065,0.8133324156582872,7.215845162386069
236.0,18.79570539459764,36.738149699398136,0.8215274425532124,7.302452412001688
237.0,19.193333398205414,38.010167218837694,0.8281406202362878,7.382394036953468
238.0,19.562241624689836,39.348902688784904,0.8332013621402719,7.459532155528149
239.0,19.899604094101836,40.74968299537142,0.8375166375563998,7.537454582759946
240.0,20.20666066201104,42.20846660042587,0.8423348012899715,7.620033913311592
241.0,20.50718241857389,43.704572438196614,0.8484039397154192,7.713424884039693
242.0,21.001109732592028,45.03804819817398,0.8555499687600595,7.82770396429436
243.0,22.06099825422682,45.824469658629575,0.8630679788229434,7.97891016138349
244.0,23.19103180986082,46.545538547720945,0.8702849061829121,8.145840591256194
245.0,23.776784609429967,47.81851874679744,0.8765076692347178,8.281072557209724
246.0,23.970512193670093,49.497023178654956,0.8809271176216424,8.395508424887833
247.0,24.107793625950865,51.2429930483003,0.8836488088083191,8.50269666054055
248.0,24.218769356332775,53.01920603469339,0.8863895604466402,8.614085013331751
249.0,24.382967051703275,54.75038265655116,0.8907028868371333,8.744792814258783
250.0,25.334841355056813,55.69371291271639,0.8962426622223908,8.929619851231463
