Time,J,A,S,tau,r
0.0,1.0,1.0,0.5775961119100297,31.25,0.0
1.0,19.976369580382872,7.983836694833105,0.5727007135658976,30.98368862033825,0.07361641153634356
2.0,71.65735640737248,14.463941726514841,0.5678470150721672,30.717381235556175,0.07330155391292281
3.0,146.5316171614526,20.472801299076263,0.5630367901108997,30.45111310062617,0.07298787751930587
4.0,237.673695257935,26.040982269381132,0.5582717338243453,30.18491967073288,0.0726754483990079
5.0,340.0091145671658,31.1972381263547,0.553553471212052,29.918836045390023,0.07236433682051283
6.0,449.80127062119624,35.96859892358112,0.5488835496901511,29.652898512742475,0.0720545974105057
7.0,564.2889038488961,40.380474891449936,0.5442634480956704,29.38714280540533,0.07174629305478887
8.0,681.4273361050568,44.45673296088196,0.5396945665174036,29.121606559723425,0.07143947115631573
9.0,799.7021311361992,48.2197719733822,0.535178201621949,28.856331389230196,0.07113415892622102
10.0,917.9962132689516,51.690688176133165,0.5307156727831092,28.59134547321345,0.07083046742622387
11.0,1035.4878448534937,54.88924109768161,0.5263081932044915,28.32668680451841,0.07052843780729447
12.0,1151.5760691328205,57.833904428875144,0.5219567462817962,28.062406187955354,0.07022805515835606
13.0,1265.8351764619754,60.54210148581315,0.5176624374353115,27.798536282967785,0.06992939909181985
14.0,1377.9611803406178,63.03008865430841,0.513426168896454,27.535126128519828,0.06963247621268095
15.0,1487.7566868286362,65.3131830329513,0.5092488681630325,27.272208157026377,0.06933736108549175
16.0,1595.088404634742,67.40570841895618,0.5051314446961611,27.00982434113214,0.06904408776153904
17.0,1699.8867791504322,69.32105358497198,0.5010745990380077,26.748020488528997,0.0687526791374857
18.0,1802.125123086733,71.07178718158335,0.4970790791846724,26.48683940412483,0.06846316949696422
19.0,1901.8107774845182,72.66957629106535,0.4931453108006349,26.226342684639945,0.0681755422204503
20.0,1998.9671322515715,74.12545392167772,0.48927397356269126,25.966571484258388,0.06788984162014106
21.0,2093.6556503105962,75.44977220421019,0.4854656314455444,25.70755374539893,0.06760614093108734
22.0,2185.9187642092947,76.65194786668332,0.4817203997145691,25.449386924350364,0.06732434574895374
23.0,2275.8404991374987,77.74105707641156,0.47803876139560975,25.192099159160264,0.06704453232823505
24.0,2363.5000693249635,78.72550507953379,0.4744210517727174,24.93574163844102,0.06676672020761236
25.0,2448.332401786806,80.16053291924217,0.47105854064492275,24.72189940473549,0.06635609799097067
26.0,2515.438807327635,94.00845084219635,0.47154028747992344,24.73029512737104,0.06493851913751526
27.0,2559.791175879805,120.41786253602126,0.47206184793421924,24.739548677764045,0.06362578980547512
28.0,2577.7423025398316,155.22617005463584,0.47262315308318537,24.749710328493432,0.062406706041894446
29.0,2568.153616958144,195.43414538385355,0.47322405367547643,24.76085745376305,0.06127153835265682
30.0,2533.9860373627407,238.87984259246372,0.473864396777273,24.773081499884483,0.0602118206273391
31.0,2479.970429561583,284.00747676970303,0.47454388720270396,24.786495948493123,0.059220128736452674
32.0,2410.656069298391,329.70305601103075,0.47526226498577506,24.801235514250095,0.05828992824670499
33.0,2329.7608007145673,375.17662573909456,0.4760191099202206,24.817459340522774,0.0574154514909891
34.0,2240.192854124608,419.87330333082616,0.47681376735519293,24.83536825557698,0.05659158687018771
35.0,2144.2327409806066,463.4118846800263,0.47764560640912596,24.855167822264455,0.05581385894156329
36.0,2043.703221677412,505.53485753393323,0.4785138790893756,24.877079135811513,0.055078348003602506
37.0,1940.071858309133,546.0777788205227,0.4794177603475585,24.90130808664359,0.0543816914988567
38.0,1834.5275735611174,584.9423465803604,0.4803560641884102,24.928015796774186,0.05372099346603789
39.0,1728.0232112550673,622.088153296624,0.48132735806185106,24.95725013423268,0.053093845589915936
40.0,1621.3018059826113,657.5294189394909,0.4823302819135463,24.988848482926826,0.0524981685312829
41.0,1514.9294074435109,691.3272227112708,0.48336308057387295,25.022408629107666,0.051932251803576523
42.0,1409.3174562704498,723.5871053208305,0.48442365127287085,25.057307349422036,0.05139464293358116
43.0,1304.7706734339613,754.4325040384707,0.48550932905159677,25.092804064867334,0.05088425659797958
44.0,1201.522325189736,783.9765963454597,0.4866169992148958,25.128215792305433,0.050400482167204726
45.0,1099.770973515227,812.3031633034126,0.4877427749117306,25.163061405014375,0.04994295472691721
46.0,999.6927077063905,839.4645585159892,0.48888179105928503,25.197134702016815,0.04951134343077564
47.0,901.4257677471404,865.5056019428213,0.4900280021581811,25.23047299395449,0.04910503640455862
48.0,805.0562845374593,890.4866556583186,0.4911734996397917,25.263337252127553,0.04872297541726977
49.0,710.6060045491017,914.4978817243892,0.4923083488604466,25.296130967452648,0.04836372155116881
50.0,618.0463826193761,937.6555381902074,0.49341899306209824,25.32941422519898,0.0480255955976209
51.0,527.3297428796642,960.0766474888984,0.4944906886226235,25.363788612037673,0.04770687057511323
52.0,440.1538375052156,980.189631514943,0.4955085163016475,25.39987176234352,0.047405875425064095
53.0,361.3197775386928,993.3651260658237,0.49646432442061494,25.43810294825729,0.04712104057587753
54.0,294.34491883659643,996.326085226828,0.49736715494224804,25.47854954511064,0.04685088874769305
55.0,239.63098503043452,988.9298939772934,0.49825088032786746,25.5207536595739,0.04659399270155076
56.0,195.44405434055233,973.1341116908058,0.4991671738458181,25.56393120800681,0.04634885101930096
57.0,159.19247555396637,951.693248479386,0.5001628834024154,25.607532632824828,0.046113809791785934
58.0,128.32681963894458,927.2624185574228,0.5012615850493214,25.651768581772,0.04588682236472495
59.0,101.37932799152506,901.3689260813868,0.5024623373773915,25.69779459949238,0.04566519069440303
60.0,78.26304124552574,874.1230199078159,0.5037501014730821,25.747723174632807,0.0454453427765122
61.0,59.1136477523715,845.3857941638701,0.5051056635609381,25.804607293498414,0.045223265691573186
62.0,43.60413698269065,815.462538082055,0.5065105806379215,25.872192862103617,0.044996823004355604
63.0,31.22526999964225,784.829418524387,0.5079470728045932,25.952924968570905,0.04476900354563237
64.0,21.501437736666592,753.919468810425,0.5093970781444862,26.042685968584344,0.0445461386907393
65.0,14.028265593876217,723.0847429937292,0.5108416100544207,26.129903078646688,0.044334127489336406
66.0,8.471237281362418,692.6013036323172,0.5122555170301888,26.207186955847344,0.044140875753404876
67.0,4.559401586445335,662.6802671602743,0.5136045367714229,26.275589683540666,0.04397159971701403
68.0,2.108914576820852,633.45138947358,0.5148422799856596,26.339442715267293,0.04382417616689024
69.0,1.1398690890572327,604.8494546509522,0.5159167534922097,26.403046571774382,0.043693203279459525
70.0,1.7974440730268615,576.6934303206743,0.5168149973038497,26.469114131674655,0.043573750928870704
71.0,3.615875813733856,549.4238417418015,0.5176339364185597,26.537473072912388,0.043461822004684694
72.0,5.78427049808055,523.8402001107944,0.5185472508857125,26.60638947305418,0.04335346602602334
73.0,8.468671673633146,499.7807589470051,0.5196523171468166,26.676718152304982,0.043243368436604646
74.0,12.1485529503898,476.7872504808826,0.5209313171791162,26.75411298050472,0.043123281920903686
75.0,16.95556601315946,454.7717617098018,0.5223242856716787,26.84888903838284,0.04298447611085463
76.0,22.96977686248674,433.723177491148,0.5237722623273823,26.970982413355966,0.0428315783684346
77.0,30.2980855599855,413.62517172889864,0.5252212255702511,27.104667339183724,0.04268054706493016
78.0,39.072612593455446,394.4558447667518,0.5266153805731127,27.21781745615237,0.04254683450051683
79.0,49.44547392521435,376.19793095117205,0.5278769692958216,27.310649961903067,0.04244451982923654
80.0,61.61855547947616,358.81475853138346,0.528912549257572,27.395641651128475,0.0423675692801139
81.0,75.94501025851174,342.14891646804926,0.5296901349794705,27.481220437501214,0.04230448499993466
82.0,92.57048184532,326.2703284700402,0.5303994792523767,27.568563917122013,0.04224653152742844
83.0,111.50897783061774,311.40018656834485,0.5313128246024699,27.657336125321738,0.042184939497075566
84.0,133.20440927102663,297.3403609604736,0.5324797144166775,27.756073360721516,0.04210620169499378
85.0,157.98173922002772,284.0196369239235,0.5338042498245292,27.885154321307343,0.04199752258119328
86.0,186.12719443312324,271.409185330293,0.5351764829427281,28.054461122055233,0.04187573595018785
87.0,217.91394355351864,259.4812258997893,0.5365017495190466,28.206087790784316,0.04176434834074366
88.0,253.59374341867127,248.20967516031365,0.5376593700517639,28.32124473243893,0.04168888277902234
89.0,293.44539482003796,237.523883923262,0.5385194218666616,28.422870041685826,0.04164404957075878
90.0,337.91857073995845,227.15575268447748,0.5391169860918131,28.524146935472405,0.04161186787039263
91.0,386.7861525277731,217.45692301512355,0.539806462229193,28.626986881435315,0.04157845265208079
92.0,440.07623758073214,208.50291693715548,0.540803280177276,28.740005473612236,0.04152608427757013
93.0,498.00408872316046,200.11208954242383,0.5420135530617466,28.892769885369376,0.04143641562279401
94.0,560.5845244769213,192.26084552476644,0.5432749553288595,29.09618718497468,0.04133318742927102
95.0,627.7627917921059,184.9400761713106,0.5444478426322749,29.258438459498315,0.04124698850242665
96.0,699.4868836746181,178.10326960954976,0.5453546565221348,29.380534185602514,0.04120393556346577
97.0,776.136355540195,171.23853798193295,0.5459134047410312,29.493858744889334,0.041184743311360475
98.0,857.0985083040785,164.66526394983987,0.546442837916139,29.60821522666431,0.04116767219034537
99.0,941.4052786846873,159.132925476186,0.5472926958752852,29.73407408583755,0.041130073819511316
100.0,1029.2089704768605,154.18071281019627,0.5483916426784187,29.911375414968617,0.04105024552735343
101.0,1120.222459080616,149.70479605805798,0.5495314893202908,30.14179918266447,0.04095976961832651
102.0,1213.9949583531577,145.78469518300852,0.5505287212006886,30.306457062768906,0.040894830602526376
103.0,1310.6599101968582,141.9654294613426,0.5511772267928541,30.43449307013186,0.040873598726768205
104.0,1410.3984417943987,137.47333911152077,0.5515688197228985,30.557759359135822,0.040866861347071175
105.0,1510.5738910305113,134.39497319514288,0.5521814648808796,30.68780398407337,0.040847807237804026
106.0,1611.0899182538833,132.51555615620495,0.5531178478813306,30.862047500133958,0.0407856346567693
107.0,1712.2019347461276,130.97855089207508,0.5541467061567257,31.1171164976369,0.04070353390914555
108.0,1812.7619806260495,130.38002945160005,0.555052198811339,31.303973064989954,0.04064088602218675
109.0,1913.5239124420827,129.59034779750746,0.5555988480098463,31.442011529647733,0.04062481688497399
110.0,2014.2968808012586,127.82455471983039,0.5559133351697682,31.57361305206813,0.04062303759328948
111.0,2111.0222722214808,128.5391072528719,0.5564925524041842,31.717478722295215,0.04060220009511895
112.0,2204.4596103107942,130.80030549951002,0.5573685978951792,31.932063702558125,0.04053505383334855
113.0,2295.313973970822,132.91110979628013,0.558269577525236,32.19940902462821,0.04046131586091874
114.0,2381.1401206136275,136.8819138478805,0.5589476986770268,32.36924325139608,0.04042226111559521
115.0,2464.535531971984,139.34002531970438,0.5592525140909946,32.50909474906358,0.040419707960209404
116.0,2541.4077209080165,143.17663255810135,0.5595912345774893,32.65134679027932,0.040414163502760225
117.0,2609.4273816943646,150.72166972788287,0.5602807346714141,32.83873412488014,0.0403664341504399
118.0,2673.664529560721,156.08095948938492,0.5610893798704375,33.133055367406115,0.04029700815938033
119.0,2726.8139699836547,165.7354188909959,0.5617606258317499,33.33538284855252,0.04024636699567414
120.0,2774.134476585994,174.38962776649655,0.5620580089857765,33.48410746491671,0.040240365587467394
121.0,2812.8915421956326,183.81360774290093,0.5622886334600316,33.63045042280546,0.04023829831813579
122.0,2839.296077265266,198.08372029763385,0.5628566556645032,33.81826680245909,0.04019724139631326
123.0,2863.1708091698047,207.33313694548514,0.5635634134259825,34.12692838923843,0.040132654221828594
124.0,2872.060191035594,223.72975478670006,0.5641465557817388,34.339887948256084,0.040083619664510246
125.0,2874.501440708485,239.50696952988966,0.5643673904908878,34.493228111136894,0.040078232658053055
126.0,2868.181478449701,256.86899297322753,0.5645589869668852,34.645597113353624,0.040074007750869715
127.0,2851.1451306979748,278.5973623870599,0.5650804213592158,34.854427094167086,0.04002783236336966
128.0,2837.289211996179,291.3084011906105,0.5656867799270061,35.17868493909334,0.03996779083727733
129.0,2806.894843784998,315.51003647264906,0.5661250274126273,35.37719534056874,0.03992921361625997
130.0,2772.761099070357,338.5808178687791,0.5662344707722332,35.531048227204124,0.03992709748821987
131.0,2730.819863688204,364.901172374075,0.5664490286863008,35.694226868165416,0.039913902500809846
132.0,2687.3382015710763,389.2630409391098,0.5669494636838776,35.95722220201846,0.03985979947505214
133.0,2645.1888177497926,408.9320535914647,0.5674453915455251,36.26218657559747,0.03980462490098855
134.0,2589.5666515696566,439.5781124198182,0.567686577158986,36.43778508360322,0.03978309097538629
135.0,2531.449515098259,469.8063214997663,0.5677292081059833,36.59295532780539,0.03978066039136784
136.0,2467.0761468855126,503.7527130030938,0.5680227117567445,36.783464768274804,0.03974842066936916
137.0,2417.0025012998212,521.7400678128485,0.5684555810588355,37.12278371917175,0.03969550077976263
138.0,2350.555441330289,554.5312898044114,0.5688069949389464,37.353743552306995,0.03965074729929711
139.0,2280.575185916993,589.2248680226486,0.5688551349552526,37.514187974068975,0.039643022557216634
140.0,2207.4984565683826,625.3919383722881,0.5689450434027393,37.6794153201042,0.03962962128018657
141.0,2139.041568800961,655.800451427868,0.5692917742483969,37.946513049812324,0.03958060760103979
142.0,2077.8843538241103,677.9631203282958,0.5696289028828435,38.26793941073195,0.03953148050181832
143.0,2000.463207242773,715.6705752824726,0.5697573649335508,38.44599730073213,0.03950885532956704
144.0,1922.4220963508192,753.0070296755102,0.5697338672733636,38.6035362021652,0.03950194991353381
145.0,1843.4313391993082,790.4901171922467,0.569941244065145,38.80659745151589,0.039465552821953166
146.0,1785.6272726274933,806.3622705416069,0.570216018100008,39.16548556724714,0.03941973107906273
147.0,1707.5291422496448,842.1589408480884,0.5704169098880417,39.38092170625354,0.03938099750622099
148.0,1628.1213974960456,878.7725728250086,0.5703742760560359,39.5389869335683,0.03937161739368419
149.0,1547.6887540987116,915.9466720805646,0.5704301906145283,39.71124433646887,0.03934984350253057
150.0,1483.0123132247297,937.1778706197156,0.5706481167641396,40.02235124481706,0.03930504687089226
151.0,1416.1675547898715,960.4045014899486,0.5708500740405109,40.310340879715795,0.03926119409457645
152.0,1337.7144682660544,995.133651861885,0.5708518430886653,40.47711337165461,0.03924252231948286
153.0,1260.411225987752,1028.5220668214674,0.5707972807659446,40.63444491598528,0.039229375326247415
154.0,1187.894707077624,1057.0573945686606,0.5709497144809197,40.86016769191573,0.039188913798712935
155.0,1136.931435793755,1064.1082000407969,0.5710837382987939,41.219354477287965,0.039149775998836116
156.0,1064.5579442806152,1092.7198262225947,0.5711562795426258,41.410543187528056,0.039117536976511394
157.0,993.3342119585584,1120.236874548912,0.5710600490895091,41.56212442805385,0.03910553376946222
158.0,923.3540142233647,1146.6142727077786,0.5710858577249167,41.73680276505318,0.039077929252289666
159.0,876.6829039403262,1149.979496205444,0.5711766374428525,42.069751940380996,0.039039978178854164
160.0,820.892562055712,1162.7544018708404,0.5712800504884338,42.328361085862866,0.03900079574918869
161.0,758.4273951619613,1182.55898903484,0.5712220475145885,42.484835654913574,0.038981634354078726
162.0,698.8181289062737,1199.8269145017257,0.5711354944074909,42.634380742670146,0.03896533811552253
163.0,644.9969396786672,1211.7302661622384,0.5712096961728064,42.84664634768801,0.0389282821361448
164.0,617.0546141740832,1198.31039592855,0.5712250217145625,43.203020572452,0.03889619089255508
165.0,567.285495211913,1207.3499682418333,0.5712566312549058,43.39159615044506,0.0388632052062152
166.0,520.2084024812888,1214.273804365932,0.571145851540457,43.5334412086663,0.03884788710332192
167.0,475.8866577753771,1219.053925488583,0.5710897583715389,43.68419562900695,0.03882567978494418
168.0,443.6037385518574,1212.553358325188,0.5711328676952546,43.935020695298704,0.03879067627082484
169.0,424.84331805099544,1193.3436323470828,0.5711133598090221,44.254315807116924,0.038760340091554615
170.0,390.1417623869134,1190.9994524993556,0.5710937505602256,44.4165554787483,0.03873248636892449
171.0,359.0702204282075,1185.8605152501461,0.5709739092126325,44.54837984412152,0.03871715374293683
172.0,331.08521785716016,1178.5158282201567,0.5709180052551011,44.691992765458494,0.03869399974723624
173.0,311.7006303504052,1163.5816151299732,0.5709302167974181,44.93024551749621,0.03866238697888457
174.0,304.6405746139601,1137.385196683205,0.5708648551763815,45.240732230605474,0.0386361854056699
175.0,284.2147575455368,1125.7147434257897,0.5708446260353948,45.39705050561352,0.038608445003988065
176.0,266.5365118948851,1112.3405962689528,0.570733710306738,45.51919895472397,0.038592291193274876
177.0,251.60738580403668,1097.2927837925852,0.5706461791754106,45.64305531092639,0.03857358519427017
178.0,239.24903988666125,1080.8010421021556,0.5706468053538253,45.81001846367093,0.03854457208697164
179.0,241.87330774953105,1050.6240244760018,0.5705243007240364,46.123044529419964,0.03852375611271799
180.0,233.52177818891414,1032.7135222232898,0.570515618009662,46.3146724322658,0.038496693541963424
181.0,226.1636364606886,1015.025878277544,0.5704536137550497,46.43567617891219,0.038475973405712814
182.0,220.91845116273274,996.4299523764442,0.5703469374518197,46.540321800698074,0.038461247435809254
183.0,217.71605052352373,977.0257054278792,0.5702733478723169,46.64888633961938,0.03844309929232558
184.0,215.74259662481856,957.6482596420451,0.5702617321128556,46.78934087927148,0.03841833774594716
185.0,222.01816732362246,931.4121794176835,0.5701369917666795,47.05105698012629,0.038400653665554826
186.0,224.9449161008271,909.8802451209056,0.5700769426883648,47.25690074375662,0.038380877493835314
187.0,227.2972858517949,890.2831427879354,0.5700479329176358,47.37262014819826,0.03835965817145367
188.0,231.2395856879328,870.3934782094077,0.5699754752668194,47.46274902669759,0.03834448283066833
189.0,236.48260701628377,850.5091829244252,0.5698900470861497,47.54468977319372,0.03833165929351447
190.0,242.77086153570707,830.8839821659117,0.5698273609534293,47.62762934767099,0.0383169830381391
191.0,250.44716736680957,811.178595772075,0.5698014738204379,47.72229103756696,0.038298793466908086
192.0,259.50551655008064,791.425522395632,0.5697809898055133,47.8526533325049,0.03828167938219061
193.0,273.32080414497284,768.3346139674442,0.569621013592966,48.070592657381766,0.038270815433771276
194.0,285.0880429112622,748.6784760140114,0.5695559754066313,48.22301370955538,0.038257962658931784
195.0,297.11175972315255,730.1212104490564,0.5695396604115782,48.31324433066088,0.038242740196819
196.0,310.26463266332865,711.7271047489195,0.5695105129831706,48.38011939275357,0.03822958393617054
197.0,324.52556055744225,693.5136351096352,0.5694687780534271,48.43505417275295,0.03821903039436399
198.0,339.8669725744894,675.5076856764482,0.5694224613375404,48.4827439496018,0.03821014085140954
199.0,356.071192464992,657.9153112064654,0.5693790190068367,48.52549151762015,0.03820205022500704
