Time,J,A,S,tau,r
0.0,1.0,1.0,0.4859783145456383,23.809523809523807,0.0
1.0,13.495934812035776,4.089221543253733,0.4864365070427033,23.695853311657874,0.032676419080232055
2.0,42.03900094640912,6.962628361898418,0.48690554831192767,23.57969553198184,0.03272909394208128
3.0,83.2454089100848,9.635283081377795,0.4873853518225309,23.461082012956446,0.032781754398608184
4.0,134.38464643275353,12.121232298822214,0.48787582839865345,23.340044834553478,0.03283439549381424
5.0,193.24578897512512,14.433571400824524,0.4883768845259369,23.21661701025408,0.032887009817635135
6.0,258.03324139382846,16.584506970901,0.48888842232933855,23.090832478672286,0.03293958949243425
7.0,327.2851232020357,18.585414737478658,0.4894103395523998,22.962726094802797,0.03299212645724775
8.0,399.808969390332,20.446893366409956,0.489942529537881,22.832333620910457,0.033044612539168815
9.0,474.63051396013134,22.178817350794986,0.4904848812153412,22.69969171597328,0.03309703948171208
10.0,550.9533061221637,23.79038203168953,0.4910372790845476,22.56483792590935,0.03314939895277932
11.0,628.1260556029447,25.290151042662835,0.49159960320384144,22.42781067278065,0.0332016825500585
12.0,705.6162426892263,26.686099827397875,0.49217172919396673,22.28864924100393,0.0332538818132689
13.0,782.9896399947435,27.985647125583533,0.49275352820768237,22.147393770056855,0.03330598821062514
14.0,859.8924797330427,29.195698786310274,0.4933448669556819,22.004085236500128,0.03335799316037127
15.0,936.037743151893,30.32268253469554,0.4939456076948054,21.858765443223117,0.033409888023682534
16.0,1011.1938000804465,31.3725780492346,0.4945556082310308,21.71147700584943,0.03346166410746704
17.0,1085.1750279451157,32.35094530404611,0.49517472193117296,21.562263337625623,0.03351331266992575
18.0,1157.8343882274823,33.26294267890454,0.4958027977011573,21.411168640138076,0.033564824910024556
19.0,1229.0562905818251,34.11338186281848,0.496439680053746,21.258237878519818,0.03361619199155087
20.0,1298.7520364896088,34.90672821770792,0.4970852090509803,21.103516778146183,0.033667405016017046
21.0,1366.850067154202,35.65221388476597,0.4977179108432649,20.952217992003064,0.03371537064082863
22.0,1429.4191795863337,41.601337057164876,0.49789133952046943,20.912426250994063,0.03369761860626396
23.0,1485.0973719830547,55.60223568112501,0.49806101731160857,20.873562287130973,0.03368179994012432
24.0,1527.4896288314665,75.5057871920166,0.4982268994895318,20.835631814144776,0.033667602064859296
25.0,1546.72528227949,99.62873024713006,0.4983889426398885,20.798640290224267,0.033654763829406076
26.0,1538.130252085982,126.65330296194512,0.4985471046657698,20.762592922765517,0.033643065644413925
27.0,1503.5302401627378,155.54963043154382,0.49870134479198786,20.72749467306039,0.03363232180680432
28.0,1448.4016163359822,185.51530809622972,0.4988516235687185,20.693350260971677,0.033622374466071775
29.0,1378.918007987219,215.92815212848708,0.4989979028745674,20.66016416957083,0.033613088836136264
30.0,1300.3456200322237,246.3091106829628,0.499140145919773,20.627940649627913,0.03360434936277153
31.0,1216.5905629481852,276.292906107133,0.49927831724813027,20.596683724171605,0.03359605662965202
32.0,1130.3278386341672,305.6048116572593,0.49941238273890654,20.566397192915147,0.0335881248425288
33.0,1043.3064813012718,334.0421803128795,0.4995423096087941,20.53708463653485,0.03358047976902568
34.0,956.6418291760705,361.4596879371909,0.499668066412728,20.508749421006375,0.033573057039284565
35.0,871.0364066270164,387.7574420356132,0.49978962304504193,20.481394701680678,0.03356580073656917
36.0,786.930614527304,412.87160149792254,0.4999069507363885,20.45502342798912,0.033558662217797866
37.0,704.5986322830427,436.7667537629988,0.5000200220604619,20.429638346366723,0.03355159913144876
38.0,624.2095150089034,459.42971151991645,0.5001288109290128,20.40524200490566,0.03354457458030584
39.0,545.8643572496478,480.8646496357516,0.500233292591856,20.381836757108506,0.033537556415372025
40.0,469.6195734678698,501.08918024611046,0.5003334436214767,20.359424767669854,0.033530516624047865
41.0,395.50107632361664,520.1298286304739,0.5004292419756774,20.33800800616784,0.03352343085760673
42.0,323.2438393922855,538.2903419265957,0.5005206668833958,20.317588268350292,0.03351627791272854
43.0,251.2690057809999,557.1320423745887,0.5006076989327988,20.298167165427476,0.03350903940998966
44.0,182.25158084331125,573.9646941522974,0.5006903200383809,20.279746131939515,0.033501699441484276
45.0,122.26951476691433,582.908377273122,0.5007685134403128,20.262326428748334,0.03349424428401591
46.0,75.3630288610177,580.3376583937064,0.5008422637015144,20.245909146114126,0.0334866621474735
47.0,41.82145737421885,566.4378119900344,0.5009115567044444,20.230495206662575,0.033478942954417314
48.0,19.449900233983556,543.796283342362,0.5009763796469112,20.216085368345315,0.03347107814604443
49.0,5.309184015908067,515.605076376274,0.5010367210383398,20.202680227173296,0.033463060511502205
50.0,-3.2233697324541706,484.61062300054675,0.5010925706954379,20.190280219883075,0.033454884036823805
51.0,-8.087624040813765,452.78974815839103,0.5011439197376182,20.17888562648607,0.03344654377101115
52.0,-10.552166533024325,421.40983713662405,0.5011907605821845,20.16849657269749,0.03343803570699953
53.0,-11.352072032779777,391.2103931421147,0.5012330869392205,20.159113032255075,0.03342935667556077
54.0,-10.829932698264434,362.57981950007616,0.5012708938061634,20.150734829131398,0.03342050425050665
55.0,-9.041733615805569,335.68862010025913,0.5013041774626829,20.143361639548893,0.03341147666400542
56.0,-5.8277490308799695,310.5785929179926,0.501332935464172,20.136992994041545,0.03340227273021976
57.0,-0.8596006681584706,287.21866177243544,0.5013571666360274,20.13162827926568,0.03339289177701888
58.0,6.324315152425884,265.53856231442757,0.5013768710672655,20.1272667397424,0.033383333584331466
59.0,16.28641127189278,245.44862968829935,0.5013920501040267,20.123907479475307,0.033373598328582506
60.0,29.655522964874024,226.85122333455385,0.5014027063428438,20.12154946345523,0.03336368653249589
61.0,47.088810197027755,209.6472099570614,0.5014088436236281,20.120191519060278,0.03335359901967358
62.0,69.23067721352724,193.73954479455227,0.5014104670224904,20.119832337337375,0.0333433368734762
63.0,96.67151059397216,179.03472898756243,0.5014075828443418,20.120470474171128,0.033332901399745554
64.0,129.90756248818167,165.44451147335639,0.5014001986153241,20.122104351342085,0.03332229409299182
65.0,169.3045689231172,152.88772539394998,0.5013883230746922,20.124732257514488,0.0333115166056321
66.0,215.07107722548193,141.28923791372947,0.501371966165499,20.128352349253063,0.03330057071991306
67.0,267.2415447061363,130.5795467431537,0.5013511390321154,20.13296265104622,0.03328945832351768
68.0,325.6701404368758,120.69555863860072,0.5013258540072573,20.138561056320103,0.033278181385627846
69.0,390.0255779104868,111.58171894399274,0.501296124599133,20.14514532884674,0.03326674193562637
70.0,459.80191036271515,103.19259260028429,0.501261965493737,20.152713101530498,0.03325514204552523
71.0,534.3283278362159,95.49584933392293,0.5012233925332801,20.1612618783896,0.03324338381114493
72.0,612.7842539792501,88.47690804872836,0.5011804227176803,20.170789033432314,0.03323146933776522
73.0,694.2173699181533,82.14418007701506,0.5011330741892599,20.18129181154958,0.03321940072528178
74.0,777.5690938322949,76.53483451260944,0.5010813662244767,20.19276732832362,0.033207180055592644
75.0,861.7094465074865,71.72003575320585,0.5010253192268556,20.205212569723813,0.03319480938121688
76.0,945.4859584434787,67.80830628368372,0.5009649547127465,20.218624392438944,0.03318229071461766
77.0,1027.7792997193726,64.94640184262187,0.5009002953048367,20.232999523206768,0.03316962601911875
78.0,1107.545942058157,63.316329244635604,0.5008313647202525,20.24833455872778,0.03315681720046914
79.0,1183.8146852566824,63.12849386471155,0.5007581877613551,20.26462596505073,0.03314386609947528
80.0,1255.5995687683583,64.6107563557768,0.5006807903037699,20.281870077296432,0.03313077448541195
81.0,1321.7234144526865,67.9944369510385,0.5005991992870337,20.30006309888922,0.0331175440502834
82.0,1380.60390680111,73.49821819031925,0.5005134427035319,20.319201100925284,0.033104176403780675
83.0,1430.1237421607482,81.31154522653945,0.5004235495871192,20.339280021494428,0.03309067306894329
84.0,1467.7252372526593,91.57917613376054,0.5003295500027026,20.360295664765456,0.033077035478445586
85.0,1490.792866521083,104.38801298577162,0.5002314750343162,20.382243700188294,0.03306326497151051
86.0,1497.232511647539,119.75705103473003,0.5001293567730181,20.40511966167453,0.03304936279140454
87.0,1486.0347299840726,137.63180374536086,0.5000232283084343,20.428918946078756,0.03303533008328692
88.0,1457.559350863002,157.8834443202047,0.49991312371336877,20.453636812642397,0.033021167892848195
89.0,1413.4515763947336,180.31131271936388,0.49979907803547596,20.479268381396388,0.03300687716504397
90.0,1356.2443735932372,204.64958489427582,0.49968112728061564,20.505808632632625,0.032992458743748225
91.0,1288.8484710538264,230.57569057096654,0.4995593084045242,20.533252405058995,0.03297791337130057
92.0,1214.1014963671578,257.7204301198926,0.499433659300167,20.561594394546617,0.03296324168865466
93.0,1134.4873284150458,285.6793193817578,0.49930421878458914,20.590829152898102,0.0329484442359326
94.0,1052.0291833015826,314.0255583220493,0.49917102658627677,20.62095108645701,0.03293352145327733
95.0,968.3029086937239,342.3256820449074,0.4990341233327602,20.65195445462029,0.03291847368198119
96.0,884.5066951424926,370.1589790061791,0.498893550538397,20.683833368257588,0.03290330116586577
97.0,801.5399702703878,397.1400152597139,0.4987493505916565,20.71658178814615,0.03288800405296594
98.0,720.0700386223622,422.9392763772153,0.49860156673984063,20.750193523804807,0.03287258239773992
99.0,640.5862111183452,447.29298549209307,0.49845024308059077,20.78466223108314,0.03285703616277446
100.0,563.4602625644906,469.986761022818,0.49829542454435094,20.819981411282587,0.032841365221665746
101.0,489.0262681695841,490.80440131992657,0.4981371568823526,20.85614440930776,0.032825569361521166
102.0,417.6851532264636,509.44361110185787,0.4979754866557242,20.89314441146912,0.032809648285475175
103.0,350.00895331471474,525.4284218806816,0.49781046121836126,20.930974444506763,0.032793601616117364
104.0,286.7983890459326,538.0663994897488,0.49764212870464436,20.96962737362998,0.03277742889851895
105.0,229.04383395311012,546.4991147522476,0.4974705380166531,21.00909590057482,0.03276112960340315
106.0,177.77061924762887,549.8623426255068,0.4972957388098613,21.04937256198345,0.032744703130679884
107.0,133.80820906328236,547.5129858191507,0.497117781479369,21.09044972763241,0.03272814881300404
108.0,97.56929316317786,539.2368404486554,0.4969367171462832,21.13231959860542,0.03271146591943476
109.0,68.93042162106038,525.3488899903182,0.496752597643729,21.17497420552496,0.032694653659209524
110.0,47.25887744632042,506.64840260430634,0.49656547550225943,21.21840540693398,0.03267771118573615
111.0,31.563953656089303,484.2559941720748,0.4963754039363756,21.262604887380373,0.03266063760046053
112.0,20.70712589380495,459.4028146331818,0.4961824368302067,21.30756415570559,0.032643431956929314
113.0,13.598710857239285,433.24443606252885,0.4959866287233835,21.353274543281007,0.032626093264883464
114.0,9.336026743986865,406.7418834014228,0.4957880347967578,21.39972720228587,0.032608620494417755
115.0,7.27260266696578,380.6160598627359,0.49558671085814204,21.446913103984464,0.03259101258017667
116.0,7.0319453704978905,355.35757165480885,0.4953827133279677,21.494823037035463,0.03257326842559022
117.0,8.487479789406159,331.2664794183348,0.49517609922494765,21.543447605812624,0.03255538690713194
118.0,11.727086091901612,308.50078773329767,0.4949669261517804,21.592777228727183,0.032537366878576286
119.0,17.013103671160874,287.12086055779145,0.49475525228053624,21.64280213667501,0.03251920717532879
120.0,24.74280662510746,267.1244406650196,0.4945411363383603,21.69351237140723,0.03250090661868813
121.0,35.409891466620294,248.47173881420713,0.4943246375929811,21.74489778399437,0.03248246402013955
122.0,49.56658273949372,231.10220938972603,0.4941058158382367,21.796948033320184,0.03246387818562955
123.0,67.7859973427205,214.94520103739455,0.4938847313795701,21.849652584627616,0.03244514791982243
124.0,90.62518839603067,199.92643902357793,0.49366144501961257,21.903000708074156,0.03242627203032209
125.0,118.58999098678814,185.97181544419334,0.493436018043634,21.956981477388197,0.03240724933187336
126.0,152.10324983173416,173.0095129280248,0.49320851220495704,22.011583768603735,0.03238807865052882
127.0,191.4781538436284,160.97116108983647,0.49297898971080534,22.066796258657877,0.03236875882773713
128.0,236.897834590326,149.7924007922794,0.49274751320678517,22.122607424704086,0.032349288724474456
129.0,288.40244652366806,139.41330313099425,0.4925141457648335,22.179005541810856,0.032329667225111
130.0,345.8851802762819,129.7786829226314,0.4922789508671439,22.23597868259531,0.0323098932413249
131.0,409.0910517684255,120.83825947298389,0.4920419923898869,22.293514717343864,0.032289965716219136
132.0,477.62432975737113,112.5473935075978,0.491803334592244,22.35160131129665,0.03226988362800463
133.0,550.9620864689308,104.8682040994662,0.4915630421011736,22.410225924121914,0.032249645993643744
134.0,628.4682052760812,97.77106491445149,0.4913211798948073,22.46937581059136,0.03222925187252234
135.0,709.4091625090425,91.23705847500938,0.4910778132912905,22.529038018056504,0.03220870037014289
136.0,792.9737027225839,85.26105894395882,0.49083300793237467,22.58919938711614,0.0321879906413536
137.0,878.2918783845487,79.85532139146618,0.4905868297705943,22.649846550311825,0.03216712189395196
138.0,964.4607134464959,75.05317832725282,0.4903393450540916,22.710965932338418,0.03214609339174283
139.0,1050.5744967992305,70.91219740549818,0.49009062031338724,22.77254374922448,0.03212490445792083
140.0,1135.76310323541,67.51627056982437,0.4898407223467242,22.83456600845642,0.03210355447794926
141.0,1219.2306147354384,64.97588220951289,0.48958971820651265,22.89701850865552,0.03208204290266794
142.0,1300.2835204867774,63.42629922271098,0.4893376751851071,22.9598868398408,0.03206036925104879
143.0,1378.3287929420735,63.0235954961384,0.48908466080124446,23.023156383212577,0.03203853311298385
144.0,1452.8198240596412,63.93833049903332,0.48883074278621313,23.086812311456793,0.03201653415192403
145.0,1523.1412901488382,66.34741882088092,0.4885759890700475,23.150839589170374,0.031994372107352766
146.0,1588.4493865497027,70.42469225120641,0.4883204677679109,23.215222973309434,0.03197204679717027
147.0,1647.518181528573,76.33082497797247,0.4880642471665794,23.27994701369846,0.031949558119982444
148.0,1698.6679915660118,84.20332353608345,0.4878073957110309,23.344996053629643,0.031926906057302626
149.0,1739.8469150573262,94.14740014683282,0.48754998199095306,23.4103542308307,0.03190409067553383
150.0,1768.8875991974046,106.22841914318678,0.48729207472735997,23.476005478459733,0.03188111212784351
151.0,1783.8857080856453,120.46629130686279,0.48703374275937567,23.541933526122495,0.03185797065597286
152.0,1783.5843656623656,136.8320178852549,0.4867750550312621,23.608121901057398,0.03183466659195335
153.0,1767.6454163991116,155.2469232166579,0.48651608057904416,23.674553929088425,0.03181120035981951
154.0,1736.702979649324,175.58408059251997,0.4862568885172355,23.741212737032388,0.0317875724765865
155.0,1692.2212098521634,197.67133954697053,0.48599754802665385,23.80808125415319,0.031763783553660455
156.0,1636.2223592798402,221.2964589497302,0.48573812834106683,23.87514221291325,0.03173983429857515
157.0,1570.9661735858024,246.21340322828527,0.48547869873435046,23.942378152606786,0.03171572551507636
158.0,1498.6802811884284,272.1489767069321,0.48521932850804744,24.009771419744737,0.031691458105104535
159.0,1421.3789969609747,298.81038880995084,0.4849600869783728,24.077304171727675,0.03166703306872166
160.0,1340.7750466447744,325.892804272354,0.4847010434640603,24.144958378509738,0.03164245150529425
161.0,1258.2638897046404,353.08766351001844,0.4844422672733785,24.212715825132683,0.03161771461413259
162.0,1174.9530468821304,380.0919077107497,0.4841838276922204,24.280558115309248,0.03159282369433909
163.0,1091.7048301428224,406.618827356355,0.4839257939711932,24.348466672959937,0.03156778014620075
164.0,1009.1828245699427,432.4100767725763,0.48366823531381975,24.416422746887424,0.03154258547021099
165.0,927.8867755698669,457.2483387439323,0.4834112208640413,24.48440741287275,0.03151724126809596
166.0,848.1808876627842,480.9670300443199,0.4831548196937702,24.552401577333235,0.03149174924271228
167.0,770.3192582253462,503.4521958343699,0.48289910079106524,24.62038598129765,0.0314661111976477
168.0,694.4763244823863,524.6307192191917,0.4826441330478343,24.688341203886274,0.031440329037318096
169.0,620.7907740581895,544.4395079736605,0.48238998524738397,24.756247666031413,0.03141440476698685
170.0,549.4229251393938,562.7779975910565,0.48213672605322766,24.82408563594737,0.031388340491101334
171.0,480.6211896044642,579.4505383699103,0.4818844239968141,24.89183523191747,0.031362138414233964
172.0,414.77917866194247,594.1174374327697,0.48163314746503066,24.959476427428033,0.031335800840089426
173.0,352.45946310688595,606.2794122873638,0.4813829646893312,25.02698905641091,0.03130933017018128
174.0,294.3682521682746,615.3093966443647,0.48113394373216967,25.09435281719805,0.031282728904264326
175.0,241.27084138887474,620.5410507409428,0.48088615247628086,25.161547278366207,0.0312559996386271
176.0,193.86756088913202,621.3922086927906,0.4806396586121076,25.228551883745094,0.031229145065587872
177.0,152.66225730635318,617.491363740719,0.4803945296260176,25.29534595802304,0.03120216797239285
178.0,117.86273908090551,608.7685347106737,0.4801508327880871,25.36190871236769,0.03117507124030794
179.0,89.34281252669058,595.4831215525203,0.4799086351403495,25.428219250493107,0.03114785784328264
180.0,66.67148834689839,578.186078314254,0.47966800348449873,25.49425657462821,0.03112053084696435
181.0,49.19648203839066,557.6313331382884,0.4794290043699105,25.559999591923074,0.031093093407329825
182.0,36.15367241953295,534.6664537563631,0.47919170408131295,25.62542712092442,0.031065548769466402
183.0,26.77485470977403,510.1304293099174,0.47895616862661927,25.690517898329094,0.031037900266165132
184.0,20.373757859335072,484.7776275925465,0.47872246372455984,25.755250585905248,0.031010151316533948
185.0,16.402024472645643,459.2345687723389,0.47849065479228636,25.819603777639227,0.03098230542452668
186.0,14.476344477679092,433.9863079378236,0.4782608069328753,25.883556007085684,0.030954366177431136
187.0,14.383164159784233,409.383994307183,0.47803298492278784,25.947085754930942,0.03092633724428682
188.0,16.06878409915045,385.66419850504724,0.47780725319892753,26.01017145673524,0.03089822237439341
189.0,19.620944340002833,362.97259448139357,0.4775836758460124,26.072791510931143,0.0308700253955843
190.0,25.246225117827812,341.3867532124605,0.47736231658360834,26.13492428700025,0.03084175021255704
191.0,33.24588107761852,320.9357144601432,0.4771432387529425,26.196548133856037,0.030813400805211468
192.0,43.99088669038002,301.6154349328302,0.4769265053036195,26.257641388440177,0.030784981226930186
193.0,57.896807177257635,283.4003215592751,0.4767121787802286,26.318182384525993,0.030756495602812645
194.0,75.39885962347078,266.2514759950368,0.4765003213087666,26.37814946172389,0.03072794812789268
195.0,96.9276475385532,250.12240120860605,0.4762909945828202,26.437520974691733,0.03069934306535872
196.0,122.88614240643341,234.96284438696577,0.47608425984961517,26.496275302548025,0.03067068474473234
197.0,153.6287415234294,220.72132145166003,0.47588017789588577,26.55439085847923,0.0306419775600299
198.0,189.44306124493562,207.34672773572493,0.47567880903359233,26.611846099537424,0.030613225967892396
