Time,J,A,S,tau
0.0,100.0,10.0,0.9950673217380087,29.495846530472033
1.0,99.99500427461267,9.04695708772823,0.9950634220132202,30.4936268621547
2.0,99.99033244941658,8.184629604768968,0.9950596866246659,31.491747547925208
3.0,99.98604326044796,7.404637734086835,0.9950561047008195,32.490028843745414
4.0,99.9820965495175,6.699113097749529,0.9950526669413895,33.488453595281136
5.0,99.97845673712044,6.06093471282067,0.9950493645537482,34.487006628217564
6.0,99.97509226352439,5.483667394683633,0.995046189229575,35.4856745048853
7.0,99.97197510458844,4.961490732503019,0.9950431331219111,36.48444531354351
8.0,99.96908032903026,4.489139414545698,0.9950401888191875,37.483308475917006
9.0,99.96638573714844,4.061855590228459,0.9950373493233073,38.48225459017371
10.0,99.96387152641378,3.6753330918929255,0.9950346080252571,39.48127528575778
11.0,99.96152000513645,3.325679422737911,0.9950319586821528,40.48036309918216
12.0,99.95931534832937,3.00937452534123,0.9950293953963347,41.47951136818281
13.0,99.95724337023053,2.723233183085933,0.9950269125924656,42.47871413324435
14.0,99.95529133818228,2.4643770670749383,0.9950245049982045,43.4779660570543
15.0,99.95344780145057,2.230201137294057,0.995022167624086,44.47726235052485
16.0,99.95170244103215,2.018349903433805,0.9950198957441966,45.476598707957656
17.0,99.95004594327592,1.8266936605067694,0.9950176848792143,46.47597125251896
18.0,99.94846988009209,1.6533045542810574,0.9950155307780627,47.4753764846563
19.0,99.94696661073434,1.4964409402284335,0.9950134294024078,48.474811239824554
20.0,99.94552919029428,1.3545258945482,0.9950113769106393,49.47427264917001
21.0,99.94415129051042,1.2261345791886566,0.9950093696431153,50.473758105544285
22.0,99.94282712932171,1.1099767652837333,0.9950074041080922,51.473265233312304
23.0,99.94155140788044,1.0048867600727247,0.995005476968199,52.472791861398676
24.0,99.94031925489618,0.9098090062519237,0.995003585027728,53.47233599950415
25.0,99.93912617634402,0.8237897881031019,0.9950017252203127,54.471895816651084
26.0,99.93796801098509,0.7459655095136032,0.9949998945973891,55.471469622236384
27.0,99.93684088972584,0.6755558623275413,0.9949980903169235,56.47105584875161
28.0,99.93574119955399,0.6118542868216781,0.9949963096328615,57.470653036472854
29.0,99.93466555018352,0.5542223424022763,0.9949945498847461,58.47025981932803
30.0,99.93361074425171,0.5020819459507698,0.9949928084879748,59.469874912289455
31.0,99.93257374938665,0.4549107316985946,0.9949910829241508,60.46949709958037
32.0,99.93155167295501,0.41223573762858073,0.9949893707319708,61.469125224029995
33.0,99.93054173805525,0.37362957958990123,0.994987669498156,62.46875817697129
34.0,99.92954126142364,0.338705316952763,0.9949859768487979,63.468394888957135
35.0,99.9285476321169,0.3071132973376672,0.99498429044072,64.46803432081528
36.0,99.92755829140248,0.2785369825010802,0.9949826079531143,65.46767545521928
37.0,99.92657071306986,0.25269034571901794,0.9949809270791854,66.46731728844323
38.0,99.92558238426733,0.22931447949646622,0.9949792455179144,67.46695882234084
39.0,99.92459078648588,0.2081754487010861,0.9949775609658412,68.46659905638802
40.0,99.92359337637095,0.18906153482824972,0.9949758711087929,69.46623697965224
41.0,99.92258756646399,0.1717814652718634,0.9949741736136615,70.46587156272905
42.0,99.9215707050187,0.1561621759208831,0.9949724661199325,71.46550174928433
43.0,99.92054005556726,0.14204735117172881,0.9949707462313173,72.46512644748282
44.0,99.91949277470641,0.12929560871065865,0.9949690115069154,73.46474452065803
45.0,99.918425889476,0.1177792965817085,0.9949672594525566,74.46435477779603
46.0,99.9173362719463,0.10738302204733814,0.9949654875114289,75.46395596282935
47.0,99.9162206132491,0.09800266169186946,0.9949636930549844,76.46354674367494
48.0,99.91507539358366,0.08954417100914559,0.9949618733728568,77.46312569955471
49.0,99.91389685151323,0.08192277152727799,0.9949600256631839,78.4626913079875
50.0,99.91268094769467,0.0750619898709446,0.9949581470216324,79.4622419294025
51.0,99.91142332772853,0.06889299255708704,0.9949562344309891,80.46177579134267
52.0,99.91011927748188,0.06335381323703339,0.9949542847491034,81.46129096944728
53.0,99.90876367741713,0.05838880788731784,0.9949522946976255,82.4607853679642
54.0,99.90735094668125,0.05394803252466163,0.9949502608486409,83.4602566958745
55.0,99.9058749852813,0.04998685666594001,0.9949481796121549,84.45970244214207
56.0,99.90432910641628,0.046465376585616176,0.9949460472221143,85.4591198467204
57.0,99.90270595833493,0.043348173040794136,0.9949438597212139,86.45850586702964
58.0,99.90099744432356,0.040603850885859265,0.9949416129471244,87.4578571435527
59.0,99.89919461878311,0.038204797935860964,0.9949393025145096,88.45716995515403
60.0,99.89728758236271,0.0361269579888772,0.994936923799425,89.45644017388055
61.0,99.89526536022892,0.034349515071119066,0.9949344719221251,90.4556632124527
62.0,99.89311575507124,0.032854786368580045,0.9949319417271388,91.45483396082113
63.0,99.89082518790988,0.0316280574417605,0.9949293277642955,92.4539467173434
64.0,99.88837852171511,0.03065745484899135,0.994926624269697,93.45299511244109
65.0,99.88575884818056,0.02993386840023756,0.994923825143611,94.45197201626888
66.0,99.88294725401957,0.029450916890178515,0.9949209239292707,95.45086943738241
67.0,99.87992251631927,0.029204972599249392,0.9949179137855675,96.44967839063058
68.0,99.87666087332059,0.029195253346323342,0.9949147874758111,97.44838879734392
69.0,99.87313559622878,0.029423547323936566,0.9949115373329996,98.44698929948807
70.0,99.86931661088383,0.029894753671856882,0.9949081552400072,99.44546709497793
71.0,99.86516999968532,0.030616918701197073,0.994904632601918,100.44380772093291
72.0,99.86065754533942,0.031601169544275116,0.9949009603310005,101.44199485467077
73.0,99.85573605023083,0.032862284889656035,0.9948971288152286,102.44001001723883
74.0,99.85035665222271,0.03441895194491738,0.9948931278982583,103.43783227486796
75.0,99.84446401766591,0.036294050417443866,0.9948889468587423,104.43543788671285
76.0,99.83799541149544,0.0385152411182057,0.994884574391462,105.43279989871586
77.0,99.83087964801204,0.04111545032165532,0.9948799985926722,106.42988768505691
78.0,99.82303583247612,0.044133530272577146,0.994875206946098,107.42666639801399
79.0,99.81437194423383,0.04761503955574179,0.994870186316373,108.42309634812557
80.0,99.80478327046924,0.051613073976396424,0.994864922951243,109.41913231857136
81.0,99.79415041553644,0.05618943006540452,0.9948594024841368,110.41472269376382
82.0,99.78233728685116,0.06141568663089546,0.9948536099570023,111.40980857674838
83.0,99.76918845427599,0.06737467886869636,0.9948475298449344,112.40432263228496
84.0,99.7545264353109,0.07416212058433405,0.9948411461043891,113.39818789636051
85.0,99.73814826734679,0.0818884300931043,0.9948344422326403,114.39131627309867
86.0,99.71982185193069,0.09068094087671108,0.9948274013530825,115.3836069306596
87.0,99.69928147196738,0.10068632925317693,0.99482000632294,116.37494433403863
88.0,99.67622290189856,0.11207348024692007,0.9948122398728281,117.36519609817452
89.0,99.65029761591329,0.12503686746461115,0.9948040847802716,118.3542104445928
90.0,99.62110615919649,0.1398002337854842,0.9947955240857529,119.34181328959981
91.0,99.58819075107938,0.15662078922920417,0.9947865413544698,120.32780499398676
92.0,99.55102664662671,0.17579426414743068,0.9947771209934866,121.31195656649135
93.0,99.50901223795576,0.1976603921122023,0.9947672486338582,122.29400531229143
94.0,99.46145813129425,0.22260899285418623,0.9947569115773653,123.27365002978173
95.0,99.4075745280837,0.25108723978205133,0.994746099324647,124.250545460716
96.0,99.34645681445846,0.2836075471765696,0.9947348041961894,125.22429595111775
97.0,99.27706990413624,0.32075600294112655,0.9947230220345478,126.19444856195065
98.0,99.19823044896681,0.36320231024352834,0.994710753012054,127.16048524046369
99.0,99.11436324709376,0.41982384661949906,0.9946980025614501,128.12181389900252
100.0,99.04688254876159,0.5191032281300039,0.9946847823618871,129.07775927338153
101.0,98.97621543709624,0.6321622703738448,0.9946711114848162,130.0275521110415
102.0,98.90299653140119,0.7609507152129636,0.9946570175881358,130.97031808066365
103.0,98.82816473490905,0.9076777810927558,0.9946425381963264,131.90506573935505
104.0,98.75304275613598,1.074839374203675,0.9946277220087227,132.83067405555764
105.0,98.67942992396503,1.265245908608328,0.9946126302026503,133.74587958502192
106.0,98.60970755025822,1.4820496989546394,0.9945973376598404,134.6492637487327
107.0,98.54695434735406,1.7287708818701726,0.9945819340338801,135.53924066360523
108.0,98.49506681693738,2.0093203432931204,0.9945665245465453,136.41404618816023
109.0,98.45887513359462,2.328017824955449,0.9945512303771707,137.2717289832288
110.0,98.44424120649677,2.6896031891679737,0.9945361884901085,138.11014446627578
111.0,98.45811683018358,3.0992383287849337,0.9945215507147416,138.92695276846325
112.0,98.50853265121198,3.5624971605927196,0.9945074818826689,139.719621821164
113.0,98.6044793183129,4.085340881054211,0.9944941568170858,140.48543682127686
114.0,98.75563372935521,4.674076119918088,0.9944817559878665,141.2215171202043
115.0,98.9718742382088,5.335293990052122,0.994470459660904,141.92484142929294
116.0,99.26253258085394,6.075788039739303,0.994460440454854,142.59228226644134
117.0,99.6353401514564,6.902452303085453,0.9944518543161582,143.22064913034876
118.0,100.09503577473927,7.822159488369911,0.9944448298558398,143.80674034048693
119.0,100.6416967545144,8.841623555263173,0.99443945659052,144.34740188940322
120.0,101.26882791079754,9.967249246387889,0.9944357718404034,144.83959194262528
121.0,101.96152207425767,11.2049816181101,0.9944337478859026,145.2804456562777
122.0,102.69476802168808,12.560151290945782,0.9944332781510969,145.66734167117053
123.0,103.43249634730523,14.037336431419416,0.9944341648226834,145.9979616320958
124.0,104.12766779887225,15.640246348438014,0.9944361078976951,146.27034034266785
125.0,104.72368251302967,17.371628592530698,0.9944386956432908,146.48290558501304
126.0,105.15738007378151,19.23321056149931,0.9944413975061471,146.63450299784978
127.0,105.36349834771413,21.22567625594596,0.9944435594295576,146.72440559266488
128.0,105.28019823681787,23.348678408183325,0.9944444015698358,146.75230782687137
129.0,104.85484887010004,25.600885839075886,0.9944430185450432,146.7183043157143
130.0,104.04907691339815,27.98005971598125,0.9944383817580184,146.62285592732366
131.0,102.84223097099846,30.4831494303553,0.9944293429351712,146.46674724063885
132.0,101.23274671432736,33.1063974446044,0.9944146370988237,146.251039649696
133.0,99.23620049798406,35.84547586010032,0.9943928911716414,145.97701222959512
134.0,96.8822517641897,38.69559006524899,0.9943626258190718,145.64611450193846
135.0,94.20947567076865,41.651600859522134,0.9943222613418595,145.25991312937256
136.0,91.26010179876509,44.708128967614336,0.994270121262191,144.82004552374636
137.0,88.07536552444364,47.85964861991409,0.9942044355768329,144.32817836218535
138.0,84.69211911404308,51.100566684286676,0.9941233423595327,143.7859725074205
139.0,81.1409934403104,54.42528774347396,0.9940248887791494,143.19505409358408
140.0,77.4459562285516,57.82826473134819,0.9939070311525675,142.55699202566706
141.0,73.62482722699953,61.30403800803203,0.9937676330898981,141.87328026613383
142.0,71.02544528101144,63.51505274722984,0.9940752103193377,35.920168176643955
143.0,66.55610700738424,67.56000889242834,0.994013260825848,27.827366287872536
144.0,60.437324649114316,73.20504704488631,0.9938268598446947,24.417080788249663
145.0,53.996347874173296,79.1182254142964,0.9935812051714962,22.29922008182247
146.0,48.06430653214869,84.46847352293456,0.9932930365251135,20.79204592394876
147.0,43.11473767199171,88.78551293551588,0.9929691357882847,19.638504413545274
148.0,39.318101272519954,91.9041938034343,0.9926127212267082,18.71377271971378
149.0,36.62011556006915,93.88486894561244,0.9922253853967007,17.94787174104388
150.0,34.83474013858142,94.9193234919648,0.9918078647610182,17.2977331279129
151.0,33.72909778941611,95.24518640987097,0.9913604017088423,16.73504030570907
152.0,33.08369924131199,95.08546674415645,0.9908829349356034,16.24025867911835
153.0,32.72367573113267,94.61740041609575,0.9903752095446087,15.799398155340688
154.0,32.52629747801495,93.96517432518007,0.9898368448982303,15.402145963957445
155.0,32.4141007321455,93.20708164720598,0.9892673799062902,15.040718719593277
156.0,32.34261574472185,92.38803773402559,0.9886663044089415,14.709130034315711
157.0,32.2867704564281,91.53334853400914,0.9880330826250757,14.402698932654175
158.0,32.2380039756582,90.65171668282696,0.9873671711971749,14.117721148780365
159.0,32.19076173658878,89.74882765509801,0.986668034927,13.851228144112582
160.0,32.1418173917778,88.82803533869318,0.9859351583461387,13.600816577579113
161.0,32.090171491689944,87.89048569517634,0.9851680573096637,13.364523979610544
162.0,32.035489019603126,86.93669154432173,0.9843662897114763,13.140738005894907
163.0,31.97758429324929,85.96705154529492,0.9835294643192648,12.928122620377449
164.0,31.916305684243454,84.98196596388581,0.9826572476526786,12.725559098972287
165.0,31.851509455569413,83.9818632879721,0.9817493749530403,12.532108250839729
166.0,31.783054017172667,82.96720983235818,0.9808056619593257,12.346983530622424
167.0,31.710798885706367,81.93850581167132,0.9798259983189904,12.169506656461564
168.0,31.634604796012695,80.89628930583572,0.9788103748515852,11.999104852426239
169.0,31.554334419196906,79.84113628478057,0.9777588754474923,11.835284081529593
170.0,31.469852368037756,78.77365401290805,0.9766716850341526,11.677613959804152
171.0,31.381027080947696,77.6944911644146,0.9755491117794803,11.5257266871001
172.0,31.28772976947837,76.60432176601037,0.9743915617357569,11.379293144121261
173.0,31.189837724562324,75.5038611364997,0.9731995850256518,11.238031130046194
174.0,31.087232185577452,74.39384704866083,0.9719738417152283,11.101685895348771
175.0,30.97980202646415,73.27505245026634,0.9707151264184624,10.970033033032104
176.0,30.867443270973823,72.14827625350264,0.9694243941383923,10.842874151310754
177.0,30.750057946079,71.01433762249565,0.9681026749308824,10.720024306606094
178.0,30.627562127490403,69.87409012721893,0.9667512378409916,10.601326145532907
179.0,30.49987491043982,68.72839438914578,0.9653713933911054,10.486627329171277
180.0,30.36693227814502,67.57814010413932,0.963964656704796,10.375794614502043
181.0,30.228681401820957,66.42423106815521,0.9625327117448337,10.268706436354298
182.0,30.08507486444446,65.2675773984252,0.961077279977476,10.16524505325889
183.0,29.93608994214519,64.10910872012181,0.9596003481099946,10.065308459669566
184.0,29.781710583112528,62.949758465745504,0.9581039875825105,9.968798673477698
185.0,29.621934003040458,61.790462771856255,0.9565903619547804,9.875623149224037
186.0,29.456783471559273,60.63216309092222,0.9550618765160477,9.785699583788452
187.0,29.286286171966704,59.47580035406783,0.9535209700673144,9.698947060518103
188.0,29.110492930791303,58.32230681523777,0.9519702296231882,9.615291028154367
189.0,28.92947607568597,57.17261155834105,0.9504124093229063,9.534662601494249
190.0,28.74331306630576,56.02763717052498,0.9488502846600742,9.456993960148699
191.0,28.552113998424275,54.88828300156103,0.9472867994836647,9.382223545381402
192.0,28.35600257505514,53.755444150693755,0.9457249813850812,9.310292355893713
193.0,28.15511421318757,52.62999519316242,0.9441678921297462,9.241143177134193
194.0,27.949620214719815,51.512779993884884,0.9426187274945784,9.17472394815611
195.0,27.73969865835959,50.4046379890948,0.9410807109165154,9.11098356001227
196.0,27.525550343394514,49.30636793460738,0.9395571066497561,9.049873635032643
197.0,27.307408157803504,48.21874201508697,0.938051243523439,8.991349299377209
198.0,27.08550953546898,47.14252151995009,0.9365664565400055,8.935366211596072
199.0,26.8601268856298,46.0784099266128,0.9351060910206224,8.881883344857302
200.0,26.63155669491428,45.02709661444452,0.9336734973494193,8.830861624960946
201.0,26.400103271275146,43.98924222607511,0.9322720196008957,8.782262805319798
202.0,26.16611654646855,42.96544911445897,0.9309049459480255,8.736051938641179
203.0,25.929960670047226,41.956314886773114,0.9295755453108644,8.692194927091833
204.0,25.692018220319365,40.96238513906043,0.9282870427953738,8.650659189811982
205.0,25.452720747457725,39.98416632248475,0.9270425420653942,8.611414785774778
206.0,25.21250652281647,39.02215734372036,0.9258451282426484,8.574432172775955
207.0,24.971847249860584,38.07679194589241,0.9246977633596529,8.539683961914632
208.0,24.731257520770722,37.14849159194839,0.9236032632530349,8.507144480802422
209.0,24.491255085492437,36.23765547752019,0.922564418829637,8.476788533477936
210.0,24.252403506535973,35.34462789358277,0.9215837950562368,8.448593374993822
211.0,24.015295575403663,34.46976054927877,0.9206638365105827,8.422537135401775
212.0,23.780528775411636,33.61336556515097,0.919806903054296,8.398598947179654
213.0,23.548742286110386,32.77573592868226,0.9190150863514377,8.37675996236869
214.0,23.32058229073465,31.957159132934027,0.9182904051446955,8.357001866135281
215.0,23.096710020347018,31.157896906450468,0.9176346214964942,8.339308188070458
216.0,22.877804597622948,30.378222186307184,0.9170493524807218,8.323663226652148
217.0,22.66452948443487,29.618381068366613,0.9165360251006035,8.310052660836588
218.0,22.4575636003857,28.87864156659045,0.9160958163526757,8.298463392890998
219.0,22.257555789490937,28.159252054551743,0.9157297912670878,8.288883156920363
220.0,22.065137666797938,27.460481404779514,0.9154386902236861,8.281301296441663
221.0,21.880920422105195,26.782598111361633,0.9152231613751831,8.275707670336452
222.0,21.705442676775444,26.125873739078294,0.9150835438390081,8.272093790306963
223.0,21.539231233235107,25.49060326209789,0.9150200202352311,8.270451780414971
224.0,21.38270299486177,24.877066704876164,0.9150325542596351,8.270775067249762
225.0,21.23623626011556,24.28557738937375,0.9151208537627131,8.273058082007807
226.0,21.100102965437173,23.716427052102688,0.9152845112292279,8.27729605006141
227.0,20.974464812875194,23.16992756868952,0.9155227768436485,8.283485682317023
228.0,20.859442522898178,22.646390812896996,0.9158348317315228,8.291624026224934
229.0,20.754940706650267,22.146093793143965,0.9162195869751917,8.301709675811814
230.0,20.660831134106587,21.669331883362663,0.9166757214887742,8.313742060820248
231.0,20.576865158907676,21.216371462688492,0.91720186447904,8.327721086801104
232.0,20.502571761615606,20.787421150693643,0.9177963241010066,8.343648388665319
233.0,20.437495643519878,20.38269213358448,0.9184572871522555,8.36152600603001
234.0,20.3809821987164,20.00233130113883,0.9191828304665522,8.381356884019674
235.0,20.332274905411484,19.646417503595135,0.9199707979104151,8.403145228884023
236.0,20.290533186237134,19.314987500513155,0.9208189565857221,8.426895793025187
237.0,20.254833051841597,19.007977243352997,0.92172488294927,8.45261457698302
238.0,20.224200951566417,18.725275333045424,0.9226860830578882,8.480308107483731
239.0,20.197604907523566,18.46664200437504,0.9236999092724166,8.509984179827349
240.0,20.174021656579466,18.23178387569616,0.9247636486889265,8.541651105916857
241.0,20.152404440568567,18.020269134567947,0.9258744770008933,8.57531842864553
242.0,20.13177576586842,17.831600555571622,0.9270295101802087,8.61099626173825
243.0,20.111174547138134,17.665149747587165,0.9282257934871474,8.648695864161242
244.0,20.089767147084018,17.520211429018467,0.9294603232352532,8.68842917094675
245.0,20.066768133795136,17.39597211673398,0.930730059523964,8.730209145181869
246.0,20.041574714658914,17.291535601443375,0.9320319318749388,8.774049576513432
247.0,20.013656212881884,17.20592902209311,0.9333628596258347,8.81996514588677
248.0,19.98266188375145,17.138109961603817,0.9347197565345915,8.867971446183107
249.0,19.94837476365159,17.086980314132852,0.9360995478136364,8.918085052627612
250.0,19.91072811322367,17.051406364838943,0.9374991747965572,8.970323344465163
