Time,J,A,S,tau,r
0.0,1.0,1.0,0.7369108864276758,37.03703703703704,0.0
1.0,0.9982344652400834,0.6065274333150424,0.7356253152287514,38.03448562116885,-0.005
2.0,0.9965246825710934,0.3678752118322307,0.7343795410396388,39.03213816331366,-0.005000000000000001
3.0,0.99483736246359,0.22312616537102167,0.7331494818611027,40.029921499719194,-0.005000000000000001
4.0,0.993171333226682,0.13533203233281513,0.7319343056720918,41.02783121727767,-0.005000000000000001
5.0,0.991525368460478,0.0820825026805209,0.7307332090337618,42.02585141821623,-0.005000000000000001
6.0,0.9898984381261289,0.04978524513194279,0.7295455321520711,43.023966248194526,-0.005000000000000001
7.0,0.9882893629350133,0.030196090621269805,0.7283704476567142,44.02216932226009,-0.0049999999999999975
8.0,0.9866971270952641,0.018314737601889383,0.7272072913797569,45.02044707125178,-0.004999999999999995
9.0,0.9851206931123446,0.011108381938919255,0.7260553557500229,46.01879040376005,-0.004999999999999989
10.0,0.9835589823705255,0.006737531129046276,0.7249139007014336,47.017190523212356,-0.0049999999999999845
11.0,0.9820110875241402,0.004086493861545046,0.7237822216272806,48.015653780856,-0.00499999999999998
12.0,0.9804759491343505,0.0024785684333785557,0.7226597087257902,49.01415182091597,-0.0049999999999999776
13.0,0.9789526713390552,0.0015033181476852755,0.7215455977822096,50.01270233472849,-0.004999999999999975
14.0,0.977440312675388,0.0009118029715238749,0.7204393441264065,51.01128048762978,-0.004999999999999972
15.0,0.9759379033701004,0.0005530329153432157,0.7193402286508326,52.009887179271374,-0.004999999999999971
16.0,0.9744446220464237,0.0003354293433131359,0.7182475589380952,53.008537279271295,-0.004999999999999969
17.0,0.9729594934504376,0.0002034469145850632,0.7171608619294184,54.00718944339363,-0.004999999999999968
18.0,0.9714817057546752,0.00012339600509428668,0.7160793420573048,55.005877118492485,-0.004999999999999966
19.0,0.970010380580534,7.484300259689891e-05,0.7150025224950451,56.00457154626341,-0.004999999999999965
20.0,0.9685446028518746,4.539426660602667e-05,0.7139297095550547,57.003276037250714,-0.004999999999999964
21.0,0.96708361875028,2.7532800932783593e-05,0.7128603826671686,58.00198468960071,-0.004999999999999964
22.0,0.9656267233271564,1.669934481635395e-05,0.7117940175949206,59.000698325061414,-0.0049999999999999645
23.0,0.9641728235069581,1.0128561517234637e-05,0.710729751235632,59.99942677203213,-0.004999999999999966
24.0,0.9627214644420615,6.14319977587611e-06,0.7096671935072083,60.998179473062486,-0.00499999999999997
25.0,0.961271315614546,3.7259711382312236e-06,0.7086059259557073,61.99686027971495,-0.00499999999999997
26.0,0.9598215696677731,2.2598585924833834e-06,0.7075449867303847,62.99553175372443,-0.004999999999999971
27.0,0.95837023417599,1.3706346727354972e-06,0.7064826993186839,63.99422949150163,-0.0049999999999999715
28.0,0.9569200841492722,8.312993589201759e-07,0.7054204768217442,64.993062450448,-0.004999999999999974
29.0,0.9554647774116963,5.041919164480375e-07,0.704355031388456,65.99179220447284,-0.004999999999999975
30.0,0.9540101990261233,3.057992754339041e-07,0.7032900971083724,66.99052256368697,-0.0049999999999999776
31.0,0.9525515028656811,1.8547191761477982e-07,0.702222639327026,67.98916057841429,-0.004999999999999978
32.0,0.951088437709339,1.1249159206005694e-07,0.7011521126530045,68.98776813417288,-0.004999999999999979
33.0,0.9496205299187939,6.822794122587596e-08,0.7000781393361049,69.98635002590076,-0.00499999999999998
34.0,0.9481467740960896,4.138130759837892e-08,0.699000030905846,70.9848969590295,-0.00499999999999998
35.0,0.9466663658602619,2.5098411137417017e-08,0.6979172187883058,71.98340449562822,-0.00499999999999998
36.0,0.9451785143792258,1.5222582929659115e-08,0.6968291418236895,72.98186861177159,-0.004999999999999982
37.0,0.943682414667886,9.232739141626215e-09,0.6957352210718004,73.98028653198993,-0.004999999999999982
38.0,0.9421771351702369,5.599806780533771e-09,0.6946347834572362,74.97865559817947,-0.004999999999999984
39.0,0.9406620455445175,3.396371225149418e-09,0.6935273027892123,75.97698627989226,-0.004999999999999986
40.0,0.9391359472371552,2.059954108599969e-09,0.6924121646473107,76.97523116380998,-0.004999999999999986
41.0,0.9375981646299013,1.2493949858734276e-09,0.6912887617763269,77.97340892330526,-0.004999999999999986
42.0,0.936047657097015,7.577783102879808e-10,0.6901565096441408,78.9714870412818,-0.004999999999999987
43.0,0.9344836447894452,4.5960469413501307e-10,0.6890147958426668,79.96947153446995,-0.004999999999999987
44.0,0.9329051093911447,2.7875772760777604e-10,0.6878630424929619,80.96733134411657,-0.004999999999999988
45.0,0.9313112165532234,1.6907105194420396e-10,0.6867006112576728,81.96506982889682,-0.004999999999999989
46.0,0.929700928704913,1.0254436097317288e-10,0.6855269341788406,82.96265137705416,-0.004999999999999989
47.0,0.92807338015974,6.219481154314222e-11,0.6843413525365474,83.96007866555682,-0.0049999999999999906
48.0,0.9264274854746386,3.7722179682574466e-11,0.6831433273445131,84.95730432307754,-0.00499999999999999
49.0,0.924762370557224,2.2879110951959725e-11,0.6819321575915759,85.95433716281413,-0.004999999999999992
50.0,0.9230768631705086,1.3876563192034425e-11,0.6807073827796734,86.95110397640046,-0.004999999999999992
51.0,0.9213701059678064,8.416359382441825e-12,0.679468194743092,87.9476345155139,-0.004999999999999993
52.0,0.9196408523891911,5.104663658384726e-12,0.6782142928166723,88.94381658744322,-0.004999999999999994
53.0,0.9178881967381652,3.096061388685532e-12,0.6769447680533665,89.93969115241391,-0.004999999999999993
54.0,0.9161108885352462,1.8778133388237426e-12,0.6756594202023649,90.93512653246377,-0.004999999999999994
55.0,0.914308051397173,1.9174873808763745e-12,0.6743583875029179,91.92997868898904,-0.004999999999994084
56.0,0.9112835838311322,0.0009540924495936285,0.6730382280856638,92.92432907116759,-0.0049935676283448084
57.0,0.9076646023097085,0.0020487269971956263,0.6717028584930995,93.91795904645353,-0.004984838925205069
58.0,0.9034861024558066,0.0032339256433690515,0.6703494814682271,94.9108730383854,-0.0049744164383725255
59.0,0.898740042354106,0.004514125474790763,0.6689781976040842,95.90297218164669,-0.004962625969462558
60.0,0.8933969189854526,0.0059097372008041224,0.6675883143977662,96.89413079698618,-0.004949689133100027
61.0,0.8874082658625183,0.007455740331188753,0.6661801749895979,97.88419492675466,-0.004935732961191174
62.0,0.8807176800024973,0.009184480909984008,0.664752960263825,98.8730277920731,-0.00492087778868054
63.0,0.8732571945671374,0.011135476545407119,0.6633070789026251,99.86042054842387,-0.004905206916584375
64.0,0.8649476807499472,0.013353178220474545,0.6618425459910271,100.84617044490139,-0.004888782465709601
65.0,0.8557003832495772,0.015885685783956223,0.6603594158453011,101.83003788576421,-0.004871657806414166
66.0,0.8454144902171042,0.018791501554728852,0.6588582525388516,102.81172352737373,-0.004853859516131043
67.0,0.833980908082125,0.022131829654251468,0.6573393802011371,103.79092480329953,-0.004835417271001513
68.0,0.8212808853491902,0.025977325717995072,0.6558036141978107,104.76727421819793,-0.004816348039198129
69.0,0.8071875113367123,0.03040670582198687,0.6542520486422594,105.74034977956607,-0.004796662902148986
70.0,0.791566261228132,0.035511800248242964,0.652685657688394,106.7097016826599,-0.004776355874034416
71.0,0.7742807491433638,0.041387866890713054,0.6511060180147721,107.67479114279772,-0.004755430180041473
72.0,0.7551933099824779,0.048148424855834794,0.6495146732882202,108.63505336326959,-0.004733866299854458
73.0,0.7341731006895241,0.05591103217538212,0.6479135895354682,109.58984020178627,-0.004711649041192784
74.0,0.7111019394232887,0.06480254896606141,0.6463051781262785,110.53841804716632,-0.004688759779617864
75.0,0.6858833227021696,0.07496524684213338,0.644691772011963,111.48003972073656,-0.004665165064367423
76.0,0.6584543235195855,0.08654258889038709,0.643076516282369,112.41381548224942,-0.004640835201324564
77.0,0.6287974134251332,0.09968075495551192,0.6414622686237976,113.33887358966865,-0.004615739344914354
78.0,0.5969558661055376,0.11453203685466452,0.6398519803237339,114.2542972546355,-0.004589841439924893
79.0,0.5630500475092545,0.13124335751442745,0.6382487609011434,115.15913135885039,-0.004563108682100349
80.0,0.5273002196897717,0.1499733648008062,0.6366558121516069,116.0523833571038,-0.0045354950768105445
81.0,0.49004070855433324,0.17086030273262653,0.6350762606100185,116.93307085269639,-0.004506967550431702
82.0,0.45174155054132176,0.19403380255979377,0.6335130942636451,117.8002082003875,-0.00447749265935896
83.0,0.41302336326859956,0.21961162494664246,0.6319692095343229,118.65281450092387,-0.0044470443786210805
84.0,0.37469020138782716,0.24772092551795927,0.6304476652536328,119.48986684193517,-0.004415586164980363
85.0,0.3377280938303956,0.27844932915853227,0.6289501260499172,120.31057079640189,-0.004383101153631513
86.0,0.30333284372277314,0.31189237888203236,0.6274782739088454,121.1141305632842,-0.004349570292054996
87.0,0.27293448548070637,0.348155999355096,0.6260343949503641,121.8996175969621,-0.0043149719341216706
88.0,0.24820483951492636,0.3873268787323512,0.6246190460430772,122.66640340928745,-0.004279293512379821
89.0,0.2310634788022852,0.42948572636438304,0.62323320245114,123.4137847653625,-0.004242530613779596
90.0,0.22370256521447746,0.4747317301252346,0.6218769195683569,124.14119765282867,-0.004204679641894863
91.0,0.22861982047059493,0.5231970349047043,0.6205505584302093,124.84804074547712,-0.004165734175361065
92.0,0.24863588092924846,0.5750263632859534,0.619253632857589,125.53383730448216,-0.004125691041339777
93.0,0.2868784401834066,0.6303315049241408,0.6179856725529743,126.19810789540134,-0.004084560861664879
94.0,0.3468985820165943,0.6893909274922821,0.6167460113038284,126.84035134027175,-0.004042331988553242
95.0,0.4326133652057653,0.752385807779593,0.6155334542511982,127.46023794880249,-0.003999015240382853
96.0,0.5484532679534652,0.8196381279105491,0.6143473841319553,128.05722359731402,-0.003954604562303175
97.0,0.6993404844168528,0.8914853552098421,0.6131864401437568,128.63096316043192,-0.003909100682666027
98.0,0.8908254377564515,0.9684112882167946,0.6120493667404665,129.18104092457315,-0.003862493756167155
99.0,1.1291616175839048,1.0509415073097375,0.610934805166088,129.7070945121538,-0.003814775881042884
100.0,1.4213698517555278,1.1396510406733487,0.609841729393314,130.2086082021715,-0.003765941895816279
101.0,1.7754629849740982,1.235386196018409,0.6087687598387667,130.68515602679742,-0.0037159705592849073
102.0,2.2006504204814243,1.3391424144714137,0.6077146173057539,131.13628708345115,-0.0036648371557710395
103.0,2.707468331540213,1.452099933083027,0.6066781434054501,131.56151072320858,-0.003612515738225466
104.0,3.3082724302306645,1.575893080521898,0.6056581923909315,131.96031408893293,-0.0035589617322309185
105.0,4.017644547481931,1.7125502189579662,0.6046537004842304,132.33214533961754,-0.003504123142893298
106.0,4.85312914443069,1.8648599696362351,0.6036636672299514,132.67643097655946,-0.0034479261810150827
107.0,5.836424647111945,2.0369753316648236,0.6026871293706306,132.99257623237338,-0.0033902574251042134
108.0,6.9953442256588065,2.2351087638109233,0.6017233364760789,133.27992035555053,-0.0033309519881024774
109.0,8.368411918925812,2.4714543017074666,0.6007715097084655,133.5377995827444,-0.003269672424832528
110.0,10.025521782014875,2.791136802292352,0.5998310436122827,133.76549860943226,-0.00320508726888309
111.0,12.067700556814774,3.1706868701287916,0.598901331192565,133.96228242348752,-0.0031382895327761525
112.0,14.496068726783996,3.558348853270631,0.5979819458311679,134.12736940899305,-0.003071222030560972
113.0,17.33477874227992,3.954116107648261,0.5970725262895712,134.25994689767577,-0.003003857020042809
114.0,20.607943394391423,4.3579728028997495,0.5961726761649178,134.35919486381283,-0.002936167496520702
115.0,24.339462623231793,4.769918414192489,0.5952821992897736,134.42424068499864,-0.002868125029484673
116.0,28.552921115735774,5.18993346957176,0.5944007573230494,134.45422149746582,-0.002799702744321174
117.0,33.27135497426083,5.617992194639063,0.5935280369981871,134.4482619745713,-0.0027308742328571506
118.0,38.517142953335615,6.054043300143515,0.5926635201201264,134.40550913890604,-0.002661615140593112
119.0,44.31174166910324,6.498037110980263,0.5918067574627968,134.32508316391676,-0.0025919008544682165
120.0,50.67552263636914,6.9498693274441266,0.5909568789955264,134.20618229581189,-0.0025217112402462338
121.0,57.62756612744059,7.409385636497749,0.5901126412447362,134.04807673562445,-0.002451030221300226
122.0,65.18536718574939,7.876396126756144,0.5892724739890665,133.8500822397248,-0.002379844471193739
123.0,73.36466514938033,8.35063200421119,0.5884342201189751,133.61164417806285,-0.0023081470114974093
124.0,82.17916498622108,8.831772734205295,0.5875952218861694,133.33228752486397,-0.0022359348467286366
125.0,91.64017124135987,9.319410950645976,0.5867521483745756,133.01168791746377,-0.002163211905079158
126.0,101.75676825041621,9.813056238236358,0.5859008748780279,132.6496627654052,-0.002089988474790374
127.0,112.53497091574152,10.31214595758349,0.5850367116434033,132.2461596996015,-0.0020162805332129227
128.0,123.97784340432067,10.816030645398559,0.5841542381435101,131.80128523356566,-0.0019421108073003081
129.0,136.08529236341465,11.324000855772299,0.5832474635303757,131.31525551386494,-0.0018675065779035374
130.0,148.85369174664925,11.835282346560067,0.5823099168245384,130.78841312731114,-0.0017925002684430803
131.0,162.51603178933513,12.00139833850637,0.668772143522372,53.361328474307754,-0.0014439357806261316
132.0,176.34304489272634,12.078317990892549,0.6850572123107022,43.66027945186872,-0.0012857554676727304
133.0,190.18977765549266,12.42659988173804,0.6911874019268418,39.486376535249484,-0.0011682088826419834
134.0,204.3456899736722,13.083414519929528,0.695166399430217,36.428506844047504,-0.0010575018300832747
135.0,219.09290018321536,14.12334688397367,0.698765531872778,33.64567070621674,-0.0009459225764121144
136.0,234.82813827129692,15.54161147490372,0.7007686511839647,31.63583569632187,-0.000838967297288327
137.0,251.91171628448308,17.396580706188026,0.7013789083142807,30.268741023517887,-0.0007360118968368019
138.0,270.50074956013617,20.012590185835275,0.7029701482959907,28.530630357473328,-0.0006267898442319913
139.0,290.9637111932713,23.59286715465973,0.7033065456671518,27.368911871421343,-0.0005213438799627325
140.0,313.72223859206196,28.27602257413539,0.7034347657686726,26.24057097348502,-0.0004160170852226556
141.0,338.89947506285205,34.06253713389871,0.7034514171337818,25.17275233593479,-0.0003099839388468065
142.0,366.2330050195038,40.86857854123154,0.7032114840681493,24.24370001787769,-0.00020383566327277224
143.0,395.02465653703814,48.64328326620002,0.7028381193922038,23.360077896623245,-9.778923989909754e-05
144.0,424.40747211313817,57.22967821678504,0.7020662267421366,22.504031145069842,6.653473275901623e-06
145.0,453.24768133065066,66.59716305834965,0.7010214264907851,21.713909293345214,0.000110196423788213
146.0,480.54494045798157,76.54748860767634,0.6996460823590638,21.29866152811309,0.00021346662044025017
147.0,504.994458023452,87.27126875784367,0.6980344068050232,20.58282428107202,0.00031509135832662915
148.0,525.9451005164619,98.47350675858623,0.696379545722097,20.203152914516277,0.0004170718758389425
149.0,542.4713865142784,110.3267907350525,0.6943715101536772,19.587103595456025,0.0005172730432976397
150.0,554.3778362318687,122.51389598765013,0.6926219127023162,19.276078851720055,0.0006184469160631156
151.0,561.8977859362186,134.57756922535864,0.690067143107645,18.704510064677784,0.0007164719283345448
152.0,565.0404727500012,146.55990737349362,0.6881579372948994,18.434314402968983,0.0008162677438230568
153.0,563.0128176524172,159.30751769499253,0.6856831497731468,18.08565183159804,0.0009148171732622832
154.0,555.2160581186029,173.4049714320985,0.6828753966526148,17.65059073452864,0.001011954777228406
155.0,541.6204059866028,188.89702898321482,0.680846497303866,17.430466792469034,0.0011094332646157858
156.0,520.8291239830922,207.24793041271815,0.678279007335319,17.162951352575185,0.0012067289658510335
157.0,491.87092605381906,229.49009531399383,0.6750599759162415,16.755205481404996,0.0013014372502688654
158.0,456.7098163757031,253.98444419920432,0.6725874302120106,16.54251338962326,0.0013973206865689725
159.0,416.9388976361121,279.81375379282673,0.6703992510261275,16.364393898686497,0.0014913917534522952
160.0,371.74433921471655,308.49541586490227,0.6674601750464925,16.12033437871552,0.0015858466658868117
161.0,322.3476299214779,339.43834266079733,0.6640479369128492,15.789804570321616,0.0016781599421169648
162.0,276.6583331815909,365.43086842764137,0.6612575951271624,15.601108529264597,0.0017709846689797578
163.0,234.8189408481574,386.9239616765396,0.6589822005969505,15.457063981123232,0.0018611057111212756
164.0,195.9905148974237,405.1200223221953,0.6564723538190723,15.308769539731358,0.001950904110526972
165.0,158.43983856415178,421.9781843155237,0.6532932930160827,15.105269102298431,0.0020409443380964326
166.0,122.04506545194201,437.7573435345437,0.6497713903576591,14.847738093198164,0.0021291306790126173
167.0,94.05236643468118,445.3659210600762,0.6466317385262353,14.679023616928637,0.0022172198109717657
168.0,71.62354823259452,447.77874878164937,0.6440176721568118,14.558998206436364,0.0023026472152188355
169.0,53.04647228198875,446.7877766302263,0.6416674136295334,14.45241598592513,0.002386057995727085
170.0,38.01938236392898,442.7494114703993,0.6391256819836061,14.34578273690408,0.002468800639144034
171.0,26.173448204571777,436.07497088582767,0.6361567929111326,14.224069698091123,0.0025516583450614586
172.0,16.67222343540814,427.63590888988966,0.6328040897675116,14.066182258375774,0.0026338221640296966
173.0,9.600465607648532,417.37988574147124,0.6293215905577484,13.892465254464577,0.0027144947529810608
174.0,6.1708944477225405,404.13703145585674,0.6260263117880991,13.761639592313257,0.0027943107120632325
175.0,4.6209539257073144,389.71161747601764,0.6230355557182283,13.666799011097313,0.0028721622856127268
176.0,4.05835861898728,375.0288352409459,0.6203551456704128,13.588892410286196,0.0029477984618882973
177.0,4.187899191349492,360.4151785208461,0.6179209971925094,13.51839249469713,0.003021694209420944
178.0,4.876796715428908,346.03712890859396,0.615570642623011,13.451744131504036,0.0030942772749646377
179.0,6.0697817643532295,331.9876960524169,0.6131256927315141,13.387545679122306,0.0031658375191929915
180.0,7.752139756062482,318.32407871411436,0.610501147556532,13.324022487305712,0.0032365801482101713
181.0,9.922552069038876,305.0943529884241,0.6077049036419032,13.258440213691854,0.003306615029195435
182.0,12.602243042440959,292.3276791105743,0.6047818706807657,13.187792076381188,0.0033758847197356283
183.0,15.821825098194132,280.04668060024414,0.6017842791930604,13.11042042060358,0.003444155615353445
184.0,19.61195039083,268.27570487178167,0.5987685736464554,13.02874261867126,0.003511209238942325
185.0,24.04306280028606,256.999644449656,0.5957923101909243,12.950146854066396,0.0035770341547228016
186.0,29.205568326178742,246.18201935370845,0.592901574298567,12.881531747832053,0.0036416808406571576
187.0,35.136492031265114,235.83572105267515,0.5901227666563461,12.824576158566096,0.0037050937723894233
188.0,41.85589539697264,225.98294974495363,0.5874669247032528,12.777524670872415,0.003767188521702338
189.0,49.379744364741995,216.63941316048545,0.5849376846249564,12.737972306033253,0.0038279477837711703
190.0,57.71188078163721,207.8189036395387,0.5825378879820683,12.703894079193779,0.003887418695824573
191.0,66.8377651560678,199.5368133923282,0.5802691315098444,12.67384128287764,0.003945675627924104
192.0,76.72006151246605,191.81158714031133,0.5781312954204879,12.646823458212292,0.0040027957138476155
