Time,J,A,S,tau
0.0,100.0,10.0,0.8548177025747431,2.272727272727273
1.0,90.72122995383214,12.445551491004213,0.8324819034001532,2.272727272727273
2.0,81.33755912654851,14.553856378972995,0.810558853623469,2.272727272727273
3.0,72.61226105438094,16.00212655603982,0.8044778847123076,2.272727272727273
4.0,65.33949218990281,16.396902100291328,0.8041245129761606,2.272727272727273
5.0,59.305187055020575,16.160089022041806,0.8037876388399439,2.272727272727273
6.0,54.19472014265772,15.672129859266509,0.8034674337251393,2.272727272727273
7.0,49.73605434080147,15.184442799272015,0.8031640609501669,2.272727272727273
8.0,45.748901812457134,14.809597915156669,0.8028776755899167,2.272727272727273
9.0,42.11100092097988,14.58083511838278,0.8026084243358794,2.272727272727273
10.0,38.746657532948255,14.484581113005,0.8023564453693697,2.272727272727273
11.0,35.618199395539136,14.483288678978015,0.8021218682433037,2.272727272727273
12.0,32.7148321129966,14.532970703925892,0.8019048137668631,2.272727272727273
13.0,30.03863980356957,14.596191418872563,0.8017053938989605,2.272727272727273
14.0,27.592235243612425,14.648924128401653,0.8015237116564528,2.272727272727273
15.0,25.37176575480836,14.681165387591069,0.80135986100984,2.272727272727273
16.0,23.365525249886662,14.693307964312929,0.8012139267921093,2.272727272727273
17.0,21.55604475047248,14.691182529541186,0.8010859846634436,2.272727272727273
18.0,19.92330717496146,14.681872278247607,0.8009761009911798,2.272727272727273
19.0,18.447498718041338,14.671172641287964,0.8008843328427466,2.272727272727273
20.0,17.110704215835444,14.662619564320163,0.8008107279179116,2.272727272727273
21.0,15.897652995682707,14.657581140168311,0.8007553244671245,2.272727272727273
22.0,14.795661775601312,14.65590594030686,0.8007181513056018,2.272727272727273
23.0,13.794174740086476,14.65666585991906,0.8006992277935234,2.272727272727273
24.0,12.884200881956307,14.658766092504091,0.800698563770581,2.272727272727273
25.0,12.057808261051678,14.661320301470019,0.8007161595697951,2.272727272727273
26.0,11.30775422609974,14.66379249580124,0.8007520060467751,2.272727272727273
27.0,10.627288189929326,14.665980897976908,0.800806084557958,2.272727272727273
28.0,10.010093312296712,14.667917469067874,0.8008783669554372,2.272727272727273
29.0,9.450278687777171,14.669750063189792,0.800968815659349,2.272727272727273
30.0,8.942398137647809,14.671649132201887,0.8010773836861083,2.272727272727273
31.0,8.48147484542603,14.673751092428727,0.8012040146463124,2.272727272727273
32.0,8.063001214656747,14.676137748977016,0.8013486428213858,2.272727272727273
33.0,7.68291253005439,14.678840431363248,0.8015111932401616,2.272727272727273
34.0,7.3375483063562115,14.681855831356888,0.8016915817338722,2.272727272727273
35.0,7.023611702195126,14.68516411394239,0.8018897149934905,2.272727272727273
36.0,6.738128822830045,14.688743272511557,0.8021054906531816,2.272727272727273
37.0,6.478409929320249,14.6925774381834,0.802338797401042,2.272727272727273
38.0,6.242014796375921,14.696659803445502,0.8025895150684241,2.272727272727273
39.0,6.026726937575047,14.700991854830066,0.8028575147454804,2.272727272727273
40.0,5.830536468274787,14.705580851442058,0.8031426588634215,2.272727272727273
41.0,5.651618562027611,14.710437035223167,0.803444801346068,2.272727272727273
42.0,5.488318679223697,14.71557147738927,0.8037637877256052,2.272727272727273
43.0,5.3391365377283915,14.720994834487728,0.8040994552917644,2.272727272727273
44.0,5.20271797427247,14.7267169180879,0.8044516331938224,2.272727272727273
45.0,5.077836320477487,14.732746831709042,0.804820142629746,2.272727272727273
46.0,4.963381099091,14.739093342461839,0.8052047970046239,2.272727272727273
47.0,4.85835113614203,14.745765307300005,0.8056054020332696,2.272727272727273
48.0,4.761839727342515,14.752771969866593,0.8060217559737883,2.272727272727273
49.0,4.673026613367915,14.760123131309436,0.8064536497870297,2.272727272727273
50.0,4.591170086698249,14.76782920126849,0.8069008672750076,2.272727272727273
51.0,4.515600523598148,14.775901169596748,0.8073631853527555,2.272727272727273
52.0,4.445712599574643,14.784350541555954,0.8078403741664621,2.272727272727273
53.0,4.380962020334518,14.793189318616044,0.8083321971968663,2.272727272727273
54.0,4.320852854781675,14.802429788815127,0.8088384116477843,2.272727272727273
55.0,4.26493532229973,14.812084497946346,0.8093587686428183,2.272727272727273
56.0,4.212812879222709,14.822166598049629,0.8098930132753552,2.272727272727273
57.0,4.164120697371355,14.832689340515921,0.8104408848052371,2.272727272727273
58.0,4.11852499437786,14.8436660412317,0.8110021171655059,2.272727272727273
59.0,4.075738319054154,14.855110930644111,0.8115764389391681,2.272727272727273
60.0,4.035491684019296,14.867038073247215,0.8121635734110646,2.272727272727273
61.0,3.9975364648143934,14.879461393097738,0.8127632394718464,2.272727272727273
62.0,3.961670254201333,14.892396435366885,0.8133751508598174,2.272727272727273
63.0,3.9276818808248772,14.905857027411429,0.8139990173151566,2.272727272727273
64.0,3.895413831946288,14.91985964628039,0.8146345442318927,2.272727272727273
65.0,3.8646876394640253,14.934418043092027,0.8152814331128992,2.272727272727273
66.0,3.8353852736544125,14.949549734333884,0.8159393817631225,2.272727272727273
67.0,3.8073486336639943,14.965267828440682,0.8166080846802856,2.272727272727273
68.0,3.7805022169120055,14.981591575306336,0.8172872325910542,2.272727272727273
69.0,3.754732143975344,14.998536166236306,0.8179765140617833,2.272727272727273
70.0,3.729929873822019,15.01611633179981,0.8186756145025048,2.272727272727273
71.0,3.7060061814028122,15.034347013555536,0.8193842167515917,2.272727272727273
72.0,3.6829157205868506,15.053247297941468,0.8201020014292849,2.272727272727273
73.0,3.66057772895546,15.072832323428758,0.8208286472686821,2.272727272727273
74.0,3.6389308448434616,15.093118443943228,0.821563831101298,2.272727272727273
75.0,3.6179221160181063,15.114121779323693,0.8223072282361462,2.272727272727273
76.0,3.5975039288482455,15.135858650012896,0.8230585126599902,2.272727272727273
77.0,3.5776340105003306,15.158345386642615,0.8238173572734762,2.272727272727273
78.0,3.5582749293011546,15.181598358658922,0.824583434124354,2.272727272727273
79.0,3.539392904097711,15.205633801430311,0.8253564146367102,2.272727272727273
80.0,3.520958695066445,15.230467949174225,0.8261359698342814,2.272727272727273
81.0,3.50294682139716,15.256116952674967,0.8269217705670298,2.272727272727273
82.0,3.4853331023213916,15.282596604468166,0.8277134877281997,2.272727272727273
83.0,3.4680967324797654,15.30992258331368,0.8285107924743942,2.272727272727273
84.0,3.4512197273002734,15.338110405810566,0.8293133564398149,2.272727272727273
85.0,3.4346862133998792,15.36717540092175,0.8301208519441842,2.272727272727273
86.0,3.418481811410887,15.397132622057658,0.8309329521987319,2.272727272727273
87.0,3.4025935501835427,15.427996835929694,0.8317493315088861,2.272727272727273
88.0,3.387010562758568,15.459782611957566,0.8325696654842697,2.272727272727273
89.0,3.3717242600897754,15.492504356794885,0.8333936312160216,2.272727272727273
90.0,3.356726729384162,15.526176123122886,0.8342209074688901,2.272727272727273
91.0,3.3420100393490597,15.560811447537779,0.835051174872905,2.272727272727273
92.0,3.327567887265373,15.596423556081506,0.8358841160973589,2.272727272727273
93.0,3.3133948090106435,15.633025278066869,0.8367194160278822,2.272727272727273
94.0,3.2994860052124104,15.670629033716633,0.8375567619323592,2.272727272727273
95.0,3.2858373470299878,15.709246816656986,0.8383958436279391,2.272727272727273
96.0,3.2724451707953413,15.748890148335137,0.8392363536357929,2.272727272727273
97.0,3.2593062934219694,15.789570067902224,0.8400779873358841,2.272727272727273
98.0,3.2464177068686153,15.831297068994306,0.8409204431145787,2.272727272727273
99.0,3.2337769949136517,15.874081142283613,0.8417634225075925,2.272727272727273
100.0,3.2213819744648227,15.917931705681035,0.8426066303327348,2.272727272727273
101.0,3.209230711867717,15.962857590249362,0.8434497748182984,2.272727272727273
102.0,3.1973214538426693,16.00886701064907,0.8442925677268874,2.272727272727273
103.0,3.185652555822917,16.055967536090673,0.8451347244715641,2.272727272727273
104.0,3.1742222470329997,16.104166038102942,0.8459759642291524,2.272727272727273
105.0,3.1630289710491652,16.15346871431314,0.8468160100508257,2.272727272727273
106.0,3.1520713100551427,16.203881058176812,0.8476545889560404,2.272727272727273
107.0,3.141347849383963,16.255407818168695,0.8484914320240108,2.272727272727273
108.0,3.130857163201578,16.30805297360526,0.8493262744806541,2.272727272727273
109.0,3.120597764623458,16.361819704724702,0.8501588557790465,2.272727272727273
110.0,3.1105679042218592,16.41671034172477,0.8509889196761448,2.272727272727273
111.0,3.100765889108048,16.472726383286663,0.85181621430733,2.272727272727273
112.0,3.0911900526280673,16.52986847011404,0.8526404922432104,2.272727272727273
113.0,3.0818386176376413,16.588136342187433,0.8534615105455228,2.272727272727273
114.0,3.0727096878029942,16.647528813759752,0.8542790308172413,2.272727272727273
115.0,3.0638012682165203,16.70804375188871,0.8550928192492944,2.272727272727273
116.0,3.05511113318268,16.769678033848642,0.8559026466585371,2.272727272727273
117.0,3.046636869224115,16.83242752863996,0.8567082885261974,2.272727272727273
118.0,3.0383760389765673,16.896287094339105,0.8575095250259438,2.272727272727273
119.0,3.0303261164772533,16.961250547184786,0.8583061410424451,2.272727272727273
120.0,3.0224844001109696,17.02731062472626,0.8590979261899352,2.272727272727273
121.0,3.0148480382713827,17.09445896663499,0.8598846748223246,2.272727272727273
122.0,3.0074140493964725,17.162686093599234,0.8606661860432964,2.272727272727273
123.0,3.0001792470031363,17.231981374154604,0.8614422637048074,2.272727272727273
124.0,2.9931403697043137,17.302333020446003,0.8622127164081173,2.272727272727273
125.0,2.9862938946702857,17.37372803962619,0.8629773574921238,2.272727272727273
126.0,2.979636240426801,17.446152241429765,0.8637360050245908,2.272727272727273
127.0,2.9731635835727572,17.51959019050118,0.8644884817829618,2.272727272727273
128.0,2.9668721131077116,17.594025223299663,0.8652346152339307,2.272727272727273
129.0,2.9607577382238395,17.66943938651936,0.8659742375068895,2.272727272727273
130.0,2.954816360480606,17.745813457976496,0.866707185364032,2.272727272727273
131.0,2.9490436164540585,17.823126891509187,0.8674333001682079,2.272727272727273
132.0,2.9434351424378193,17.901357838718937,0.8681524278433728,2.272727272727273
133.0,2.937986309313754,17.980483094916664,0.8688644188365323,2.272727272727273
134.0,2.932692679665487,18.060477965407337,0.869569120862068,2.2727274070994734
135.0,2.927530486648568,18.14133485416458,0.8702672078540691,2.2727124535172565
136.0,2.923926791405324,18.22167753964656,0.8708986803211601,2.273804616716008
137.0,2.924683247440384,18.299278741412092,0.8713667655730747,2.2778417594199047
138.0,2.9298770062822213,18.37474211067841,0.8717000715470675,2.284324779732121
139.0,2.936659003437089,18.45107703821686,0.8720161768610679,2.291049559108187
140.0,2.9438146875436906,18.529190451342956,0.8723282144612149,2.29776511329465
141.0,2.950614725527027,18.6093926548504,0.872636117337713,2.3044691841998537
142.0,2.956839934693943,18.69148818633858,0.8729398211413278,2.3111594727435016
143.0,2.9625185023249188,18.775135124081363,0.8732392645577316,2.3178336332754568
144.0,2.9677627749257813,18.85997032968821,0.8735343886430093,2.3244892835213204
145.0,2.972724478136309,18.945696275036426,0.8738251377330754,2.331123991094479
146.0,2.9775212407205616,19.032076238808784,0.8741114584582845,2.337735288236171
147.0,2.9822449243415843,19.118954888021523,0.8743933006261829,2.344320658927283
148.0,2.9869464793779787,19.20622096922309,0.8746706165434847,2.350877549057263
149.0,2.991657500155056,19.29380617118928,0.8749433616772418,2.3574033570379846
150.0,2.9963852709468908,19.381657059987326,0.8752114937858817,2.3638954468897175
151.0,3.0011240243441706,19.469732387175874,0.875474973646628,2.3703511378443576
152.0,3.0058637992519306,19.55799305752019,0.8757337647496505,2.3767677094132567
153.0,3.0105916832267874,19.646399043971545,0.8759878332762011,2.383142402205018
154.0,3.015294218099551,19.734907361322872,0.8762371480880708,2.3894724186837855
155.0,3.0199583781709736,19.82347162257019,0.8764816807109495,2.3957549241316958
156.0,3.024572113902546,19.912042263138744,0.8767214052872275,2.401987048115234
157.0,3.0291242956353837,20.000567017452035,0.8769562985411606,2.4081658858862784
158.0,3.0336045628598107,20.088991451380195,0.8771863397348091,2.414288500001879
159.0,3.038003107972113,20.177259417550655,0.8774115106211011,2.420351922091356
160.0,3.042310487566375,20.265313406760207,0.877631795392603,2.42635315478988
161.0,3.0465174939497675,20.353094797636075,0.8778471806262669,2.4322891738396826
162.0,3.050615034862584,20.440544020540198,0.8780576552238347,2.4381569303577306
163.0,3.054594148247273,20.527600674991206,0.8782632103483853,2.4439533532830544
164.0,3.0584459004798936,20.61420359575583,0.8784638393567787,2.4496753519803707
165.0,3.0621614912735127,20.700290922266685,0.8786595377285451,2.4553198190311103
166.0,3.0657321631294763,20.78580013677961,0.8788503029902551,2.4608836331807744
167.0,3.0691493188011654,20.870668126582924,0.8790361346374519,2.4663636624659375
168.0,3.072404462052098,20.9548312278904,0.8792170340511333,2.471756767501754
169.0,3.075489281874995,21.03822529228796,0.8793930044130794,2.477059804936751
170.0,3.0783956360817806,21.120785745919754,0.8795640506153672,2.4822696310626324
171.0,3.081115588418587,21.202447660297462,0.8797301791693567,2.487383105582725
172.0,3.0836414353862303,21.28314582610871,0.8798913981093971,2.4923970955201202
173.0,3.0859656996664766,21.362814826503342,0.8800477168959351,2.497308479275852
174.0,3.0880811931312744,21.441389122325546,0.8801991463145296,2.502114150808308
175.0,3.0899810454978964,21.518803135142107,0.8803456983740643,2.5068110239495005
176.0,3.0916587093250065,21.594991330924888,0.8804873862026044,2.5113960368506176
177.0,3.0931078917519508,21.669888295985643,0.8806242239404635,2.5158661565092513
178.0,3.094322650385361,21.743428835436546,0.8807562266324812,2.520218383390062
179.0,3.095297387630576,21.815548060157642,0.8808834101191824,2.524449756120645
180.0,3.096026875396116,21.88618147985259,0.8810057909273983,2.528557356267018
181.0,3.096506274069519,21.95526509618081,0.88112338616019,2.5325383131490393
182.0,3.096731156171772,22.022735498175585,0.881236213386783,2.5363898087067094
183.0,3.0966976366864714,22.088529971960316,0.8813442905328958,2.540109082413542
184.0,3.096402157858426,22.152586569749754,0.8814476357705182,2.5436934362237875
185.0,3.0958415780057678,22.21484421542513,0.8815462674089818,2.547140239412391
186.0,3.0950132077531833,22.275242804663712,0.881640203787526,2.5504469334340536
187.0,3.093914824002216,22.333723302858154,0.8817294631693944,2.5536110367426015
188.0,3.0925446730914117,22.3902278419587,0.8818140636377855,2.5566301495619976
189.0,3.090901496327529,22.4446998199045,0.8818940229941318,2.559501958568905
190.0,3.088984631044438,22.497084009478378,0.8819693586590545,2.5622242415102217
191.0,3.0867938935966146,22.54732664095883,0.8820400875752281,2.564794871774319
192.0,3.0843295048453596,22.595375486820164,0.8821062261143827,2.567211822691361
193.0,3.0815922043950548,22.64117996974278,0.8821677899883479,2.569473171725896
194.0,3.078583234351987,22.68469125283613,0.8822247941637757,2.5715771045120763
195.0,3.0753043408714094,22.725862331828548,0.8822772527808683,2.57352191875182
196.0,3.07175779545832,22.76464812669705,0.8823251790771213,2.575306027864671
197.0,3.0679463466758694,22.801005564026305,0.8823685853152703,2.5769279644911505
198.0,3.063873349841694,22.834893678327067,0.88240748271731,2.5783863837069934
199.0,3.059542646811731,22.866273681344175,0.8824418814023182,2.5796800661127453
200.0,3.054958515968373,22.895109036262415,0.882471790331049,2.5808079205578918
201.0,3.0501256763588884,22.92136553420084,0.8824972172567918,2.581768986579696
202.0,3.04504935031758,22.945011377516597,0.8825181686817608,2.5825624366398716
203.0,3.0397352078100512,22.966017242387306,0.8825346498200046,2.5831875780174065
204.0,3.0341893715207036,22.98435634831692,0.8825466645660146,2.5836438544950915
205.0,3.0284184163955703,23.000004519985495,0.8825542154708922,2.5839308476357097
206.0,3.0224293114869174,23.012940240781738,0.8825573037238131,2.5840482778750906
207.0,3.01622947829981,23.023144714016833,0.8825559291417628,2.5839960051700457
208.0,3.009826669818035,23.030601899203745,0.8825500901643281,2.5837740294641125
209.0,3.003229084492597,23.0352985718535,0.8825397838570768,2.5833824907069354
210.0,2.9964452091754237,23.03722434473357,0.8825250059200112,2.5828216686689336
211.0,2.989483967263439,23.036371723286454,0.8825057507043295,2.582091982352033
212.0,2.982354462178506,23.03273610300596,0.8824820112344111,2.581193989146343
213.0,2.975066172499358,23.02631582080285,0.8824537792380046,2.5801283836188347
214.0,2.967628767198543,23.01711214990799,0.8824210451818243,2.5788959960233666
215.0,2.9600522309592794,23.005129332336235,0.8823837983141536,2.5774977905228442
216.0,2.9523467074482737,22.99037456559537,0.8823420267133932,2.575934863082161
217.0,2.9445225942547757,22.972858020267,0.8822957173427887,2.574208439132325
218.0,2.9365904131915213,22.952592818364135,0.8822448561111313,2.572319870889788
219.0,2.9285608791695683,22.929595036096917,0.8821894279389041,2.570270634495783
220.0,2.920444792927482,22.903883673305437,0.8821294168301631,2.568062326813689
221.0,2.912253089992229,22.875480641948457,0.8820648059492109,2.5656966620872708
222.0,2.9039967498709043,22.84441072592476,0.8819955777025407,2.5631754682744567
223.0,2.895686832193017,22.810701556165608,0.8819217138249809,2.5605006832772372
224.0,2.8873343957553232,22.77438356016111,0.8818431954704591,2.557674350875735
225.0,2.8789505293107553,22.735489924788922,0.8817600033064218,2.55469861658986
226.0,2.8705462736099836,22.694056534936962,0.8816721176120758,2.551575723281929
227.0,2.862132654427034,22.650121925402985,0.8815795183797721,2.548308006715591
228.0,2.8537206005719518,22.603727208105532,0.8814821854193079,2.5448978908983126
229.0,2.845320986931704,22.554916014581522,0.88138009846488,2.5413478834065404
230.0,2.836944541052923,22.503734411355342,0.8812732372839812,2.5376605705410977
231.0,2.8286019045101978,22.45023083477234,0.8811615817884726,2.533838612489057
232.0,2.8203035197823416,22.394455994151166,0.8810451121465924,2.5298847383654337
233.0,2.8120597192552186,22.33646280096393,0.8809238088966572,2.525801741281804
234.0,2.803880582923528,22.276306259372614,0.880797653060728,2.5215924733466935
235.0,2.795776065771119,22.214043391999493,0.8806666262594186,2.517259840708932
236.0,2.7877558149534774,22.149733117369976,0.8805307108258428,2.512806798586549
237.0,2.779829348400824,22.08343617490359,0.8803898899199617,2.508236346349606
238.0,2.772005812029539,22.015214987857444,0.8802441476416013,2.503551522643447
239.0,2.7642941761543196,21.945133584198352,0.8800934691429234,2.4987554005747437
240.0,2.756703031889663,21.873257459619296,0.8799378407396271,2.49385108298475
241.0,2.7492408338014616,21.79965349872014,0.8797772500194502,2.4888416977872763
242.0,2.741915620130577,21.724389823899074,0.8796116859505985,2.483730393443014
243.0,2.734735189052886,21.647535703857578,0.8794411389856787,2.478520334515368
244.0,2.7277070446701646,21.569161428279106,0.8792656011642294,2.4732146973738796
245.0,2.720838350931461,21.489338185822014,0.8790850662130745,2.4678166660274976
246.0,2.7141359688212003,21.40813794932402,0.8788995296415559,2.462329428099858
247.0,2.7076064337689116,21.325633354186614,0.8787089888371267,2.456756170954595
248.0,2.7012559320232135,21.24189757581229,0.8785134431534544,2.4511000779793144
249.0,2.6950903488188604,21.157004216885145,0.8783128939988256,2.4453643250259134
