Time,J,A,S,tau
0.0,1.0,1.0,0.854368801074063,2.092050209205021
1.0,2.10984038699485,2.1844193830093577,0.7632658566899224,2.2950000679230347
2.0,4.250968488596252,2.7009649312477246,0.6826726570834668,2.4972098597665253
3.0,6.475679091222709,2.932246924931983,0.6144422231552432,2.6664688755040586
4.0,7.943816537123658,3.711292259647959,0.6168248802932486,2.6634648741377904
5.0,9.301034981869226,4.503798654852876,0.6192517773608868,2.6604142742393635
6.0,10.613297274315766,5.094207199130629,0.6217206878523046,2.6573219606974137
7.0,11.583863930666288,5.719416172202758,0.624231358870706,2.6541896575891055
8.0,12.255165139641027,6.327560291492415,0.6267826743974065,2.6510204045182215
9.0,12.735132906199963,6.824901287084113,0.629372704084186,2.647817697205185
10.0,13.070255796737255,7.2124668339368725,0.6319999213442716,2.644585845316473
11.0,13.30087836282746,7.506143808768456,0.6346631874588525,2.641328822409157
12.0,13.468507117339781,7.717718997220389,0.6373607287638385,2.6380497288714415
13.0,13.60059694472577,7.866586238211993,0.6400900996082692,2.6347562486393827
14.0,13.711740197696033,7.972283679374629,0.642849763157077,2.6314520327679074
15.0,13.809030081677655,8.051845090547843,0.645637900007687,2.628141743809025
16.0,13.895905772858766,8.11579552374182,0.6484520933608122,2.6248305503519105
17.0,13.973884357328595,8.171500030337143,0.651289659263913,2.621526246921531
18.0,14.04426303845245,8.222419107003208,0.6541482443634358,2.6182352377414024
19.0,14.107878906474824,8.271120145427856,0.6570247623472046,2.614964560380161
20.0,14.165587165494385,8.31863050359517,0.6599168482779079,2.6117202550020178
21.0,14.218062606299533,8.36540482389347,0.6628216074906935,2.6085098567412746
22.0,14.266145528457193,8.410747744815563,0.6657358682205847,2.605340490572944
23.0,14.310502034792037,8.455408906902097,0.6686564826331387,2.60222085041079
24.0,14.351718955212512,8.499383544677034,0.6715804167865507,2.599157556241678
25.0,14.390182133521797,8.542545567975685,0.6745046744422744,2.5961582556706984
26.0,14.426275551576113,8.585218316919319,0.6774255026978454,2.593231124000315
27.0,14.460382631035676,8.626337462646772,0.6803398526481707,2.5903834154720293
28.0,14.492811432617312,8.6665109956173,0.6832446768721835,2.587622693280037
29.0,14.524045266852825,8.705423420498208,0.6861372690108561,2.584954247233423
30.0,14.554080470094576,8.743706844641887,0.6890139015660912,2.5823875537998693
31.0,14.583157524639432,8.780986912683488,0.6918717109272445,2.579929093912491
32.0,14.611406305594224,8.81713123980451,0.6947089355516292,2.577582143658643
33.0,14.639080342596657,8.851675543686762,0.6975209646325893,2.5753567447619954
34.0,14.666403543842225,8.885544632896849,0.7003069754613984,2.5732554114169237
35.0,14.69331324330261,8.918212697111096,0.7030645130427627,2.5712811802433473
36.0,14.719900103004202,8.949359683620399,0.7057911613587206,2.569440994375014
37.0,14.74636847394489,8.979390829832418,0.7084853454472635,2.567737233391765
38.0,14.772705063876606,9.008673974983394,0.711144847663739,2.56617478413173
39.0,14.798892973615555,9.03642118129753,0.7137686422278142,2.5647545474996227
40.0,14.825155141072374,9.063165325524308,0.7163548357194425,2.563480545074599
41.0,14.851594006938218,9.088331720067334,0.718902496090505,2.562354952107701
42.0,14.878151141934218,9.112843298486654,0.7214112318167138,2.561376735755936
43.0,14.904947025079103,9.135238108561541,0.7238796790412688,2.5605490174884964
44.0,14.931935608162878,9.15726206727094,0.7263078468165747,2.5598700970267574
45.0,14.959222271403002,9.177554296751193,0.7286950929649448,2.5593409543821712
46.0,14.986762929016496,9.196669623702437,0.7310408177918831,2.5589625343111178
47.0,15.01468746555786,9.214569661607662,0.7333452338941076,2.558732879572727
48.0,15.042943562003657,9.231081624733866,0.7356083228813095,2.558651039110395
49.0,15.071578345631378,9.246685959473899,0.7378303440040204,2.558715172501755
50.0,15.10061900573794,9.260848931303762,0.7400111111260695,2.5589254689159455
51.0,15.13004062859483,9.273905673960174,0.7421514025472722,2.559278154340261
52.0,15.15990250064511,9.285700948562479,0.7442515434322695,2.5597714277483914
53.0,15.190002745661628,9.296848135931276,0.7463119223698672,2.560403393075801
54.0,15.220583192890082,9.306167432356178,0.7483332931415327,2.5611712547592447
55.0,15.251572801308667,9.314806288673172,0.750316279703531,2.5620718217505867
56.0,15.282923524930878,9.32235255797403,0.7522616263894216,2.563101721578794
57.0,15.314687117652317,9.328728168174454,0.7541697938416265,2.564259763575612
58.0,15.346762088644823,9.33446922760374,0.756041882440181,2.5655410445464333
59.0,15.379248757084946,9.339060776193003,0.7578788693794196,2.56694130019648
60.0,15.412067023910774,9.342911455186936,0.7596813934755263,2.5684581528637462
61.0,15.445150734147237,9.346031859155264,0.7614507848838604,2.5700862910724673
62.0,15.478547933794832,9.347805859254933,0.7631875114500206,2.5718236513505968
63.0,15.512346420166915,9.348748203933104,0.7648925175022211,2.5736662260856096
64.0,15.546529028455796,9.349064291610247,0.7665667945225408,2.5756099860079686
65.0,15.581018690025084,9.347978102841555,0.7682113518040793,2.5776512237417317
66.0,15.615778754087085,9.346922658110262,0.7698271389458561,2.5797855074866414
67.0,15.65083389878771,9.344842874217585,0.7714150258063677,2.5820084737014466
68.0,15.686069578163103,9.342033114818253,0.7729757167411133,2.58431761512074
69.0,15.72164254908494,9.33885523875505,0.774510229080952,2.5867089397343204
70.0,15.757448047582416,9.334887723298943,0.7760193419702908,2.5891776821562136
71.0,15.79333925908987,9.330783661243345,0.7775036931577394,2.5917222175990147
72.0,15.829412293922816,9.326248759215696,0.7789641071363722,2.59433858965517
73.0,15.865581307269927,9.32129073547683,0.7804012278970649,2.5970232622016565
74.0,15.901869489490227,9.315783767536086,0.7818157981372788,2.599771878611037
75.0,15.938406983399004,9.309557350709392,0.7832081192918633,2.6025831051163606
76.0,15.975205085163598,9.303091262401624,0.7845791346794324,2.60545311326545
77.0,16.012252767960845,9.29564097155774,0.7859293715292277,2.6083786221114784
78.0,16.049469481934477,9.288787986460456,0.7872589315807709,2.6113583684117807
79.0,16.08671585031395,9.281408138661655,0.7885685651606007,2.614389048836991
80.0,16.1239833634819,9.273972576517385,0.789858298957938,2.617468390405447
81.0,16.161351739526122,9.266014014713285,0.7911285965945121,2.6205948001206885
82.0,16.19880626207343,9.258081662499487,0.7923798668920216,2.623765061446557
83.0,16.23630368691135,9.25071539092984,0.793612615880035,2.6269762426762266
84.0,16.27366488979133,9.24292709497457,0.794826536049958,2.6302295610149375
85.0,16.31111236664506,9.23463372825906,0.7960220478647926,2.633521220712433
86.0,16.34857206586748,9.227062661412706,0.7971994376124762,2.6368495960890206
87.0,16.38609296393099,9.218992327737801,0.798358355223865,2.6402146219826417
88.0,16.42353043729443,9.2112159250501,0.799498959996494,2.6436145242821962
89.0,16.46095671785502,9.203508944906318,0.8006217756931256,2.647045535020579
90.0,16.498368147687852,9.195771430161503,0.8017266345218003,2.6505080961592715
91.0,16.535731702964704,9.187852879419285,0.8028135190175661,2.654001226144269
92.0,16.573011918991522,9.18047608103209,0.8038825453639074,2.657522523397007
93.0,16.610214779231804,9.173099843145375,0.8049333845652755,2.661072147427389
94.0,16.64727525432154,9.165989930842647,0.8059661083547215,2.664647747841034
95.0,16.684287860585783,9.158790002518012,0.8069808509630623,2.6682477857516025
96.0,16.721114672147777,9.152180550563637,0.807977310669106,2.6718718684109035
97.0,16.757811617139087,9.145677049386173,0.8089554712605159,2.675518186662495
98.0,16.794330168102995,9.1388721209801,0.8099157482461118,2.6791829401304534
99.0,16.830679965376007,9.133030259730882,0.8108573558987067,2.6828672613336884
100.0,16.866766437365243,9.127358730124362,0.8117806823443064,2.68656674567281
101.0,16.902532825108974,9.121914335845025,0.8126855155049699,2.690278897762374
102.0,16.938018433122163,9.1169284189041,0.8135717155242521,2.694003798567095
103.0,16.973193951738402,9.112345532553542,0.8144393567308629,2.697736943920321
104.0,17.008007498711333,9.108035385243088,0.8152883680998351,2.7014773213889147
105.0,17.04231396081897,9.104776153120667,0.8161181372569515,2.705224079435557
106.0,17.076101907381176,9.102009026709757,0.8169290758426184,2.7089717707581538
107.0,17.109329239978866,9.099539922891834,0.8177208350889352,2.7127167159303305
108.0,17.142022741808653,9.097780453068221,0.8184933439772928,2.716455860566906
109.0,17.17417233138959,9.096502523807432,0.819246600789926,2.720185652073424
110.0,17.205731298800767,9.095341775907686,0.819980247690307,2.7239030304285863
111.0,17.236801214104997,9.094148738043234,0.8206942516228247,2.727604616531759
112.0,17.26740138498986,9.093760022337388,0.8213887708430179,2.731284329676804
113.0,17.29738091630225,9.093424313530063,0.822063171027315,2.7349407520374975
114.0,17.32669227914619,9.093616675543432,0.8227177098718166,2.7385656827679594
115.0,17.355332932614036,9.093623860282486,0.8233522517792563,2.7421555790375782
116.0,17.383405986999644,9.093684880343499,0.8239663771636744,2.7457057099699216
117.0,17.41089137860863,9.093864309288346,0.8245599660067395,2.749212722860981
118.0,17.437745552886362,9.094244539614367,0.8251328473298545,2.7526689570327703
119.0,17.463838177001545,9.094514906696086,0.8256850923642199,2.7560694196422424
120.0,17.489227568197514,9.094879395965236,0.8262163639366358,2.759408788638338
121.0,17.513878731626164,9.095223176058397,0.8267266392715905,2.76267992511461
122.0,17.53770282311662,9.095908878399587,0.827215726657177,2.7658779698478377
123.0,17.560801485584626,9.095954059992414,0.8276834551581603,2.7689960836935805
124.0,17.58300358512125,9.09636687824392,0.8281296935500317,2.77202954478781
125.0,17.60442310863717,9.096519005227263,0.8285544397429306,2.774971690986607
126.0,17.624865612189332,9.096869165330423,0.8289573917540741,2.777812338003223
127.0,17.64435365628887,9.097108672823644,0.8293387402627485,2.780546753323771
128.0,17.662894866805427,9.096956171433563,0.8296984961918383,2.7831681781233844
129.0,17.68041440673003,9.097536280417863,0.8300360042593187,2.785670231025942
130.0,17.696821450479067,9.09753922862692,0.8303514169894926,2.7880445067216626
131.0,17.712197707624043,9.097988140058572,0.8306448715555316,2.7902843086757256
132.0,17.72639822219443,9.098462817548297,0.8309163037442786,2.79238524708874
133.0,17.73945158242364,9.098917872666167,0.831165459558367,2.79433813399816
134.0,17.751333498900184,9.099237056400574,0.8313922983792444,2.79613853585612
135.0,17.762080709859934,9.099889159084148,0.8315972454311132,2.797775342214017
136.0,17.771594466478483,9.100542573363022,0.8317797782166373,2.7992452330218893
137.0,17.779787245352473,9.101403768986303,0.831939743959697,2.800545626492261
138.0,17.786755445686634,9.102055061410718,0.8320772733141916,2.801669942937376
139.0,17.792567446300744,9.10272991231414,0.8321924596564675,2.8026131356113724
140.0,17.797137937744086,9.103819972858211,0.8322852147800284,2.8033702943277765
141.0,17.800413103526648,9.105264506579543,0.8323555777924418,2.8039373868200665
142.0,17.802215154246532,9.107274380561371,0.8324033782279726,2.804311547903912
143.0,17.802677618283266,9.109182954726474,0.8324288466889271,2.804492286923963
144.0,17.801809345741216,9.11096852377605,0.8324318946511506,2.804478629989299
145.0,17.799776710785927,9.113049649345506,0.8324126148818716,2.8042705124152487
146.0,17.79647461248001,9.115364192038808,0.8323708515763932,2.8038684960981293
147.0,17.79192080982514,9.117760379613907,0.8323066311950503,2.8032744606953592
148.0,17.785998072944093,9.12045496447913,0.8322199980002011,2.8024900595320026
149.0,17.778822196585512,9.123465005186748,0.832110893224574,2.8015194155208705
150.0,17.77034348450962,9.126630287296638,0.8319795104041893,2.800365701947368
151.0,17.760620625975506,9.129670798231293,0.8318257416505987,2.799034068203056
152.0,17.74970880118761,9.132924967946868,0.8316495675454468,2.797529175582345
153.0,17.737699201736042,9.135963777329026,0.8314511939717489,2.7958563041139466
154.0,17.724476800470548,9.13940947949228,0.8312304514224713,2.794022590164757
155.0,17.710171311358426,9.142297351124734,0.8309874665117586,2.792032184261869
156.0,17.69475321522187,9.146072702641675,0.8307221252665551,2.789895972942593
157.0,17.67821761634347,9.149586374297899,0.8304346702878969,2.787617322325247
158.0,17.660623579111164,9.152812876799695,0.830124985272838,2.7852040607388293
159.0,17.64205438573161,9.155848507819933,0.8297932648387483,2.7826625474781084
160.0,17.62259328775761,9.158938595726198,0.8294396999087865,2.7800015072048243
161.0,17.602081895492038,9.16217784109125,0.8290646823108625,2.7772239114776025
162.0,17.5806134928139,9.165235604988759,0.8286677375378161,2.7743399905828703
163.0,17.558323865004418,9.16786933244874,0.8282489951730486,2.7713563150346228
164.0,17.535132924091105,9.170991275841672,0.8278088517060811,2.768278784485482
165.0,17.51112426448262,9.173683945110284,0.8273473041185597,2.765112870150854
166.0,17.486279098229524,9.17598577808282,0.8268644710627148,2.7618660717461365
167.0,17.460730354640376,9.178101433912596,0.8263602978417666,2.758548183604982
168.0,17.43447782919055,9.180120712774357,0.8258351401302217,2.7551589981380142
169.0,17.407538803935324,9.182346788771396,0.8252890540715758,2.751710383422506
170.0,17.380012442258003,9.184264327058184,0.8247221730231036,2.7482041372195356
171.0,17.351687474863976,9.186297868451327,0.8241347675856182,2.744647017497646
172.0,17.32285524203383,9.18796950321054,0.8235266665152879,2.7410462616078197
173.0,17.293369786573386,9.189696692457472,0.8228981865229396,2.737405783703402
174.0,17.263330990062855,9.191378992813025,0.8222496406578177,2.7337303733000007
175.0,17.232692452529346,9.19315646965935,0.8215810902528383,2.730024674358612
176.0,17.201568623550372,9.195079978811215,0.8208923994329839,2.7262956151141884
177.0,17.169928221528654,9.196705473664144,0.8201839132137495,2.7225452014769242
178.0,17.137894381111277,9.198819819450591,0.8194555651382616,2.718779374792245
179.0,17.105323420496525,9.201213992714179,0.8187076535352146,2.7150027628872926
180.0,17.07229217084805,9.203552026566983,0.817940276615823,2.7112178047232205
181.0,17.03874346500767,9.20626433562282,0.8171535900646844,2.707428810331794
182.0,17.004639946830157,9.210141896021822,0.816347751860545,2.703637192767332
183.0,16.96995668185884,9.214151215936239,0.8155227454289853,2.6998476631084576
184.0,16.9347604688039,9.218410461367819,0.8146787315677808,2.696063177007777
185.0,16.899075765387394,9.223353864013724,0.8138161563768271,2.6922847280111024
186.0,16.863031590193344,9.228485886785581,0.812934720602046,2.688516722901659
187.0,16.826565164335932,9.234040874453372,0.812034600629098,2.684762393405732
188.0,16.78975295763125,9.239796191557726,0.8111157844078434,2.681023630119397
189.0,16.75261697336504,9.24586686551004,0.8101784627281313,2.6773017692068417
190.0,16.715085833510287,9.252666348593495,0.8092228712149075,2.6735981217573666
191.0,16.677285944209167,9.259161430704362,0.8082490330798688,2.669914288712029
192.0,16.63914966392238,9.266301965305313,0.807256808128306,2.6662527213199714
193.0,16.60082914521728,9.273495864283495,0.8062461924405799,2.662615227907701
194.0,16.562286683397865,9.280588679203815,0.8052174498152065,2.6590035429944687
195.0,16.523679975417977,9.287690186630861,0.8041706092603125,2.6554182658568224
196.0,16.48497138687899,9.295124178909013,0.8031056998274626,2.651861223889103
197.0,16.446041115483073,9.302773315756227,0.8020224350782811,2.648334290727963
198.0,16.40700183600696,9.310268671227332,0.8009210796318662,2.6448386730963556
199.0,16.367931075814965,9.317598893499454,0.7998013587780092,2.6413759236951146
200.0,16.328911730922794,9.324831228090183,0.7986633383440421,2.637946984581301
201.0,16.289911311514295,9.331966260063496,0.7975068289209655,2.634554329981821
202.0,16.25093528490636,9.33923348540415,0.796331743231541,2.631199294284211
203.0,16.211916854528795,9.347076250722077,0.7951382629701125,2.6278815675236245
204.0,16.172921484711562,9.35421356516106,0.7939256001058389,2.624606719449887
205.0,16.133917049935032,9.361584085726282,0.7926938304255847,2.6213736298810693
206.0,16.095008296465217,9.368544040149732,0.7914427818548508,2.6181853059441416
207.0,16.056192421827262,9.375517622699821,0.7901719770284147,2.6150440486130115
208.0,16.0174909055994,9.382057194735484,0.7888816032495688,2.611948847241261
209.0,15.978938494483376,9.388372877188095,0.787570881910257,2.6089058115947634
210.0,15.94056433654608,9.39484470578229,0.7862395338144514,2.6059164731681235
211.0,15.902302057311722,9.401043548931415,0.7848870952463308,2.6029825786998613
212.0,15.864176977427382,9.406672775307403,0.7835132430278615,2.6001073929589675
213.0,15.826233805467407,9.412284364924783,0.7821173323765529,2.5972929924932617
214.0,15.788455017452655,9.417135942900801,0.7806987396671603,2.5945431293919707
215.0,15.750895326193437,9.421823468653477,0.7792570087334955,2.591860403208481
216.0,15.713595413732113,9.42586589248777,0.7777916106662005,2.5892466236598004
217.0,15.676548956775006,9.429371530489576,0.7763015958390592,2.5867083185619943
218.0,15.639807124643143,9.43229944191581,0.7747866283169752,2.584244924123667
219.0,15.603374359003348,9.434946766415099,0.7732457381809589,2.5818624626713507
220.0,15.567191961438024,9.436843927827145,0.7716780382215076,2.5795646050246095
221.0,15.531322836086954,9.437821847755107,0.7700826026216913,2.577355931738453
222.0,15.49580572114215,9.438251376509722,0.7684589370538892,2.575237673482007
223.0,15.460664539467462,9.438184186246549,0.7668058548386533,2.573215960111317
224.0,15.425803493768568,9.43708466770622,0.7651226895338895,2.5712938247992883
225.0,15.391351111335378,9.435420230330788,0.7634084947866441,2.569473872567521
226.0,15.357203195941938,9.433134263045307,0.7616628905063578,2.567759299299484
227.0,15.323478675425108,9.429538258207801,0.7598845127283045,2.566154653393854
228.0,15.29017186902208,9.424972779235228,0.7580724864323481,2.56466499813913
229.0,15.257402648574564,9.419485191894529,0.7562259155970653,2.5632930102236946
230.0,15.225011060704324,9.413379969001289,0.7543442005269758,2.562041436651877
231.0,15.193034916889914,9.406020434591973,0.7524266511967943,2.5609131842109436
232.0,15.161450105522805,9.39783715579944,0.7504722212879328,2.559912767790551
233.0,15.130297132124426,9.3885827079647,0.7484803618976164,2.5590425236953878
234.0,15.099549904162625,9.37816853011239,0.7464503661907625,2.5583054899944466
235.0,15.069324057337509,9.366634718929115,0.7443818875944944,2.557703423121652
236.0,15.039565296330437,9.35417765132889,0.7422743030836638,2.5572387869304447
237.0,15.010209904465974,9.340540624501262,0.7401268737296677,2.5569152456618816
238.0,14.981350623457484,9.325579875991675,0.7379396134197375,2.556733598633881
239.0,14.953044319608383,9.309433677024275,0.7357122503620397,2.5566954207425896
240.0,14.925227554589883,9.292220208678208,0.733444335377892,2.5568030726402493
241.0,14.897815062000598,9.273860688846215,0.731135864482154,2.5570574895325064
242.0,14.87081607296866,9.254121212142444,0.7287866330845145,2.5574600854141227
243.0,14.844212807939373,9.233693732068849,0.7263970873409853,2.5580109810130818
244.0,14.818005395249303,9.211852548896708,0.7239675854089312,2.558709687683443
245.0,14.792198152938695,9.189016103616602,0.7214984522594897,2.5595568698003244
246.0,14.766929007551601,9.164173209004796,0.7189899238000547,2.560552562733461
247.0,14.74214075512812,9.138851502546203,0.7164430303378326,2.5616951235281995
248.0,14.717815731740354,9.112122666460525,0.7138581716870656,2.562985107123866
249.0,14.693808538270574,9.08394238661908,0.7112368605102413,2.564419056892883
250.0,14.670139709336636,9.054856019823719,0.7085809189990676,2.5659927265754225
