Time,J,A,S,tau,r
0.0,1.0,1.0,0.8659135856348029,20.0,0.0
1.0,5.935746903037534,5.9935287346644195,0.8346209833168771,19.642340923749497,0.05272014060930513
2.0,22.670038273566927,10.44147752892316,0.8039280036328814,19.28955796807021,0.051651979650452325
3.0,47.74576291637824,14.382499199150123,0.7738602221329266,18.941771564409876,0.05059978631638601
4.0,78.59684751356579,17.853561932656948,0.7444409868572397,18.599062680350865,0.049564308882215476
5.0,113.30599259501015,20.889949160573927,0.7156913259418846,18.26147298166431,0.04854621393603607
6.0,150.43272793969052,23.525297424071837,0.6876299725500451,17.928994625335278,0.04754614727123143
7.0,188.8901308615517,25.791514079746918,0.6602732233015236,17.60159924363179,0.04656455801295466
8.0,227.85597418041561,27.718844501264503,0.6336349436529489,17.279226188429842,0.045601831648581545
9.0,266.7076290898781,29.33591579776216,0.6077265303733685,16.96177421412561,0.04465831689703048
10.0,304.97325132855707,30.669640517189997,0.5825568033032412,16.64915019093523,0.04373417568117715
11.0,342.2982641928163,31.74541822154157,0.5581325680514753,16.34121378475434,0.04282959361290958
12.0,378.4167499113102,32.587185141465056,0.5344584595883235,16.037767714572176,0.04194476330319472
13.0,413.13287191824946,33.217065018315175,0.5115361123538461,15.73872122909055,0.04107954570350204
14.0,446.30398622990543,33.6560810602299,0.4893659710474226,15.443821744628265,0.04023406154385515
15.0,477.83069312898317,33.923646750559776,0.46794570860647594,15.1528861593066,0.039408212834892375
16.0,507.4650759791949,34.17419464237694,0.4638192337917785,15.205343773175125,0.037731859549671856
17.0,533.0187303845606,39.40604556376882,0.4597300247460268,15.253677407338817,0.03625964042807911
18.0,557.35661270949,48.34055053779129,0.4556113413424438,15.29539975295194,0.03495823351217767
19.0,580.6684582731518,59.810146076659564,0.4514601415758003,15.332095055997435,0.03379535638814262
20.0,601.8216859516774,72.86820909788088,0.44727062339152096,15.3655304019681,0.032745662260521675
21.0,619.5709351790332,86.77509249104425,0.4429585567651447,15.398853778780111,0.03178993603369883
22.0,633.1610929297113,100.95052107755471,0.43812944304858253,15.439889734491583,0.03091325507056266
23.0,642.4436065065768,114.92585752087183,0.4318269467367989,15.50391041111568,0.030103629320651474
24.0,647.530580450226,128.5301200415167,0.42580047586827374,15.566523556107043,0.029354477493110046
25.0,648.7940868358264,141.68785548415272,0.4215508421473009,15.605692603581247,0.02866014010189372
26.0,646.8951546762827,154.20780486919674,0.41813760057595023,15.635310145480657,0.028013440422855397
27.0,642.4774681912355,165.96949988275472,0.41518674895144303,15.661519765130144,0.027408792559592894
28.0,636.1141292622312,176.91159200640263,0.41258329140378247,15.68622252135315,0.02684176819843764
29.0,628.2915026250196,187.01461254940932,0.4102803784311205,15.70993518063717,0.026308732107259005
30.0,619.4087452556869,196.29009686651978,0.40825066267018345,15.732682213453161,0.02580667246513626
31.0,609.7845168580263,204.77266951592807,0.4064728434508096,15.754295724953874,0.025333127478540014
32.0,599.6126192005057,212.56689413524307,0.40492905061727213,15.774548543646885,0.0248860621536778
33.0,587.7225491313167,220.99303843521784,0.40360507100760756,15.79312713828796,0.02446379465262285
34.0,573.7635542264325,230.4108813416659,0.40248950939162614,15.80971498268335,0.024064858859349857
35.0,558.262622812376,240.32231643132494,0.40157340396527663,15.824019065459447,0.023687901473835517
36.0,542.1012754643514,249.96772643466534,0.40085070909363646,15.83575326374066,0.023331666268130144
37.0,526.1254070294968,258.6997472367088,0.4003166070294013,15.844716604013444,0.0229949167669043
38.0,510.97026007503536,266.1180102217539,0.39996878340229286,15.850713755167407,0.022676488574544552
39.0,497.03085474405566,272.0598187650881,0.3998050038650258,15.853649018717451,0.022375269344707942
40.0,484.4977426800709,276.5419561129076,0.3998245698625755,15.853485115630821,0.022090188776048826
41.0,473.41754204295376,279.69068348005413,0.40002769360421014,15.850226115349477,0.021820260037097097
42.0,463.746449664267,281.68611190797446,0.4004155073240255,15.843946435117152,0.02156453891610314
43.0,455.39045590720923,282.72471621413916,0.40099011671148954,15.834779762638295,0.0213221212530518
44.0,448.23502198180074,282.99587106019254,0.40175485864067745,15.822918470070023,0.021092137999140146
45.0,442.1564726873446,282.67320168288836,0.4027147814215636,15.808591410448434,0.020873739403296683
46.0,437.02887664329916,281.91148997052187,0.40387699923835724,15.792076231575333,0.020666077028144384
47.0,432.72941282479724,280.84633383373466,0.4052509680744142,15.77368321335222,0.020468347488432365
48.0,429.14112024974975,279.5945985971322,0.40684868727758305,15.753721732768073,0.020279810017376537
49.0,426.21755838718445,278.1956922809169,0.40868659576031574,15.732452158798068,0.020099842940286078
50.0,423.9345792130565,276.66687024620717,0.4107835704300675,15.710128088716429,0.01992795417998038
51.0,422.2433325566934,275.0516775367939,0.4131639774315119,15.686872142535002,0.019763806651221533
52.0,421.06403624085925,273.42357663619276,0.41586295410545304,15.662520215696999,0.01960721113799283
53.0,420.2777059563664,271.8886694007063,0.41895580952647754,15.636048346026781,0.01945809419904664
54.0,419.65317974707307,270.6562980371307,0.4226958502122938,15.603286493126062,0.019316553920928507
55.0,418.38442021178986,270.49833979509305,0.42851114266990814,15.542840026743841,0.019183241431400617
56.0,415.7713080835999,272.0610568482339,0.43793238078138785,15.435692602436447,0.01905859924545486
57.0,415.0601923129806,272.05611095352714,0.44342460011778084,15.385005545270971,0.01893955683831955
58.0,415.05523812173897,271.64333879996616,0.4478510039787787,15.350109991657469,0.018827366790397194
59.0,415.30497729482664,271.22828748142734,0.452087858334384,15.31601222857931,0.018722872703501908
60.0,415.7928926838956,270.77850062699173,0.45627163373369517,15.278680485831256,0.018626896161821616
61.0,416.5113373422149,270.25599588482413,0.46041713596907097,15.23625765098928,0.018540563817488382
62.0,417.3268679500094,269.76498956733246,0.4645328360323425,15.1872854310081,0.018464965271905952
63.0,418.072770848684,269.4539438687312,0.4686455593419257,15.130495786961331,0.018400033647181478
64.0,418.6303919543565,269.4228411282672,0.4727967546181539,15.06567988715034,0.018343696420258238
65.0,418.92730561098665,269.7160210083861,0.4770353666514962,14.995366260986701,0.018293353721543504
66.0,418.96424149157946,270.2835903457883,0.48141203130317434,14.925112392028506,0.018247790376799508
67.0,418.7231570274953,271.0719222505292,0.4859802516582024,14.860384189579385,0.018205739120544698
68.0,418.10231578810885,272.10516904443114,0.4907926433157433,14.80358990890126,0.01816481898171101
69.0,416.92566431189636,273.48525059460735,0.4958926089272837,14.754550143124773,0.01812346358500552
70.0,414.99094362819096,275.3536020813235,0.5013045330979632,14.712080831651903,0.01808209518161071
71.0,412.18738275043256,277.77813613677074,0.5070282474298177,14.674859395459173,0.018042075515882234
72.0,408.5880403771301,280.65823287421273,0.5130539250124837,14.641479894949475,0.01800463092646548
73.0,404.32015264160225,283.84794770480414,0.5194008059676144,14.610039812108504,0.017970571846686066
74.0,399.4143452490176,287.303110288288,0.5261714375821466,14.577766454831517,0.01794037089153432
75.0,393.8406641565837,291.0454396017366,0.5335102013218219,14.542014617597678,0.01791424411116989
76.0,387.747173203476,294.9245641255278,0.5412010483365295,14.505191019776397,0.01789209451281016
77.0,381.50829002489303,298.56890174608196,0.548522721048257,14.475631653365317,0.017873572032039767
78.0,375.27753828971254,301.83214301370396,0.5552047718546702,14.4561941136526,0.0178584563004811
79.0,368.9971178522571,304.77785111222784,0.5614131386739534,14.444764890306196,0.017846648912527605
80.0,362.62376710443925,307.45766942657383,0.5673001698838892,14.439477430576432,0.017838051717217064
81.0,356.1679679889466,309.8714716714912,0.5729366466790209,14.439442173538211,0.017832544994857202
82.0,349.6737780153045,311.99073606138717,0.5783405500781901,14.444368565835882,0.01782999034099551
83.0,343.20544427921516,313.7722944147627,0.583497193375156,14.45429038018617,0.017830261596494867
84.0,336.8344620240263,315.1699603608648,0.5883744409603645,14.469403959280243,0.017833234410824367
85.0,330.6180472995645,316.1567520342311,0.5929572009864867,14.489718074803067,0.01783879849151008
86.0,324.56185206807237,316.75787659590145,0.5973113713497552,14.514424394638498,0.01784685150144655
87.0,318.61031192980334,317.06141425049606,0.6016046305207196,14.541776552635147,0.01785728739768653
88.0,312.70608905510426,317.1616322073909,0.6059930893827773,14.570502354277098,0.017869931862903463
89.0,306.8235568483485,317.1215934499662,0.6105280499792783,14.601086128832849,0.017884422244880082
90.0,300.89760500363076,317.0470033806697,0.6152120297873065,14.63534114694503,0.01790008390627788
91.0,294.7455149113756,317.1597162970932,0.620077349011725,14.675575784298426,0.01791569406694562
92.0,288.23844207107754,317.6305959346792,0.6251904664766819,14.724453015783508,0.01792912533271305
93.0,281.5629542823287,318.3205020321848,0.6306014180433606,14.785669128813113,0.017937446951300808
94.0,275.0551515113049,318.9411653565005,0.6362984960678061,14.864362995988415,0.01793980809112143
95.0,269.0836516474279,319.1803863027928,0.6421907727492954,14.964207249114416,0.017941115528125856
96.0,263.73633087099455,319.00000640488383,0.6481265886509021,15.076401852855422,0.017944218751159435
97.0,258.5038136538901,318.94826604297674,0.6538996498065163,15.180391634211546,0.01794738858853756
98.0,253.65609849962345,318.7853573562058,0.6592395040701924,15.26773323519109,0.017957681197523466
99.0,249.78591719597077,317.9459167392727,0.6638826635722959,15.341990261930077,0.017980184941071623
100.0,247.54529536892053,315.81312040343425,0.6676971089782343,15.408812820709759,0.018011426238638356
101.0,246.77196213447795,312.5983252961977,0.6707366118140843,15.47396445913147,0.01804712053115852
102.0,246.8124341653482,309.0101554817773,0.673461992678027,15.540432769447099,0.018084630248522415
103.0,246.79016006571183,305.96727373009537,0.6766526162656427,15.60907547219984,0.01812164653711264
104.0,245.90757905129647,304.29377563097796,0.6806699646098863,15.687076768356631,0.018153617226152798
105.0,244.55530497259727,303.62997707880953,0.6856064001925515,15.785753923655554,0.018172681591986702
106.0,243.90304797485237,302.85357227113536,0.6912310313894332,15.920431721512461,0.018181580909683887
107.0,244.92053913908492,301.03807866823126,0.697066029094785,16.083663081975693,0.018194579284618182
108.0,245.73850672082213,300.0747643522338,0.7025714619834896,16.222862307486388,0.018206066034435153
109.0,247.2013125932288,299.13966189593725,0.7071884973444876,16.328038644487304,0.018230411153555642
110.0,250.49389238118732,297.06455695638107,0.7106405842072182,16.414634678103834,0.018269821960135907
111.0,255.77023045239088,293.74469154861583,0.713201134500323,16.49460854195431,0.018315539545423493
112.0,261.78097494331627,290.4693131091303,0.7157043212973374,16.575376031628977,0.01836186699459296
113.0,267.02850580557083,288.7240239569607,0.719029358391464,16.665221696932516,0.018402669526229178
114.0,271.5034073510657,288.49496638070747,0.723530615505666,16.779622589681097,0.018427597638455397
115.0,277.0507538161568,287.96244489424305,0.7289058280057217,16.942458827388634,0.018443003033267697
116.0,284.7655358466919,286.00402100567,0.7344373957208578,17.13292964117029,0.01846390522903832
117.0,291.2780552960273,286.0097651272133,0.7393459967169642,17.27756551544043,0.01848222891699037
118.0,298.8350151559339,285.7145673859868,0.7429937039969032,17.385017778880584,0.018518177147643353
119.0,308.39547255599007,284.1467379763791,0.7454523749932722,17.477356846274855,0.018565936491405567
120.0,318.7270385791248,282.5426846877557,0.7476164112790097,17.568182496278546,0.01861541909637759
121.0,327.9588885257715,282.7283323942758,0.7506031599612485,17.670091515257855,0.01865752279991493
122.0,336.446293504304,284.29889313943323,0.7548972841219438,17.80503401121353,0.018680639168508477
123.0,347.9667238711255,283.51922455186326,0.7600267030639125,18.00449042118021,0.01870284263544456
124.0,359.8422360473922,282.91143641373674,0.7650509246244813,18.204222992980213,0.01872560591745788
125.0,369.6352981237534,285.00839421578695,0.7690158402212802,18.341871859745655,0.01875100786546745
126.0,380.6951239255764,286.3507473402679,0.771526458336337,18.44938453549388,0.018794708688580776
127.0,392.8670043676919,287.05434950858853,0.7733463387366655,18.549920071784406,0.018843733941570552
128.0,403.8550005179442,289.3743896369484,0.7758361148448918,18.66100825555693,0.01888551155329917
129.0,413.7137434131872,293.2370607017119,0.7797336963802238,18.810885089565204,0.01890713965112251
130.0,428.9015037791739,292.2474730411797,0.7845013166201087,19.04044066574238,0.01893299703649811
131.0,441.7804393861178,293.81029235764436,0.7889816621546212,19.247749052885975,0.018954591116660237
132.0,452.0800891484882,298.36967757178286,0.7920875555594556,19.386179289302355,0.01898302493674438
133.0,463.42573113218515,302.1126283687274,0.7938010107310862,19.49993001895617,0.019027142185449094
134.0,474.36229556348303,306.4527144897712,0.7955052115964497,19.6157180768955,0.019069898186008453
135.0,483.666251097995,312.6065950367115,0.798573514815075,19.763647984360897,0.019093722085124967
136.0,498.45337592845715,313.64433881759294,0.8028582713766039,20.00207336238423,0.019116131699301597
137.0,513.2638275963202,314.7009050951105,0.8070292993557364,20.242677668115945,0.019138544517146645
138.0,522.5730535354364,321.59527822292904,0.8097417450500416,20.39575351041683,0.019162085089421646
139.0,532.6699817264198,327.7952621765207,0.811026199696459,20.520889248160753,0.01920162111657013
140.0,541.6915626913851,335.10868212288466,0.8126431590962446,20.654236822102842,0.019235486248243425
141.0,550.0848200520197,343.2181390011138,0.815890918895151,20.845415886103872,0.019249174021920005
142.0,570.9100682781683,339.0616707005516,0.819938946087367,21.144241935764345,0.019276531469437277
143.0,579.7535369581432,347.0230526293329,0.8230393427653818,21.345585556572754,0.01928957589931887
144.0,588.1676045931064,355.57989090938423,0.8243320077037004,21.488448142073533,0.019319682937573628
145.0,596.1296812911979,364.55900565448053,0.8254157864700441,21.630124992742264,0.01935022526034093
146.0,603.3602554278923,374.370387473158,0.828161764668862,21.828885713920045,0.019360367601145408
147.0,625.9667410622185,368.97024357795874,0.8318782255513645,22.15700706604664,0.019385210001570424
148.0,633.8352117684001,378.440015173079,0.834512244420214,22.367601589105373,0.019394218572025224
149.0,641.121323920661,388.6086142798394,0.8353351589017091,22.519390428596573,0.01941987454217632
150.0,647.5986739199545,399.52517165360143,0.8365156143499103,22.681858750671594,0.01943887224048447
151.0,660.1760050766327,404.60058598533425,0.8395311422994558,22.952376396714577,0.019448580013371037
152.0,679.369522876762,402.98311613054085,0.8427196155522064,23.275507391288528,0.01946391058878357
153.0,685.8167028441571,414.39894240907154,0.8440465581067224,23.456067612087242,0.019475201229599507
154.0,692.017180034289,426.00500949357854,0.8445676552487378,23.617818347651742,0.01949459037177131
155.0,698.9143091272854,437.00271232062664,0.8468071306261393,23.849109602528937,0.019497062131005147
156.0,724.3151293555399,429.54725292481265,0.8499234066208652,24.22693438699186,0.019515198360866605
157.0,730.2161503248681,441.7904716838684,0.8514378513727902,24.43220099731469,0.01951809237633499
158.0,735.9474467139535,454.1726978066953,0.8517569286447014,24.60114213343368,0.019532621975434542
159.0,742.3870541727473,465.89282721648647,0.853667616186399,24.834676470105975,0.019531850066367613
160.0,769.2164945229129,457.27248288645,0.8565498405386606,25.235088375322878,0.01954735896183834
161.0,774.9300083206618,469.9377449771196,0.8578053261922127,25.44471585141137,0.019546864084402545
162.0,780.112895695204,483.08071883146,0.8580758204624759,25.621707434290364,0.01955537142415833
163.0,788.8928694020605,492.73196139714463,0.860078621753898,25.8884834215128,0.019553626894381736
164.0,814.0523243725564,485.900537849766,0.8626169188249679,26.28894489477843,0.019562907834862534
165.0,818.9179255882403,499.5317268659712,0.8633181135364474,26.4866477298844,0.019562110880981295
166.0,823.5636227283129,513.2935656189294,0.8637907173480587,26.67645983610834,0.019562550878801432
167.0,845.4062702452127,510.01958399904714,0.8660524731724697,27.058341538744944,0.019566223458379127
168.0,858.1780423039329,515.6204934547479,0.8679760851918454,27.36508645686905,0.01956450560178965
169.0,862.8105239828393,529.4863409782447,0.8681622005647377,27.55076093831726,0.019564646432909213
170.0,867.0184496001716,543.6953949984177,0.8692158518660662,27.771234083400316,0.019556703609203863
171.0,896.9253756994873,532.2289529266352,0.8715314144984944,28.22486804132758,0.019566052103943566
172.0,901.2638888908164,546.3380704571513,0.8725213888978606,28.44854156542303,0.019557113557312704
173.0,905.1102444996505,560.8548424808081,0.8726951214422072,28.635260093732473,0.019553380840598628
174.0,919.4475229429264,564.9735790167922,0.8744450767949951,28.96090275337565,0.019549803093182126
175.0,939.7620594516652,562.8461543671584,0.8762478839785147,29.34665235311546,0.019548318531069975
176.0,943.5001775898703,577.3796116742743,0.8764634767560324,29.535875476059307,0.01954158181255009
177.0,946.7067116404259,592.3278532293305,0.8772467567825444,29.748272047485397,0.01953035951344885
178.0,977.2259653938487,579.9432937701563,0.8792273129209183,30.22380865604224,0.01953598079362472
179.0,980.6561491934498,594.5785721722885,0.8801134816596519,30.44656311480573,0.019524027322293726
180.0,983.561915873816,609.631608968102,0.8802600598329462,30.630257601477133,0.019515400152700677
181.0,996.8783770750615,614.3242363372949,0.8817515093478224,30.951522790776195,0.019509581556362628
182.0,1017.5830549394284,611.3138471933673,0.8832817875963657,31.351585362598826,0.019505593378022074
183.0,1020.1355931823829,626.4888186146898,0.8834787436204425,31.535255888440705,0.01949482613403192
184.0,1022.2875748268646,641.9210353950549,0.884152634735136,31.739059965442568,0.019481266537971716
185.0,1052.9493508264275,628.7769843334878,0.8858297171267903,32.22978211270125,0.01948390453013209
186.0,1055.3464545871677,643.7900106686484,0.8866192704761653,32.44333583893332,0.01947025915836896
187.0,1057.2958302125999,659.1165677136929,0.886753674292646,32.61796643110584,0.019458477549625892
188.0,1064.8793051674743,668.8027358036695,0.8879671677414865,32.88662271107318,0.019449931540245925
189.0,1090.178953880269,660.4624959499017,0.8893155231759482,33.33735448208483,0.01944578879637696
190.0,1091.4519379100345,676.1310674237209,0.8895858836757305,33.51364745236109,0.019431998458661573
191.0,1092.6152806090447,691.739469179464,0.890017196838109,33.694211005104286,0.019417330379116034
192.0,1121.9002272234577,679.163265713046,0.8913621309484144,34.18084140342669,0.019415479037910247
193.0,1124.6922162892013,692.8664534526476,0.8922895726671856,34.40358284690814,0.019403717137423882
194.0,1125.6679013423873,708.2818539435485,0.8924116994581334,34.56427882257842,0.01939016566541061
195.0,1126.3843487494696,723.7900093558161,0.893106439502185,34.75461124012741,0.019375785141582332
196.0,1156.8002266590936,709.4641519088934,0.894357978763996,35.255657042231576,0.019375024655895145
197.0,1157.4051969789298,724.8242294589515,0.8949726237238137,35.4392150117907,0.019360338027790594
198.0,1157.7975489569415,740.2231721472998,0.8951059957115279,35.59017775827787,0.019346183471486565
