Time,J,A,S,tau
0.0,100.0,100.0,0.9950684705806722,29.48895980785863
1.0,99.99980226807311,90.42344078836653,0.9950643513152225,30.48648848945137
2.0,99.99929509731352,81.76258610238803,0.9950604099489473,31.48439715939791
3.0,99.99881442865914,73.93235389843149,0.995056634845314,32.48249019644411
4.0,99.99835819566081,66.85296375381854,0.9950530159994838,33.480747627797236
5.0,99.99792451011307,60.45226202250929,0.9950495439459779,34.479151815469535
6.0,99.99751164455304,54.66509090441927,0.9950462097365377,35.47768716876393
7.0,99.9971180165235,49.43254333016135,0.995043004916983,36.476339891850756
8.0,99.99674217386763,44.70136962421915,0.9950399215011572,37.47509775627172
9.0,99.99638278261311,40.42347609246577,0.9950369519487658,38.473949914809914
10.0,99.99603861522566,36.55535784002671,0.9950340891398768,39.472886728627316
11.0,99.9957085405026,33.05771552565505,0.9950313263514619,40.47189962140895
12.0,99.99539151466415,29.895022286371425,0.9950286572353023,41.47098095346864
13.0,99.99508657278224,27.035151388830375,0.9950260757939554,42.470123905875376
14.0,99.99479282171913,24.449084926422362,0.99502357636053,43.46932238579065
15.0,99.99450943330659,22.11057120823916,0.9950211535771016,44.46857093890946
16.0,99.99423563828991,19.995887980147256,0.9950188023744226,45.467864673845106
17.0,99.99397072109021,18.08359308829839,0.995016517953758,46.467199197897436
18.0,99.99371401463884,16.3542901787547,0.995014295767333,47.46657055680139
19.0,99.99346489607863,14.790458159497467,0.995012131501728,48.46597518522001
20.0,99.9932227826547,13.3762461140148,0.9950100210610031,49.465409861314214
21.0,99.99298712793515,12.097325378014109,0.9950079605503996,50.4648716664342
22.0,99.99275741857988,10.940746477793374,0.9950059462620893,51.46435795124982
23.0,99.99253317110333,9.894792414203879,0.9950039746599977,52.46386630352204
24.0,99.99231392911582,8.948877565880647,0.9950020423665816,53.463394521186885
25.0,99.99209926072193,8.093426017802297,0.9950001461498712,54.462940587891325
26.0,99.99188875604219,7.319778717674052,0.9949982829106307,55.46250265062896
27.0,99.9916820250838,6.620110898132293,0.9949964496711158,56.46207900092629
28.0,99.9914786955984,5.987341413506795,0.9949946435633031,57.46166805677954
29.0,99.99127841118417,5.415071672100347,0.9949928618182311,58.46126834709238
30.0,99.9910808295086,4.897514168114953,0.9949911017557687,59.460878497576026
31.0,99.99088562056552,4.42943401016111,0.9949893607743011,60.460497217445905
32.0,99.99069246513166,4.0061009465254775,0.9949876363414413,61.46012328794007
33.0,99.99050105321925,3.623233997827961,0.9949859259845069,62.45975555120557
34.0,99.99031108263591,3.276963920876317,0.9949842272815074,63.4593929002343
35.0,99.99012225761632,2.963791651568463,0.9949825378524567,64.45903426954025
36.0,99.98993428745821,2.6805513949355437,0.9949808553505934,65.45867862609073
37.0,99.98974688524193,2.4243825629202655,0.9949791774540566,66.45832496094793
38.0,99.98955976654716,2.192696323878645,0.9949775018574757,67.45797228102045
39.0,99.98937264820131,1.9831521846214417,0.994975826263724,68.45761960110033
40.0,99.98918524703328,1.7936340621865854,0.9949741483756871,69.45726593597568
41.0,99.98899727863012,1.622226968260016,0.9949724658880472,70.45691029256182
42.0,99.98880845608143,1.4672004701247678,0.9949707764790131,71.45655166191288
43.0,99.98861848870081,1.32698867040065,0.9949690778019393,72.45618901100198
44.0,99.98842708074312,1.2001754967414802,0.9949673674769879,73.45582127434831
45.0,99.98823393003792,1.0854809066206057,0.9949656430823306,74.45544734492888
46.0,99.98803872663055,0.981746318982977,0.9949639021455237,75.45506606491662
47.0,99.98784115132851,0.8879247114038021,0.9949621421344077,76.45467621552561
48.0,99.98764087416761,0.8030687586053391,0.9949603604476711,77.4542765059832
49.0,99.98743755286438,0.7263215599196181,0.9949585544055339,78.4538655620205
50.0,99.98723083106414,0.6569086400148364,0.9949567212393788,79.45344191250155
51.0,99.98702033658616,0.5941289665903807,0.9949548580816588,80.45300397547616
52.0,99.98680567950015,0.5373489134751434,0.9949529619550781,81.4525500424333
53.0,99.98658645000441,0.48599530644773675,0.9949510297609492,82.45207826037392
54.0,99.98636221629667,0.43954956428514375,0.9949490582679466,83.4515866129998
55.0,99.98613252207309,0.3975430315311766,0.9949470440991349,84.45107289816335
56.0,99.98589688396828,0.35955150589763796,0.9949449837192554,85.45053470371695
57.0,99.98565478875848,0.3251914978886345,0.9949428734212782,86.4499693802918
58.0,99.98540569014554,0.29411619709429004,0.9949407093113527,87.44937400921518
59.0,99.98514900554173,0.26601176481658756,0.9949384872946379,88.44874536877488
60.0,99.98488411224267,0.24059459333382366,0.9949362030587464,89.44807989347676
61.0,99.98461034338713,0.21760800736594169,0.9949338520572399,90.44737362919372
62.0,99.98432698361052,0.1968199187520659,0.9949314294927626,91.44662218322587
63.0,99.98403326388788,0.17802050469927266,0.9949289302975467,92.44582066407189
64.0,99.98372835634947,0.16101986909214125,0.9949263491154976,93.44496361769527
65.0,99.98341136813511,0.14564641861126293,0.9949236802814758,94.4440449509859
66.0,99.98308133467907,0.13174489451211865,0.9949209178002137,95.44305784519666
67.0,99.98273721259973,0.11917489652956142,0.9949180553258429,96.44199466076793
68.0,99.98237787110283,0.10780954195138284,0.9949150861377771,97.4408468210607
69.0,99.98200208319574,0.0975340117767602,0.9949120031191113,98.43960468776606
70.0,99.98160851542836,0.08824457291442508,0.9949087987325456,99.4382574132407
71.0,99.98119571629661,0.07984741793531237,0.994905464995487,100.43679276921453
72.0,99.98076210409899,0.07225773521347817,0.9949019934577336,101.43519696030052
73.0,99.9803059521341,0.06539893253882677,0.9948983751751276,102.4334543950469
74.0,99.97982537320782,0.05920174731908501,0.9948946006871929,103.43154743644284
75.0,99.97931830195523,0.0536036391261307,0.9948906599943937,104.42945611197321
76.0,99.97878247393943,0.048548146384896296,0.994886542534041,105.42715776551285
77.0,99.97821540458192,0.043984296468451464,0.9948822371642616,106.42462669077983
78.0,99.97761436205943,0.039866107418556604,0.9948777321424477,107.42183366157707
79.0,99.97697634071427,0.036152127323548784,0.994873015116083,108.41874544825875
80.0,99.97629802658328,0.03280502626763052,0.9948680731090344,109.4153241943071
81.0,99.97557576352838,0.029791219345343557,0.9948628925231111,110.41152677531417
82.0,99.97480550922829,0.02708054444359645,0.994857459137561,111.4073039708535
83.0,99.97398279187708,0.024645956244588787,0.9948517581273103,112.40259961414915
84.0,99.97310265382252,0.022463275670630594,0.9948457740832409,113.39734949181648
85.0,99.97215959604478,0.02051094487134743,0.9948394910553418,114.39148021607528
86.0,99.9711475058034,0.018769837589782047,0.994832892604254,115.38490776391916
87.0,99.9700595855049,0.017223065660408658,0.9948259618805368,116.37753598671496
88.0,99.96888825921054,0.015855842719050002,0.9948186817215446,117.3692546651107
89.0,99.96762508082902,0.014655357114212671,0.9948110347817091,118.35993753231504
90.0,99.96626061773463,0.013610638596912689,0.9948030036932544,119.34943977660147
91.0,99.96478432353645,0.012712521788689538,0.9947945712686203,120.3375952602529
92.0,99.96318440176942,0.011953540788178826,0.9947857207441385,121.3242134891026
93.0,99.96144763664127,0.01132791112568063,0.9947764360809624,122.30907585265119
94.0,99.95955921165783,0.010831501624302232,0.9947667023244533,123.29193152470874
95.0,99.95750249892492,0.010461858595916002,0.9947565060366852,124.27249267258748
96.0,99.95525883485836,0.010218216076831434,0.9947458357925084,125.25042928926761
97.0,99.9528072585233,0.010101580119748639,0.9947346827653342,126.22536315082415
98.0,99.95012421542614,0.010114672974115516,0.9947230414163616,127.19686092582847
99.0,99.94718323649302,0.01026215903714294,0.994710910268951,128.16442665517593
100.0,99.94395457041506,0.010550676350597539,0.9946982928075652,129.12749311780664
101.0,99.94111962807355,0.011931776867917033,0.9946851984191573,130.08541312866535
102.0,99.9382045779126,0.013656154301196434,0.9946716435371225,131.03744864444596
103.0,99.93511747141027,0.015621479688650373,0.994657652811754,131.98275994107345
104.0,99.93186265459197,0.017861776006106934,0.9946432603721507,132.92039382541788
105.0,99.92845026252742,0.020415530993602483,0.9946285111424734,133.84927117043588
106.0,99.92489808603136,0.023326143930137697,0.9946134621642767,134.7681740833733
107.0,99.92123389718778,0.02664237143816452,0.9945981838677411,135.6757330167947
108.0,99.9174983223142,0.030418755542546992,0.9945827612126638,136.57041427476267
109.0,99.91374835948328,0.034716011791350296,0.9945672945959637,137.45050851617674
110.0,99.91006165410555,0.03960135236432272,0.9945519004033925,138.31412093469032
111.0,99.90654162222866,0.04514870691538801,0.9945367110412968,139.15916413958078
112.0,99.90332355760798,0.051438807899466296,0.9945218742832141,139.98335463976113
113.0,99.90058180243575,0.05855909657822832,0.9945075517303789,140.7842141405126
114.0,99.89853806349039,0.0666034051554912,0.9944939161816037,141.55907688028327
115.0,99.89747095900805,0.07567137992757773,0.9944811477193721,142.3051039728905
116.0,99.89772673444283,0.08586759250363352,0.9944694283187525,143.0193062389123
117.0,99.89973111673224,0.0973003308290751,0.9944589348842716,143.69857576349852
118.0,99.90400205704059,0.11008005813157319,0.994449830675957,144.33972655261954
119.0,99.91116374221502,0.12431753970918955,0.9944422550247459,144.93954420411643
120.0,99.92195992147529,0.14012170916935493,0.9944363119678234,145.4948429546119
121.0,99.93726892597955,0.15759727897283424,0.9944320571954303,146.002529495338
122.0,99.9581158358666,0.17684232652078472,0.9944294852712786,146.45966793353884
123.0,99.98568590957815,0.1979457815755459,0.9944285157255729,146.8635471588488
124.0,100.02133458755753,0.22098512472503165,0.9944289802838353,147.2117428119601
125.0,100.06659504391966,0.24602438705837196,0.9944306113122287,147.5021711095364
126.0,100.12318325466518,0.27311251360125594,0.9944330316594131,147.7331327230033
127.0,100.19299959586273,0.30228219547790736,0.9944357463819163,147.90334388917725
128.0,100.27812563977193,0.3335494060636804,0.994438137863069,148.01194838418954
129.0,100.38081059396549,0.3669138264796447,0.9944394661875456,148.05850664339647
130.0,100.50347967834216,0.4023575569704351,0.9944388528612458,148.04302599825098
131.0,100.64868384705417,0.43984969291722814,0.9944353117703207,147.9658424257543
132.0,100.8191110721946,0.47934440304569714,0.994427723777548,147.82766552569473
133.0,101.01754657546775,0.5207843822772259,0.9944148548214197,147.62948645591413
134.0,101.24684503280577,0.5641027650402646,0.9943953636937304,147.37252666412036
135.0,101.50990390759323,0.6092242709556123,0.99436779664592,147.05820302826058
136.0,101.80962702066873,0.6560677086015047,0.994330598604549,146.68805990015935
137.0,102.14889349346174,0.7045476823807438,0.9942821210393891,146.2637240399808
138.0,102.53051649146565,0.7545758769210761,0.9942206160859245,145.78686594564903
139.0,102.95720746743908,0.8060626552823484,0.9941442434903117,145.2591565305463
140.0,103.43154993286912,0.8589180491116328,0.9940510762227442,144.68224194907356
141.0,103.95594932787611,0.9130526909124024,0.9939390921305838,144.0577146359362
142.0,104.5326015426706,0.9683785171599731,0.9938061761651505,143.3870942150299
143.0,105.17465761137811,1.0129035882914426,0.9940086657610258,43.88989984446042
144.0,105.84841339159392,1.0729319035091807,0.9940507800145847,29.367478316114184
145.0,106.54637974814776,1.1869450081798039,0.9938894998505926,25.230164047407026
146.0,107.30696731324436,1.3482464482420764,0.993658710418328,22.83475330505128
147.0,108.15718442364825,1.557554746996722,0.9933818841671096,21.182931072429803
148.0,109.11821085795845,1.8172430667347372,0.9930677357059271,19.941640025132717
149.0,110.20445092021362,2.130329515474601,0.9927202651165887,18.958627104875088
150.0,111.42144264867346,2.5000815836109256,0.9923414449996903,18.1516173938313
151.0,112.76362909974647,2.9297980144055455,0.9919322195175644,17.471199607437374
152.0,114.21258400146355,3.422660015785981,0.9914929529845072,16.885467780806007
153.0,115.73622086308572,3.981615567303993,0.9910236594083343,16.37270112097571
154.0,117.28942277254332,4.609279990136807,0.990524130910201,15.917504564610464
155.0,118.81631676649614,5.307854760679572,0.9899940168676409,15.508619866755911
156.0,120.25408232421928,6.079052827752028,0.9894328734914367,15.137606011736368
157.0,121.53801093631098,6.924039269735021,0.9888401999041573,14.79801000956927
158.0,122.61391633534491,7.836787303457521,0.9882154635463289,14.484810707547016
159.0,123.4177875461683,8.830357699689777,0.9875581184500715,14.194042341272139
160.0,123.83750303004969,9.969670777154285,0.9868676220790411,13.922541823004368
161.0,123.77985932677032,11.30419994895226,0.9861434487615902,13.667756723634836
162.0,123.178135508374,12.86894937261112,0.9853851009875373,13.427608966171265
163.0,122.00531963165108,14.680701708247303,0.984592119635974,13.200392544979863
164.0,120.28387229154146,16.733283945307644,0.9837640946828666,12.984697384750193
165.0,118.08514365193676,18.99461609475217,0.982900672394447,12.779348498336676
166.0,115.51879852182974,21.406532197021384,0.9820015649386399,12.583361374849378
167.0,112.71629401457345,23.888697982150553,0.9810665583564895,12.39590584860436
168.0,109.8143813839683,26.346496729721938,0.980095520305128,12.216277680530641
169.0,106.94162899857707,28.68181484291251,0.9790884075203276,12.04387598308215
170.0,104.207872957142,30.805143942843042,0.9780452729604315,11.878185108924434
171.0,101.69677759500347,32.646088182045375,0.9769662725873907,11.718760036094809
172.0,99.47736474108993,34.14472078524356,0.9758516718799878,11.565214528905395
173.0,97.60308031484468,35.254603536079664,0.9747018517244671,11.417211451650955
174.0,96.0961677982272,35.95948977513682,0.9735173144711206,11.274454965458323
175.0,94.93608387408567,36.28522853312875,0.9722986885927145,11.13668387566195
176.0,94.06284472893513,36.29632079508732,0.9710467334280136,11.003666386210412
177.0,93.39647520304186,36.07629770422553,0.9697623431990424,10.875195624411864
178.0,92.86028450470481,35.70442339414387,0.9684465505731746,10.751085987396678
179.0,92.39541891774833,35.2413070593598,0.9671005292898438,10.631170068124673
180.0,91.96354246990668,34.72647499835067,0.965725596516954,10.51529612519979
181.0,91.54237648672152,34.18306862285182,0.964323213503802,10.403325895065151
182.0,91.11992549728545,33.62378855393304,0.9628949870767164,10.295132870545416
183.0,90.68989768064044,33.05558041307752,0.9614426687190636,10.190600741947126
184.0,90.24902329694059,32.48237615528357,0.9599681544045294,10.089622178231672
185.0,89.79561224077689,31.90656880840956,0.9584734792609463,9.992097604090258
186.0,89.3288533654846,31.329732811712393,0.9569608188058129,9.897934455587107
187.0,88.84844753178348,30.753011257891625,0.9554324919681905,9.807046700586977
188.0,88.35437739235523,30.17733104916013,0.9538909259622298,9.71935295443027
189.0,87.84690081877253,29.60346009750199,0.9523387091985086,9.634778141305537
190.0,87.32638423149263,29.032114548585355,0.9507785056204775,9.553250091770478
191.0,86.79337388310702,28.463969509564606,0.9492131340134337,9.474702310258756
192.0,86.24848527787586,27.89969447747731,0.9476454854740305,9.399070734869703
193.0,85.6924490160926,27.339963155201236,0.9460785576594604,9.326295437449454
194.0,85.1260807961015,26.785466137403766,0.9445154401569136,9.256319516211105
195.0,84.55026002149332,26.236904355951356,0.9429592775705913,9.189088606202194
196.0,83.96596520722083,25.695014409374593,0.9414133062692535,9.124551846858537
197.0,83.37420288736419,25.16054035543611,0.9398807873764178,9.0626598755558
198.0,82.77606277100705,24.634273385976506,0.9383650455310071,9.003366888339022
199.0,82.1726498518776,24.117016491848634,0.9368694205331867,8.946628204475394
200.0,81.5650972492621,23.609615920766622,0.9353972704321888,8.892402251472562
201.0,80.95455235627274,23.112944940211293,0.9339519608507402,8.840648770292045
202.0,80.34212114079394,22.62790288382275,0.9325368378128174,8.791329841937673
203.0,79.72890201027894,22.155432953184864,0.9311552282242906,8.744409322077281
204.0,79.11590598126212,21.696486408206315,0.929810422290473,8.699852647343697
205.0,78.50407380504802,21.25205227600216,0.9285056528316884,8.657627213767954
206.0,77.89421929157545,20.82312163166851,0.9272440940077012,8.617701880148873
207.0,77.28704482528508,20.41070612997314,0.9260288349423581,8.580047203513848
208.0,76.6830714533,20.015800003648664,0.9248628796994022,8.544635203785012
209.0,76.08268163703451,19.639394465967932,0.9237491223576125,8.51143941749133
210.0,75.48603390348362,19.282433781344075,0.9226903449647781,8.480434831233767
211.0,74.8931423026923,18.945827957061304,0.9216891986022389,8.451597791544735
212.0,74.30377738963081,18.630399833950044,0.9207481950111582,8.424906086508683
213.0,73.71758615718934,18.3369013745361,0.9198696983229308,8.40033872872975
214.0,73.13398736734062,18.0659487510239,0.9190559064785223,8.377876165504393
215.0,72.55232171553874,17.818051227863545,0.9183088603863073,8.357499940132282
216.0,71.9717548088608,17.593525665928187,0.9176304054945822,8.339193052615151
217.0,71.39146135738916,17.39255264961631,0.9170222199913519,8.32293948268268
218.0,70.81046710295168,17.215098827126877,0.9164858051878243,8.308724526125713
219.0,70.22803213458059,17.060851419108477,0.9160223551057836,8.296534964755725
220.0,69.64340518699619,16.92943017526062,0.9156330088745581,8.286357950917449
221.0,69.0558790809349,16.820115415495014,0.9153186168446811,8.27818243010914
222.0,68.46497082468301,16.732022332415376,0.9150798507466821,8.271998141443678
223.0,67.87042390167417,16.664020321965946,0.9149171336266833,8.26779612602791
224.0,67.27218658830884,16.614825981281214,0.9148307152727583,8.265568267887359
225.0,66.67048288601677,16.582962201708362,0.9148206011937796,8.265307665826434
226.0,66.06577296311698,16.566823376799842,0.9148865988431149,8.267008401545512
227.0,65.45877156072524,16.56470106862164,0.9150283059002198,8.270665538501616
228.0,64.85043065323642,16.57481777104033,0.915245096876306,8.276275231150246
229.0,64.24188888023332,16.59536941942994,0.9155361579586151,8.283834565612256
230.0,63.63446120761042,16.624563297987066,0.9159004677349804,8.2933416067135
231.0,63.02958180033823,16.660662451260535,0.9163368033883883,8.304795450354094
232.0,62.42875987603453,16.702009094618372,0.9168437682943223,8.318196076325272
233.0,61.83354295534307,16.74706677079997,0.9174197712161867,8.333544445483444
234.0,61.24546328604131,16.794443744412078,0.918063048906649,8.35084248424583
235.0,60.66601196852593,16.84289647824458,0.9187716825310447,8.370092976020745
236.0,60.09659034876672,16.891367039523058,0.9195435837409365,8.391299683069366
237.0,59.538493214290256,16.93897158267556,0.9203765240110886,8.414467282313716
238.0,58.992894901516124,16.98499257940671,0.9212681440332741,8.43960126770146
239.0,58.46080407291633,17.02891090760914,0.9222159415773544,8.466708192377174
240.0,57.94312054466235,17.070329238603662,0.923217327668612,8.495795269670493
241.0,57.4405385119722,17.109048968771404,0.9242695751950118,8.526870916211175
242.0,56.95367174493055,17.14494659342262,0.9253699041946959,8.559944004912332
243.0,56.48294557165584,17.17805981951135,0.9265154273356788,8.595024764917865
244.0,56.02864022014068,17.208519429154215,0.9277031854469313,8.632124140261444
245.0,55.59100565685697,17.236488821570298,0.9289302009142951,8.671253519300093
246.0,55.17011179614725,17.26224439362446,0.9301934214571491,8.712425928590667
247.0,54.76596594647465,17.286087517695872,0.931489774588418,8.755654782223676
248.0,54.378529734681834,17.30834639788054,0.9328161741005322,8.800954333972232
249.0,54.007658903165954,17.32938325502582,0.9341695257460182,8.84834028185517
