Time,J,A,S,tau,r
0.0,1.0,1.0,0.6506317368596238,16.949152542372882,0.0
1.0,8.868499772448782,4.350720688072166,0.6505282673621692,16.842059204205867,0.03488831902015053
2.0,28.96975364346647,7.566743179467535,0.650423400192962,16.73297082360555,0.034917070389653915
3.0,59.111527918375046,10.653326998706897,0.6503171451898204,16.62191115463977,0.03494553913937098
4.0,97.44324464955005,13.61552758707949,0.6502095157070725,16.50890650281427,0.03497370520810114
5.0,142.4005123977976,16.458217513638427,0.6501005213061481,16.393980933076865,0.035001578929439885
6.0,192.66043934876265,19.18607307314084,0.6499901777070665,16.277163342201824,0.03502913835315805
7.0,247.10344625010677,21.80359766764641,0.6498784998168794,16.158481674029506,0.035056378516889176
8.0,304.78186247963947,24.315131903214805,0.649765500868306,16.037961238153233,0.03508330747298839
9.0,364.8936639437411,26.72484507444254,0.6496511960791574,15.915630189595998,0.035109919770446134
10.0,426.7607558447974,29.036731081556365,0.6495356052925098,15.791523759299547,0.03513618988151625
11.0,489.8093228635306,31.254665873036444,0.6494187386465001,15.665663974226472,0.035162139626867726
12.0,553.5568540274976,33.38234630007537,0.6493006267006396,15.538085304206673,0.03518775082474213
13.0,617.5947987655354,35.42334407065871,0.6491812817608559,15.40881685412981,0.03521302410494719
14.0,681.5802811422217,37.381067722565064,0.6490607213107121,15.277899437021027,0.03523793354965498
15.0,745.2281177244204,39.25880640361705,0.6489389779675373,15.145368045306167,0.03526247248786522
16.0,805.8680603238575,43.96490402888812,0.6489309028977914,15.140800686306285,0.03491851195047692
17.0,859.6018843549834,56.99620657730003,0.6489092704478109,15.110451073658561,0.034602492760826345
18.0,903.904731110762,76.78341208288113,0.6488874967905655,15.079599889959772,0.034320371781863
19.0,931.8534058919864,101.92545694447435,0.6488657969082421,15.048529503722094,0.03406682294828136
20.0,938.3400201672796,131.2585266855799,0.6488443346521493,15.017584052976986,0.03383780338998065
21.0,922.819986115984,163.8143792470602,0.6488231990374259,14.987133729415403,0.03363013939134391
22.0,888.3902474769093,198.7845456173437,0.6488024519812977,14.957527992697154,0.0334412118111025
23.0,839.6622882180318,235.49145957440916,0.6487821849438349,14.929048777058968,0.03326879558464455
24.0,781.1353800926155,273.36399869889226,0.6487625168664322,14.901897093089486,0.03311087421298723
25.0,716.4406040926825,311.9217596547086,0.6487435773591959,14.87618767516545,0.032965672077677304
26.0,648.2103982806992,350.7617749246791,0.6487254799190263,14.85196043783658,0.03283158896520462
27.0,578.2397325077397,389.549305668123,0.6487082816832801,14.82920233280089,0.03270718760703347
28.0,507.7090410607305,428.00960402823665,0.6486920145238432,14.807856871343457,0.032591172328411806
29.0,437.38402201454664,465.9220304887455,0.6486766704122792,14.787861578083858,0.032482467548494605
30.0,367.75936266019045,503.11206333789886,0.6486622260389082,14.769127862925169,0.032380171596693964
31.0,298.52990132614576,540.0691936980631,0.6486486374424186,14.751568988150758,0.03228354367805447
32.0,229.08333745839877,577.4960282342067,0.6486358712056021,14.735095651857495,0.032191937066962314
33.0,163.39544815536115,611.4858621108846,0.648623872556004,14.719628485291816,0.03210485303096036
34.0,107.06420224164457,636.5574539454517,0.6486126105937232,14.705100021399284,0.03202187530279226
35.0,63.35051098739088,649.611327286065,0.6486020309732965,14.691439384150645,0.03194269232554392
36.0,32.250772282406004,650.8198828579244,0.6485920894786643,14.678584716498746,0.03186702091083098
37.0,11.652449070470968,642.4375735991463,0.6485827462843093,14.666483807972387,0.031794619214881095
38.0,-1.2071573334949512,627.3263864833551,0.6485739657903696,14.655089702354147,0.031725273244662074
39.0,-8.823061854774508,608.0392310546343,0.6485657144160946,14.644361390092039,0.031658794274676175
40.0,-13.08384283077682,586.4906288059697,0.6485579632279198,14.634262555171413,0.03159501149480992
41.0,-15.273965021893295,563.9703048849589,0.6485506872038693,14.624763194401913,0.03153376746947317
42.0,-16.205588249528333,541.2845718084094,0.6485438620708459,14.615836364059804,0.031474918536994155
43.0,-16.363820568003533,518.90876247973,0.6485374695960986,14.607460933019661,0.0314183275274905
44.0,-16.022460403739366,497.10793011093455,0.6485314942402897,14.599618536849642,0.03136387144149131
45.0,-15.323496423730738,476.0199147828807,0.6485259228988459,14.592294218536656,0.03131143048954894
46.0,-14.326477035439769,455.7070326638266,0.6485207432782499,14.585475862178143,0.0312609027351932
47.0,-13.039741753716449,436.1889849132573,0.6485159437729988,14.579149873577823,0.031212173324892716
48.0,-11.442273580477465,417.46615909643623,0.6485115119490645,14.573306997231384,0.0311651525083481
49.0,-9.489964775618581,399.5264698377718,0.6485074421173871,14.567936962476583,0.031119744665283746
50.0,-7.118663763339267,382.34903614435626,0.6485037281935818,14.563032105150064,0.031075863112773706
51.0,-4.248541520712639,365.9086864364678,0.648500365037215,14.55858764680314,0.03103342853069847
52.0,-0.7873946757075444,350.1792518300771,0.6484973485614217,14.554598464936511,0.03099236471973674
53.0,3.3668723675278023,335.1354213408721,0.648494674849578,14.551061632866858,0.030952602167675407
54.0,8.324149008463845,320.7537634367773,0.6484923409685235,14.547974648516261,0.030914075894948684
55.0,14.199952769624396,307.01341813458316,0.6484903445215136,14.5453343344227,0.030876721732378473
56.0,21.112635652589187,293.8966240524607,0.6484886841414311,14.54313929012765,0.030840481981949757
57.0,29.180222545750553,281.389207874836,0.6484873584108749,14.541387272416573,0.03080529981023998
58.0,38.51635277679162,269.48106426334044,0.6484863663198798,14.540078173233052,0.030771125888252135
59.0,49.225670167775434,258.16667200824656,0.648485707019918,14.539210850095522,0.030737911060352584
60.0,61.3982452562302,247.4455643206345,0.6484853793130106,14.53878405477699,0.030705608877875618
61.0,75.1033936930351,237.3228410134596,0.6484853827201504,14.538797605002237,0.03067417600786063
62.0,90.38316865953782,227.80959189522153,0.6484857155728255,14.539250656173444,0.030643572884553587
63.0,107.24437661648167,218.9232911729805,0.648486379439456,14.540143250206336,0.030613760629032042
64.0,125.65212588818355,210.68793605957632,0.6484873739316321,14.541475124223213,0.03058470246204021
65.0,145.52182155887326,203.13420993881232,0.6484887014495818,14.543247174602607,0.030556364167192797
66.0,166.71420034955077,196.29927837494662,0.6484903592159834,14.545457107800134,0.03052871226675303
67.0,189.0286848653894,190.22641145526936,0.648492348695328,14.548108637033138,0.030501716854388603
68.0,212.20137414688512,184.96489954339302,0.6484946715043867,14.551201635088383,0.03047534773672674
69.0,235.90457542772313,180.5688420255311,0.6484973271989947,14.554735339895789,0.03044957384966297
70.0,259.7484912073471,177.09566613293413,0.6485003173875715,14.558715406497743,0.030424372460037877
71.0,283.287712979334,174.6054872862348,0.6485036444740968,14.563143558321293,0.03039971497215733
72.0,306.029546051543,173.15862478165292,0.6485073141527872,14.568024026577651,0.03037557408614079
73.0,327.4488780939871,172.81336081924857,0.6485113297365838,14.5733615883849,0.03035192492797736
74.0,347.00368185828603,173.6232358608692,0.6485156970150359,14.579161976723723,0.030328740487451267
75.0,364.15639880449305,175.63401926854516,0.6485204228515631,14.58543298584536,0.030305995643661283
76.0,378.39720976928714,178.88013762179582,0.6485255161873976,14.592182965238477,0.030283663529839303
77.0,389.2711514740073,183.3802813817512,0.6485309859005834,14.599423186748583,0.030261719211913094
78.0,396.4050447867683,189.1339817491645,0.6485368423331876,14.607165557867782,0.03024013547141088
79.0,399.53213422297915,196.11721386301724,0.6485431019995307,14.615425916542389,0.030218884637482946
80.0,398.5157736409837,204.27829161598012,0.6485497782042988,14.624221235899878,0.030197940282766837
81.0,393.36068367519255,213.53516481091236,0.6485568905655519,14.633572284384211,0.03017727202767872
82.0,384.21736618161196,223.77250748024886,0.6485644598942154,14.64350296476906,0.030156850492330422
83.0,371.3743024789559,234.8405996872682,0.6485725098862178,14.654040694942813,0.03013664582757473
84.0,355.23998055453524,246.5558250552923,0.648581069641001,14.665217929166138,0.030116626964276305
85.0,336.3182727538693,258.7017886666979,0.6485901676366593,14.67707269265552,0.030096765387198576
86.0,315.1780186710031,271.0344850020543,0.6485998375115615,14.689645952578603,0.030077032303563237
87.0,292.4242257795261,283.2871965780025,0.6486101154145666,14.702985670311524,0.03005739996720113
88.0,268.6710330340242,295.1771058429718,0.6486210398179357,14.717147657439474,0.030037850314544742
89.0,244.51696253211998,306.41644654546866,0.6486326548915012,14.732193904830853,0.030018363962201266
90.0,220.5271605420202,316.72184750613326,0.6486450040211083,14.748191984962295,0.029998931415612325
91.0,197.2171755273952,325.82722193283604,0.6486581335092588,14.765215337099102,0.02997955265513442
92.0,175.0415737477068,333.49600537344014,0.6486720851148303,14.783342913349156,0.029960242223963252
93.0,154.3824932137531,339.535293687839,0.648686899343298,14.80265731696011,0.029941025719399838
94.0,135.54191799150826,343.8075171604019,0.6487026073532336,14.823237308431139,0.029921940885501205
95.0,118.7375690468342,346.2393119777749,0.6487192233913845,14.845153904810978,0.029903036213469188
96.0,104.10257451823561,346.82606834298684,0.6487367407917384,14.868461868822108,0.029884363358874802
97.0,91.68873288558892,345.6321162782657,0.6487551190872209,14.8931828075783,0.02986597106649686
98.0,81.47679752286254,342.78419965242375,0.648774283379477,14.919294210157046,0.029847891329892517
99.0,73.38935908053956,338.46117675887024,0.6487941270814337,14.94671180848085,0.029830132746242834
100.0,67.30786935166033,332.8788000815323,0.6488145299497268,14.97527533720005,0.02981268068144386
101.0,63.09156348619327,326.273327289454,0.6488353810828575,15.004747673545161,0.029795482223536476
102.0,60.59797940827025,318.8798426063302,0.6488565855758537,15.034826360051948,0.029778481723265995
103.0,59.701420287818685,310.9173249851056,0.6488780330637955,15.06516973862391,0.029761605905829644
104.0,60.30574383673149,302.57440238974715,0.648899572490962,15.095442292944506,0.02974480330748613
105.0,62.3477745776121,294.00600857185043,0.6489210098996402,15.125350619134021,0.029728049030904036
106.0,65.7917034330766,285.3374998158226,0.6489421387106695,15.154666496169867,0.029711363326104766
107.0,70.62057774724914,276.67224244002455,0.6489627782650663,15.183235748593997,0.029694807259066987
108.0,76.82875737461532,268.09776763683595,0.648982793293745,15.210975731347126,0.02967847005539708
109.0,84.41542448514333,259.68916149236264,0.6490020972073605,15.237861944311446,0.029662455769308507
110.0,93.38101447947625,251.51096645895637,0.6490206456002765,15.263917796631484,0.02964686008306381
111.0,103.72216179408365,243.61887963263632,0.649038428229075,15.28920056480025,0.029631759062995693
112.0,115.42655339062769,236.06179769520477,0.6490554625484567,15.313785934669422,0.029617193268860774
113.0,128.4676773866988,228.88346895415083,0.6490717875186501,15.337765822493791,0.029603175532801874
114.0,142.79964715536676,222.12433077111893,0.6490874582430555,15.361239330736689,0.029589685716563018
115.0,158.35190506827493,215.82311962554698,0.6491025423119301,15.384307938858699,0.029576683051113564
116.0,175.02472371426938,210.0182499598022,0.6491171209729897,15.407077794909217,0.029564110261133196
117.0,192.6850536435781,204.74898309409411,0.6491312837049157,15.429655223633155,0.029551899425031034
118.0,211.16316082010798,200.0562770317305,0.6491451281489888,15.452148468153265,0.029539975199057104
119.0,230.25134268358482,195.98337681591426,0.6491587628687026,15.474672192473376,0.029528261940492823
120.0,249.70266645857637,192.57644665383916,0.649172304419477,15.497341543864232,0.029516676018148953
121.0,269.23542172411175,189.88319961760735,0.6491858747694156,15.520280173114838,0.02950513382572599
122.0,288.5339441549218,187.95254123651324,0.649199611031521,15.54362393686437,0.029493549395692792
123.0,307.25859639958395,186.83281646973012,0.6492136537884695,15.567517196197485,0.02948183155175744
124.0,325.05158590118504,186.56964356067726,0.6492281595780606,15.592123499263325,0.02946988846844153
125.0,341.5496131811177,187.20295758343616,0.6492432928949396,15.617628871539326,0.029457630550301397
126.0,356.39552248709526,188.76463922764108,0.6492592290355894,15.644243537825933,0.029444973823427284
127.0,369.2525804812175,191.27524701180843,0.6492761530368841,15.672207355237418,0.029431849434338124
128.0,379.82076753392516,194.73895694437323,0.6492942519752287,15.701794266635074,0.0294182226463993
129.0,387.8525417679995,199.1399912411644,0.6493137090445593,15.73331138764409,0.029404118793807565
130.0,393.1696291036969,204.43688566753247,0.6493346835646104,15.767086705448271,0.02938963600132394
131.0,395.6814071018353,210.55234063692038,0.649357273075851,15.803441424325417,0.029374958401111474
132.0,395.398403772692,217.36654619836918,0.6493814572455385,15.842636448645422,0.029360322409880457
133.0,392.4285222321547,224.72449494826407,0.6494069716038848,15.88477248829537,0.02934595614645575
134.0,386.93343239525666,232.4759472784227,0.6494332411918184,15.92965682696982,0.02933198845443308
135.0,379.06342929755766,240.53794759409192,0.6494595664929181,15.9766677539305,0.029318388391503362
136.0,368.9211309891213,248.92230672767164,0.6494856308029163,16.024712321856146,0.029304980579418147
137.0,356.6001508848324,257.6874057873495,0.6495115385584419,16.072436697256165,0.02929152803406564
138.0,342.26366322206974,266.8490704970525,0.6495370826300078,16.118635741326614,0.029277840074530548
139.0,326.19448520551964,276.31751056481795,0.6495615835766236,16.162538833806302,0.029263867105833317
140.0,308.77802173561895,285.9038587855873,0.6495844070269476,16.203830532628835,0.0292497183420622
141.0,290.4500431126136,295.36759048617665,0.6496052272592003,16.24253443943504,0.029235609784518553
142.0,271.6455823052146,304.4624961440632,0.6496239795677344,16.278871333365515,0.02922176540644074
143.0,252.7771016180045,312.95666982383733,0.6496407527130238,16.31316143741577,0.029208345359349436
144.0,234.21986452934692,320.6447391538001,0.6496557188232142,16.345750697725652,0.029195417700364195
145.0,216.29717724324712,327.36228888550676,0.649669093655049,16.37697706387003,0.02918296932568225
146.0,199.27844540509966,332.9870856743928,0.6496810999283423,16.407162501908605,0.029170931122975453
147.0,183.38353907983273,337.4344318254735,0.6496919848419865,16.436601320569668,0.0291592001546404
148.0,168.78629521615207,340.6550960123419,0.6497019891182225,16.46557097807455,0.029147656780390642
149.0,155.61340909921066,342.6363453643395,0.6497113627822231,16.494337665055436,0.029136177418817338
150.0,143.94792902189764,343.40068329433046,0.6497203562847832,16.523163771876415,0.029124637499000277
151.0,133.8352353076874,343.00108694595207,0.6497292216999973,16.552316437931594,0.029112915292903597
152.0,125.2904848914454,341.51422960348106,0.6497382193485499,16.58207626267133,0.02910089147774222
153.0,118.30869499508921,339.0320715983046,0.6497476138541924,16.61274757282078,0.02908845856290215
154.0,112.8721096606939,335.65551547769155,0.6497576724543447,16.644668244674314,0.029075529970704044
155.0,108.95605487611637,331.4892084935325,0.6497686690396968,16.67821835087198,0.029062061013041148
156.0,106.53324458876581,326.63866280156725,0.6497808640346855,16.713822083529877,0.029048072148683237
157.0,105.57885708438438,321.2052968970401,0.6497944743057895,16.75193993902354,0.029033684879510916
158.0,106.07537641935863,315.2809904474592,0.6498096269548966,16.79303516109292,0.029019122512506376
159.0,108.02052115415732,308.9401545785638,0.6498261973875602,16.83749079292381,0.02900467561867228
160.0,111.43059488025918,302.2340879362928,0.6498435233346632,16.88546107519841,0.028990594853803696
161.0,116.31798879329307,295.21065274339094,0.6498601990216143,16.936658909257936,0.028976975069240917
162.0,122.61947258871159,287.98475716716916,0.6498749597505994,16.99009128972985,0.028963686304533123
163.0,130.1534044066584,280.7796447980863,0.6498884659140448,17.04397598597624,0.028950450941047964
164.0,138.72025576429212,273.8285264805762,0.6499022234175265,17.09632063322792,0.02893697496988929
165.0,148.23650593182927,267.23751694512515,0.6499159469578686,17.14575964051389,0.028923072367662353
166.0,158.72235913971537,260.99651998957575,0.6499282590779405,17.191736202288965,0.028908739444278214
167.0,170.20302710074077,255.07577273392184,0.6499382454258292,17.234262068312038,0.0288941386350459
168.0,182.66252376587883,249.47233405338596,0.6499456222518424,17.27365421761155,0.02887950294098392
169.0,196.04702376341282,244.20543831160273,0.6499504620699365,17.310361627643317,0.028865032056015483
170.0,210.27773355742258,239.30397134177807,0.6499529788718337,17.344856514334936,0.02885084090690846
171.0,225.2565444266875,234.79942701060176,0.6499534435158805,17.3775841898048,0.028836956316841182
172.0,240.86700614611038,230.72493067992897,0.6499521393066493,17.408945264870525,0.028823342373590962
173.0,256.9715086174458,227.1164776685962,0.6499493515162518,17.439297222454684,0.028809922769995364
174.0,273.4128768983742,224.01134591010748,0.6499453584172599,17.46896181736081,0.028796603432331935
175.0,290.0165344549797,221.4474347660098,0.6499404411762115,17.498233673688535,0.028783285360815935
176.0,306.5910243652814,219.46211374907412,0.6499348629997251,17.527394346340202,0.028769871332886558
177.0,322.9301301429801,218.0925006614081,0.6499288686454455,17.556718293563176,0.02875626999027509
178.0,338.8170761944834,217.37376680354544,0.6499227241872153,17.58648097836601,0.028742399682135128
179.0,354.03207666315495,217.33505708800345,0.6499166713599384,17.616973760117812,0.028728196895501563
180.0,368.3583213761737,217.99839465919123,0.6499109550830876,17.648504916666393,0.028713625442188834
181.0,381.5919113820204,219.3744020622117,0.6499058020890435,17.681410249824697,0.028698691075865007
182.0,393.55082655787066,221.4584790919314,0.6499014280048138,17.71604946625185,0.028683456366801745
183.0,404.0894632309409,224.22174188992867,0.6498979642583791,17.752797381111396,0.028668051259548497
184.0,413.1183831373541,227.59472539186714,0.64989543070621,17.79201292281069,0.028652662623962658
185.0,420.6240795987614,231.45085891240615,0.6498934952943313,17.833980001152415,0.028637493521347306
186.0,426.64654766123647,235.62922903282987,0.6498911146107712,17.87882551794811,0.028622678725618578
187.0,431.21414760721666,240.00280726002563,0.6498861862027454,17.926391259843374,0.028608240956604625
188.0,434.2464078977797,244.57729573473821,0.6498767787633735,17.975998393409995,0.028594071114427726
189.0,435.5245181531665,249.5220091632285,0.649864145696721,18.02619405018402,0.028579978782544636
190.0,434.7924609968781,255.07361293572308,0.6498522574802456,18.075090075583525,0.02856575886470599
191.0,431.8993731447768,261.3858848207999,0.6498427965827709,18.121307153725574,0.02855125014455365
192.0,426.86517467520184,268.4611643483065,0.6498343463323295,18.164296022318144,0.028536372750794747
193.0,419.84676927010275,276.18187259891465,0.6498251414104556,18.204023688923463,0.028521151346847705
194.0,411.0665052632763,284.37723300121144,0.6498142612309371,18.24071309506662,0.028505690012635594
195.0,400.7611125590955,292.87489285498106,0.6498014436547747,18.27469696389005,0.028490122124524106
196.0,389.16652294033224,301.51667094911556,0.6497867529119098,18.30633899492027,0.02847456670674218
197.0,376.5194822919058,310.1560054702711,0.6497703495390826,18.335995403857478,0.028459104991762584
198.0,363.0599009865655,318.65247639310496,0.6497524476029469,18.36398877617546,0.028443776092074637
