Time,J,A,S,tau,r
0.0,1.0,1.0,0.8022306700161549,14.492753623188404,0.0
1.0,1.0384238217469637,1.0723399895014245,0.8019106334524504,15.061654425252277,0.0008545707611439231
2.0,1.0899280132996279,1.1160752430780199,0.8015859382695896,15.64571230361068,0.0007706296323609445
3.0,1.1458013980911093,1.1364974400647254,0.8012547675081162,16.24448101801154,0.0006885858994557925
4.0,1.199767512586428,1.1383626768138897,0.8009148670044113,16.857589122622365,0.0006084840662626618
5.0,1.2475173666936643,1.1256974129860733,0.800564011551351,17.48468235407328,0.000530093053756992
6.0,1.2862657140646443,1.1019351059228315,0.8002005872527922,18.125368373651717,0.0004532822574913325
7.0,1.3144123701474968,1.0699720361499832,0.7998228635001676,18.779286019117603,0.00037798910293470824
8.0,1.3312514080498847,1.032181045070761,0.7994292931587192,19.446084421151337,0.0003041379921420806
9.0,1.3367269705651945,0.9904761305086172,0.7990181677522945,20.125441161757305,0.0002316522931174775
10.0,1.3312450155901592,0.946403693841367,0.7985881524896804,20.817009527569645,0.00016048930297962477
11.0,1.3155236282386296,0.9011502004145818,0.798137762591646,21.520495399976895,9.058297162586641e-05
12.0,1.2904738611304631,0.8556447081931813,0.7976659109537089,22.235562988737186,2.18931625592388e-05
13.0,1.2571146600892302,0.810594109588525,0.7971710779394916,22.961961341985134,-4.560896248048285e-05
14.0,1.2165079321481187,0.7664950127229381,0.7966527121468302,23.699342343346814,-0.00011196975475477423
15.0,1.1697078597148742,0.723710386530005,0.7961102195906797,24.44737113123297,-0.00017721995269561247
16.0,1.1177333744601368,0.6824902787160899,0.7955423101265647,25.205826291425602,-0.00024138055330675517
17.0,1.061541651025592,0.6429706306270999,0.7949493355798852,25.974325674165357,-0.0003044945223738283
18.0,1.0020188432809598,0.6052331269671696,0.7943298631927094,26.752671687976648,-0.0003665883308585487
19.0,0.9399718237886995,0.569360783494805,0.7936844479619968,27.54050002207479,-0.0004276377764461153
20.0,0.8761305144227505,0.5353163542267397,0.7930122949157202,28.337586087430378,-0.0004876851667562578
21.0,0.811139232816491,0.5030618409984902,0.7923134523960266,29.143621919549748,-0.0005467547899855511
22.0,0.7455652225102918,0.4725441824139463,0.7915882769356658,29.958306549862122,-0.0006048678024375653
23.0,0.6799009337912167,0.4437366429694558,0.7908376227098725,30.78131224609077,-0.0006620066536909787
24.0,0.6145736516521391,0.4165622707994827,0.7900604464371911,31.61247148524887,-0.0007181859418129541
25.0,0.549944253603516,0.39095992915573413,0.7892584018970343,32.45139446644298,-0.0007734055479336121
26.0,0.48631707605889846,0.36684111049672774,0.788432502992993,33.29775308932153,-0.0008276903649647328
27.0,0.42394381589592517,0.3441258176827374,0.7875824925996809,34.15135673815454,-0.0008810568602101638
28.0,0.36302392355221036,0.3227695026811813,0.78671035371033,35.01180727316382,-0.0009334937372478389
29.0,0.3037182232615556,0.3027091604151737,0.78581638827604,35.878875987357866,-0.0009849998548118182
30.0,0.2461497858675209,0.28387577080732573,0.7849019960382915,36.752237196654235,-0.0010355853070360798
31.0,0.1904097697554002,0.26620065456655007,0.7839675381628273,37.63166902630797,-0.0010852626685494515
32.0,0.13655654532154016,0.24963351731032202,0.7830146628027879,38.516857123632334,-0.0011340311190612957
33.0,0.08462677819405398,0.2341120217338805,0.7820450203143371,39.407463524315986,-0.001181902397876442
34.0,0.03463068496960607,0.21959640630344585,0.7810589407910797,40.30328724499516,-0.001228868812151237
35.0,-0.013437644470551104,0.20603551240874712,0.7800580854709427,41.20403431716613,-0.0012749344961288426
36.0,-0.059596775465114715,0.1933674410180168,0.7790440959072726,42.10938723889334,-0.0013201170142376146
37.0,-0.10388362548593069,0.18155343986782171,0.7780166635225868,43.019217898499406,-0.0013644139798746726
38.0,-0.1463438535732295,0.17054726781644006,0.7769784004767126,43.93315653877288,-0.0014078329484936215
39.0,-0.1870308193794417,0.16030067259057115,0.7759310246868504,44.85090368755539,-0.0014503851042751705
40.0,-0.22600587411972883,0.1507725764991929,0.7748743834762423,45.77233807449268,-0.001492076784894667
41.0,-0.26333729771257625,0.14192673354382979,0.7738100424913916,46.69717619927714,-0.0015329112764558856
42.0,-0.29909201636280014,0.13371321246630072,0.7727384409534718,47.62524917712512,-0.0015729083993874591
43.0,-0.3333482171814568,0.12610929697451587,0.7716601349113914,48.556371248191795,-0.0016120611334168081
44.0,-0.3661782298974619,0.11906949668291474,0.7705778511414588,49.490194365438626,-0.0016503867223406743
45.0,-0.3976622930563442,0.11256997100670665,0.7694906011813053,50.42666936814991,-0.0016878809760568448
46.0,-0.4278717112165997,0.10656554472630515,0.7684002070747011,51.365526505425855,-0.0017245669480521338
47.0,-0.4568850360828378,0.10103182268664629,0.7673072655325677,52.306594162597754,-0.0017604456619615943
48.0,-0.48477707103292506,0.095938899969206,0.7662123212507757,53.249706791371636,-0.0017955259389508685
49.0,-0.5116185556443886,0.09125282659646598,0.7651157468790798,54.19471885475055,-0.0018298240013912307
50.0,-0.5374878031408646,0.0869605340562573,0.7640179576521211,55.1414847471979,-0.00186333262633542
51.0,-0.5624508213163926,0.08302776850369852,0.7629192788079505,56.08987273238729,-0.0018960714945512398
52.0,-0.5865814237300352,0.07944102623895152,0.7618202269317852,57.039715271328255,-0.0019280349799644684
53.0,-0.6099395938332796,0.07616572696211996,0.7607215702773212,57.990868205693324,-0.001959249722025952
54.0,-0.6325932755243268,0.07318967575403151,0.7596229077772737,58.94323790522244,-0.001989714660856722
55.0,-0.654606908985182,0.07049670699979992,0.7585251466107947,59.89666816216252,-0.0020194344280800303
56.0,-0.6760428531749391,0.06807178285740705,0.7574281383875823,60.851064798823884,-0.0020484135988056546
57.0,-0.6969578743356267,0.06589425860408227,0.7563322044719227,61.80630171157307,-0.0020766650250494153
58.0,-0.7174136064103243,0.06395802424021628,0.7552359885626018,62.762366754364315,-0.00210418631777712
59.0,-0.7374652011289736,0.06224635592092281,0.7541420111721171,63.71899553263798,-0.0021309877917159285
60.0,-0.7571697471842052,0.06075138331564244,0.7530495756748321,64.67614748104559,-0.0021570712086892156
61.0,-0.776580808073621,0.05946208469605502,0.751958410169203,65.63374074766433,-0.00218244266296515
62.0,-0.7957529898894367,0.05837210143655612,0.7508688528419848,66.59165746365353,-0.0022071043927118007
63.0,-0.8147373803846484,0.057472187852336556,0.7497796078352412,67.54988306557394,-0.0022310625043188924
64.0,-0.8335893471761515,0.056760827939994006,0.7486918211359308,68.50825218002186,-0.002254314704450729
65.0,-0.85235345141329,0.056222833142279764,0.7476055665647842,69.46666902045877,-0.0022768780746995434
66.0,-0.8710861499013436,0.055863325696453726,0.7465220062753779,70.42496710947982,-0.002298746363307073
67.0,-0.8898349327537565,0.05567427806863141,0.7454400179305096,71.3831256656665,-0.0023199285333900133
68.0,-0.9086543154514547,0.055659945341281956,0.744359897197523,72.34104182684642,-0.002340421370727753
69.0,-0.9275930624082162,0.05581576438041449,0.7432812983468501,73.29862851879093,-0.0023602313199526906
70.0,-0.9467030852711082,0.05614264907652068,0.742204402563522,74.25578657882768,-0.002379360495896159
71.0,-0.9660369865222443,0.05664249978178869,0.7411296223697693,75.21240061041185,-0.0023978106551847344
72.0,-0.985644194294075,0.0573133468350678,0.7400564226320462,76.16839608230005,-0.002415589200752631
73.0,-1.0055799697196426,0.05816173340482484,0.7389850737885753,77.12367636607033,-0.002432695822104228
74.0,-1.0258992675236536,0.05919290229283174,0.7379158284630312,78.0781071181344,-0.002449131449548149
75.0,-1.0466572889444696,0.06041112779475386,0.7368490178162859,79.03157335548596,-0.002464898890451594
76.0,-1.0679108608157877,0.06182272623831555,0.7357851494869234,79.98392652626407,-0.002479999702644857
77.0,-1.0897163244733863,0.06343240081659869,0.7347240226789444,80.9350790874767,-0.002494438467854659
78.0,-1.112133350444083,0.06524921795195371,0.733665881110734,81.88490777148473,-0.0025082165186328846
79.0,-1.1352228899270458,0.06728266504531831,0.7326111219039061,82.83326907431528,-0.002521335260027871
80.0,-1.1590461406234633,0.0695413484519578,0.7315599713189196,83.7800370258644,-0.0025337979045113937
81.0,-1.1836661777235864,0.07203554934844592,0.7305128507751449,84.72506263761215,-0.002545606997336493
82.0,-1.2091491590509722,0.07477995205274376,0.7294700860462913,85.66820329569963,-0.002556762490432891
83.0,-1.2355626288898938,0.07778966435253747,0.7284323290650262,86.60928772349759,-0.0025672636139802375
84.0,-1.2629744700745034,0.08107932167517974,0.7273998853735418,87.54815657667298,-0.0025771105170980576
85.0,-1.2914521856467691,0.08466090137810224,0.7263738995602104,88.48460483081145,-0.0025863064116960267
86.0,-1.3210670509070561,0.08855489353880835,0.7253544358825247,89.41848870760073,-0.0025948485150005004
87.0,-1.3518870336570918,0.09277547297431853,0.7243423132735372,90.34960380540971,-0.0026027396916670246
88.0,-1.3839824347754481,0.0973415296961744,0.7233388517863996,91.27770627761883,-0.002609979336226585
89.0,-1.4174223858978126,0.1022728217072371,0.7223447033234079,92.20259665531269,-0.0026165670986428606
90.0,-1.4522741136161752,0.10758833976109808,0.7213605262387208,93.12407446449267,-0.0026225033967676487
91.0,-1.4886070477220363,0.11331807683657821,0.7203876919553568,94.04185474895615,-0.00262778121745132
92.0,-1.5264803106635323,0.1194742409936352,0.719426240697125,94.95580014752159,-0.002632405805120209
93.0,-1.5659546978088654,0.12608430657929484,0.7184772818978471,95.86564658359134,-0.002636372485233907
94.0,-1.6070851752909785,0.1331751455278318,0.717543459167271,96.77098844911164,-0.0026396780021285563
95.0,-1.6499170340150522,0.14076510249603333,0.7166241301274866,97.67171051935973,-0.0026423231953183624
96.0,-1.6944920951737068,0.1488853558744901,0.7157200249594019,98.56759038723051,-0.0026443036771761886
97.0,-1.740840258462499,0.15756046037859767,0.7148338897879901,99.4581820526726,-0.0026456162746382275
98.0,-1.78897723521073,0.16680533562065558,0.7139655593237966,100.3433140277295,-0.0026462642959626946
99.0,-1.8389128402574157,0.1766601706580222,0.7131158071403048,101.22272372564659,-0.002646240102131668
100.0,-1.890638872976777,0.18715352684241657,0.7122846659409132,102.09621116333436,-0.002645539567762314
101.0,-1.9441279310892314,0.19830810140096977,0.7114751086498486,102.96329683264901,-0.0026441618353778267
102.0,-1.9993354879232186,0.21015574076091267,0.7106873309938336,103.82373912036715,-0.002642102175405731
103.0,-2.056191712724954,0.22271279464373933,0.7099213350365077,104.67731665352073,-0.002639363283738306
104.0,-2.1146086409034726,0.23602106808350617,0.709177237427279,105.52379371438414,-0.0026359382722425384
105.0,-2.1744685125433634,0.2501118275221805,0.7084577328454392,106.36266945092636,-0.002631824122838304
106.0,-2.235624214882231,0.26501907085058696,0.7077622958661115,107.19374548819651,-0.002627018168482825
107.0,-2.297895343836578,0.28076557013726205,0.7070896087459223,108.01689853448836,-0.0026215207364910964
108.0,-2.361067997957291,0.29739380703691737,0.7064430874489452,108.83151877962237,-0.002615327212780356
109.0,-2.424891024559825,0.31494143061170776,0.7058209635705182,109.63751126677734,-0.0026084355112365623
110.0,-2.4890711684944806,0.3334489243469008,0.7052236352376614,110.43454153729726,-0.002600843861351387
111.0,-2.553270537286611,0.35296341208362353,0.7046508050580056,111.22234475839393,-0.002592548045662636
112.0,-2.617103295393031,0.37353450526000803,0.7041020897364908,112.0006450993656,-0.0025835451243160002
113.0,-2.66702495512175,0.38239030400925017,0.7037103247955518,112.48538922077465,-0.0025750554241996296
114.0,-2.7184796871743253,0.397620324356803,0.7036687927644488,112.71127539474745,-0.002566231047102936
115.0,-2.7841638234376376,0.42882795945268387,0.7029612148858775,113.40696942928948,-0.002555835602651562
116.0,-2.8298433055043977,0.44426022017022204,0.7028921506156555,113.56890293890493,-0.0025461034109565215
117.0,-2.889842695566966,0.4790103832337258,0.7028789650534384,113.77664981218938,-0.0025347325915180906
118.0,-2.946429561098861,0.5135026790642768,0.7021905793383341,114.37879036152964,-0.002522720405584166
119.0,-2.9844466630092135,0.5357159448046352,0.7021823050428148,114.4778685982023,-0.002510725452730017
120.0,-3.0163250137601874,0.5604176830459757,0.7021715254516484,114.54486065528259,-0.002498113564215297
121.0,-3.041160677984021,0.5869914901101471,0.7021790882418605,114.58588491306948,-0.0024847185739126604
122.0,-3.055401771097082,0.6124886308018729,0.7021871462819635,114.59658207231797,-0.002470614628483254
123.0,-3.0560780934870193,0.6348211161309344,0.7021865544423054,114.57287381072895,-0.002455887004458118
124.0,-3.0426183142813517,0.654288353763495,0.7021799625011809,114.51616663416794,-0.002440488457593524
125.0,-3.014547368054162,0.6708907084638869,0.702160438016495,114.42324552101444,-0.0024244527659947205
126.0,-2.963960419419508,0.6776023615426204,0.7029206056972251,113.72221082596529,-0.0024081251808337365
127.0,-2.895927926501582,0.6802223762781237,0.7029197377589846,113.48939969035257,-0.0023911824582797054
128.0,-2.809970892244514,0.6782867887785855,0.7037297138358685,112.62854383399846,-0.0023736968777712457
129.0,-2.709392369479828,0.6744684298919013,0.7038954307532388,112.18107192821894,-0.0023556049686345153
130.0,-2.5878358536919013,0.6621600340064365,0.7053236392653395,110.68728652870224,-0.0023368896929308798
131.0,-2.4491367206655585,0.6443130467461815,0.7062293680412994,109.52714001860264,-0.0023176465590774744
132.0,-2.296670539354966,0.6231208842574482,0.7080259519955523,107.6177945928127,-0.0022975699557074205
133.0,-2.1301502089541304,0.5968947597311342,0.7099532670302064,105.52141352531306,-0.002276809601371216
134.0,-1.9524568560114302,0.567101118824572,0.7129602060835286,102.51020054220804,-0.0022550161819497863
135.0,-1.7655206652626438,0.5341519540875597,0.717201195725563,98.4495433611104,-0.002231943919282972
136.0,-1.5718272402198088,0.49935927695464627,0.7238505292947637,92.38438996369351,-0.0022069349683255623
137.0,-1.3739742728781612,0.46653128154200724,0.7348194672042015,82.54790969187442,-0.002178783865028665
138.0,-1.1757089930948197,0.43947786441912656,0.74882477181414,70.24598261518403,-0.002147586664390328
139.0,-0.983578734108838,0.41891978247159367,0.7623432581764104,58.401591611976066,-0.002115517644331494
140.0,-0.8026201748911331,0.4083763921249854,0.7725062465692719,49.57365405865126,-0.002083926453876822
141.0,-0.6327600243767614,0.4122539863498829,0.7789198983565144,43.71143751223687,-0.002052841586457151
142.0,-0.4700606166677915,0.43303937216816946,0.7830908578742932,39.572506434180276,-0.0020215757115630904
143.0,-0.30944993372759894,0.4738640904839997,0.7856657592528716,36.476781133645844,-0.00198971050784278
144.0,-0.1426887171885702,0.5365503478198056,0.7879475683869595,33.57942711164187,-0.0019569658619137853
145.0,0.039641355895157104,0.623415580791464,0.7889941345914139,31.485679935964935,-0.001923078422562505
146.0,0.25067960865344957,0.7332510009076727,0.7898705578144192,29.501198072970457,-0.0018881232900414496
147.0,0.4977153435335,0.874334438082819,0.7905894401329463,27.619050692375016,-0.0018521378407441674
148.0,0.7909266661881429,1.054235086603604,0.7902742581019956,26.399591451036116,-0.0018143792291707567
149.0,1.1701703302490611,1.2502124206380294,0.7907212011328426,24.69194618433343,-0.0017762792885307234
150.0,1.6448479330738042,1.4651056614111784,0.7901745929006881,23.56846855411521,-0.0017367510083444286
151.0,2.232766868934807,1.6871873194408784,0.7895880487664104,22.511407899015882,-0.0016959448877754539
152.0,2.9494972515575513,1.9002105231876611,0.7889000278018312,21.4967276678245,-0.001654369742958446
153.0,3.7991808563093734,2.092905346665162,0.7880760399616198,20.52212873262008,-0.0016121562062182087
154.0,4.776134808453433,2.2576526471153238,0.7870994226924114,19.588651544010315,-0.0015694015282104578
155.0,5.865670701812494,2.3907595686306653,0.7860784249533697,18.717425888219626,-0.0015260184243295826
156.0,7.0391015713758245,2.4992548793077463,0.7844828310621255,18.273698895793775,-0.0014810915719348813
157.0,8.287514819237522,2.574155357080459,0.7831934359641368,17.467700430399205,-0.001437258707589738
158.0,9.573989010789903,2.641229310932912,0.781499079602007,16.68363434371352,-0.0013933592580823268
159.0,10.862861132515354,2.7336966242689527,0.7798792636649714,16.325339369187628,-0.0013479461723099253
160.0,12.15863272720878,2.86153477135847,0.7776845588546225,15.597954860726759,-0.001303913444292175
161.0,13.444520719858142,3.072842020231802,0.775902260147662,15.271074390213274,-0.0012590535400321672
162.0,14.755307236257783,3.3790391490486402,0.7732745683995086,14.613098407671107,-0.001215216553382134
163.0,16.112521125696833,3.822373827584948,0.771466228279897,14.332707844768164,-0.001171490023946147
164.0,17.57058686972157,4.424641906738487,0.7682939167652338,13.730674523569487,-0.0011280388879086533
165.0,19.214851657954934,5.174046033317512,0.7661015569659777,13.464494315765906,-0.0010849725857085895
166.0,21.084984096762277,6.083004930841984,0.7633413153505687,13.157630816501365,-0.0010416369718764219
167.0,23.286458103386742,7.087161477679175,0.7597241500984334,12.660467906617068,-0.0009988697301701233
168.0,25.935669417592266,8.069437653060657,0.7575074000985822,12.44502667113556,-0.0009584825944640273
169.0,28.87724323889678,9.148390937027946,0.7544954065468167,12.18508529693305,-0.0009166368277656077
170.0,32.1769559968914,10.237939253439453,0.7502477227094546,11.736062068134226,-0.0008750347901722853
171.0,35.86781886821171,11.254384239225368,0.7474235355223217,11.52725934321462,-0.0008354345552250627
172.0,39.85104360548402,12.22656664514717,0.7449541159912343,11.345954367044891,-0.0007981511577459915
173.0,43.79491514632287,13.485837195436618,0.7409067693648881,11.04970862212176,-0.0007576685865091356
174.0,47.7949765708601,14.966179755972572,0.7364197720736836,10.710319570832755,-0.0007176012414752572
175.0,52.01291115191959,16.526027652454847,0.7334584995182014,10.536087549309247,-0.0006815082560237245
176.0,56.31927910650339,18.296891809744857,0.7309078001795684,10.385002340928196,-0.0006477911566954657
177.0,60.26671208589249,20.779967464980718,0.7272160148106727,10.184279045214204,-0.0006112229864362197
178.0,63.94162966416079,23.950855127814318,0.7222121013784333,9.859095383414354,-0.0005736152293461357
179.0,67.73683690989841,27.38094957125277,0.7180955884576564,9.652596604339964,-0.0005377503828884714
180.0,72.04722475101454,30.555320591645398,0.7152386851835523,9.516234553094545,-0.000506864391059939
181.0,76.38646234949734,33.84272671059123,0.7125546011344724,9.389401633440436,-0.0004772808361362331
182.0,80.18812680992167,37.71618327769139,0.7089440603636213,9.232194560754568,-0.00044601176810101856
183.0,83.02001914937195,42.506696475776174,0.7039628414798631,8.983818351051946,-0.00041210124257969196
184.0,85.37348656871474,47.59638147201171,0.6990269650568531,8.754616356392258,-0.00037912295901353375
185.0,87.93434356392035,52.19447032989339,0.6953463320814567,8.615196477707071,-0.0003508217290743496
186.0,90.30340630158719,56.64427910259464,0.6925119477633247,8.507477346179027,-0.00032538165107976776
187.0,92.03226464400477,61.35306831454709,0.6897544164894401,8.404867471857365,-0.0003008456780939869
188.0,92.69614748735114,66.69283342969905,0.6863428324912964,8.287965695888476,-0.0002760390220746516
189.0,91.80660815930646,73.0640750310061,0.6818114595199974,8.127299097303117,-0.0002490292405084065
190.0,89.60085405642528,80.13276176153774,0.6764976475632021,7.915516622832484,-0.0002210308347728799
191.0,87.2364542948288,86.71886768842556,0.6716271164936082,7.751520238173649,-0.0001952405454494649
