Time,J,A,S,tau
0.0,100.0,10.0,0.9990070941450652,18.200707674304457
1.0,98.25668291224297,15.134821744891354,0.9966172323382246,17.845899439541906
2.0,94.5887473015899,19.938993443306053,0.9941414334258075,17.48804991385718
3.0,89.79072168896231,24.42902880807915,0.9915801593819338,17.127282470689575
4.0,84.38347714771895,28.621136293127577,0.9889338878773742,16.76369377880214
5.0,78.65529920574254,32.53091749902139,0.9862033500161245,16.39738086088486
6.0,72.75985094090827,36.173375643121,0.9833895363022739,16.028441091582234
7.0,66.77953594595996,39.5629183679963,0.9804937013753748,15.656972194669661
8.0,60.75978723208808,42.71338403598887,0.9775173665496906,15.28307223820694
9.0,54.72660863129585,45.63803053696621,0.9744623223693316,14.906839630759633
10.0,48.6956719137301,48.34955830749993,0.9713306275364787,14.52837311399537
11.0,42.676956803159065,50.8601159573968,0.9681246080747576,14.147771756715562
12.0,36.677235100708856,53.18133028435072,0.9648468525247533,13.765134945138797
13.0,30.701385407693177,55.32428856684718,0.9615002099958524,13.38056237782153
14.0,25.61539122635715,56.452946942253035,0.9597832416003113,13.257068627683054
15.0,22.66948752620864,55.442827812832725,0.9587160929091548,13.234206969062777
16.0,21.043376118624145,53.229758439845064,0.9576680139035132,13.212404053239554
17.0,20.138577097973258,50.474024132457195,0.9566420299731233,13.191651377762458
18.0,19.62792475897532,47.533824145103544,0.9556411636100094,13.171940887200124
19.0,19.34686507698152,44.59044112151355,0.954668419101203,13.153264955506806
20.0,19.218399328100368,41.73262994513492,0.9537267669963388,13.135616369529023
21.0,19.21267467020413,39.00203395545458,0.9528191284665976,13.118988313550386
22.0,19.32651613682505,36.41627856829503,0.9519483596044355,13.103374354640454
23.0,19.572881828100225,33.98062123920101,0.9511172360033219,13.088768429073758
24.0,19.97514715959049,31.693896106619658,0.9503284373554914,13.075164829834133
25.0,20.563436279769657,29.551605644112584,0.9495845329896365,13.06255819400453
26.0,21.372024107414777,27.547578208537008,0.9488879669775697,13.050943492705954
27.0,22.436584074668563,25.67524978709347,0.9482410445524732,13.040316020561491
28.0,23.78962115146435,23.930287691315115,0.9476459192833657,13.030671385628237
29.0,25.459959752883893,22.308735758825247,0.9471045801420334,13.022005502013176
30.0,27.470285827182412,20.807384031330276,0.9466188411804648,13.014314580284573
31.0,29.833601656038034,19.42505615614626,0.9461903300829787,13.007595121785426
32.0,32.55015558411381,18.163387530755234,0.9458204788053566,13.001843911417025
33.0,35.60453192148853,17.027301107512567,0.9455105169146418,12.997058010488699
34.0,38.963078881022945,16.025335639213125,0.9452614632423332,12.993234753505382
35.0,42.57254637934171,15.169705130105923,0.9450741207539342,12.990371741959786
36.0,46.35952462583898,14.475995043094223,0.9449490720725493,12.988466841028226
37.0,50.231542458088846,13.962553144918255,0.9448866766841136,12.987518175362972
38.0,54.079145776639706,13.649541107640111,0.9448870685053414,12.987524127150133
39.0,57.778821233035345,13.557710176234263,0.9449501565816469,12.988483332755111
40.0,61.19635562061512,13.707034767894458,0.9450756254528353,12.990394681525778
41.0,64.19113790858876,14.115038805927593,0.9452629377482817,12.993257314338889
42.0,66.62259176038168,14.794978785299751,0.9455113378784911,12.99707062292037
43.0,68.35968166285072,15.75431261772283,0.9458198570164752,13.001834249693152
44.0,69.29393921104202,16.993198376840112,0.946187319466726,13.007548088042517
45.0,69.35415702374318,18.503026953458004,0.9466123498189077,13.014212283558804
46.0,68.51823280342816,20.26516448847405,0.9470933818973638,13.021827234601453
47.0,66.81794607581779,22.249931767119882,0.9476286680052155,13.030393595411889
48.0,64.33445405435583,24.41626570602926,0.948216290059756,13.03991227734139
49.0,61.18643757893282,26.712030827393477,0.9488541705291018,13.050384452754649
50.0,57.51478063702595,29.075202119943928,0.9495400850981682,13.061811558115503
51.0,53.46881390133197,31.435636097970075,0.9502716755344772,13.07419529807721
52.0,49.19690383904549,33.71708632713797,0.951046463316386,13.08753765004207
53.0,44.84184653199705,35.83920468955417,0.9518618637196582,13.10184086925529
54.0,40.539398222930224,37.71981095835748,0.9527152002836312,13.117107494438882
55.0,36.417114775281014,39.27846371881402,0.953603719543071,13.133340353982721
56.0,32.59094942086378,40.44242168892174,0.9545246059205748,13.150542572710009
57.0,29.158529963500264,41.155180043095726,0.9554749966747993,13.16871757913701
58.0,26.190320460510414,41.38600423386302,0.9564519967702243,13.187869113281993
59.0,23.721987877335756,41.13722371329223,0.95745269357032,13.208001235136102
60.0,21.751635184405274,40.44586858132937,0.9584741712508313,13.229118333791059
61.0,20.244312837802006,39.378132535811574,0.9595135248746826,13.251225136928708
62.0,19.142388766682533,38.01815399089359,0.9605678739083473,13.274326720742067
63.0,18.378664391179733,36.45478736888278,0.9616343752845969,13.298428521221922
64.0,17.888300347512956,34.77022380693461,0.9627102357582727,13.323536345287645
65.0,17.616901501005785,33.03288737250343,0.9637927235730276,13.349656382863145
66.0,17.524173012623095,31.29489850309945,0.9648791793217704,13.37679521942185
67.0,17.584069871100155,29.592935257885337,0.9659670260947532,13.404959849672226
68.0,17.78283530511181,27.95095001987307,0.9670537783545361,13.434157690171427
69.0,18.11633122389821,26.383302233109916,0.9681370507636167,13.464396596244365
70.0,18.58725983367402,24.89771373586545,0.9692145650872371,13.495684875249571
71.0,19.202777014420867,23.497584334235572,0.9702841567551173,13.528031303268358
72.0,19.972463321104062,22.18372915829149,0.9713437800377918,13.561445140856467
73.0,20.90663031000552,20.95562580815692,0.9723915126453753,13.595936150797492
74.0,22.014826722151202,19.81230669418294,0.973425559170713,13.631514615694764
75.0,23.304446086837558,18.752999662945026,0.974444253627903,13.668191356368741
76.0,24.77935586406834,17.77757175792613,0.9754460603363018,13.70597774795583
77.0,26.438596889090988,16.886898565316628,0.9764295778436273,13.744885752344384
78.0,28.27508772617667,16.082976491350415,0.9773935337725631,13.78492791738189
79.0,30.274299060014513,15.369028275648027,0.9783367874547646,13.82611741307112
80.0,32.413339091537864,14.749470219805188,0.979258327456814,13.868468048684845
81.0,34.660137255033895,14.229768881033962,0.9801572690419373,13.911994294241422
82.0,36.97324544540344,13.816259736123888,0.9810328516401475,13.956711304538837
83.0,39.30204928875427,13.515879604136172,0.9818844346109002,14.002634938473365
84.0,41.587648073482825,13.335881068912927,0.9827114940375693,14.049781787153965
85.0,43.764451793350815,13.283495460997145,0.9835136174086657,14.098169192668534
86.0,45.7626162717767,13.36558245495015,0.9842904993070762,14.147815275459033
87.0,47.51124376481788,13.588232095239464,0.9850419359807578,14.1987389575779
88.0,48.94244743694665,13.956345099974397,0.9857678197086402,14.250959985409743
89.0,49.99606358782724,14.473159151219527,0.9864681334238794,14.304498957050907
90.0,50.62449193613505,15.139732675403444,0.9871429445688698,14.359377344343336
91.0,50.797138931491205,15.954390927282716,0.987792399361553,14.415617518961167
92.0,50.503362344454914,16.912130093233984,0.9884167166004862,14.47324277454779
93.0,49.753503900054284,18.00403372598577,0.9890161820200737,14.532277354582572
94.0,48.57736043349673,19.216744577910493,0.9895911419504376,14.592746472393419
95.0,47.02084157827384,20.53207705872347,0.990141997713214,14.654676336445233
96.0,45.14139434765417,21.926849540521676,0.9906691995777485,14.718094167359718
97.0,43.003436132812716,23.372926560155577,0.9911732416204404,14.783028228779662
98.0,40.67439133840708,24.837672337742138,0.9916546559335604,14.849507839022618
99.0,38.22188460699411,26.28469506302349,0.9921140076809544,14.917563397342022
100.0,35.711898736730255,27.67502941646188,0.9925518899356484,14.98722639655338
101.0,33.20750499652362,28.968674714409772,0.9929689190729762,15.058529443473121
102.0,30.767711950352115,30.126553443610145,0.9933657302120835,15.131506271495708
103.0,28.446068935904968,31.112785349123694,0.9937429730401348,15.206191753641919
104.0,26.2888904380416,31.89721084638185,0.9941013078542528,15.282621914865357
105.0,24.333301910032407,32.45781509851257,0.9944414018917107,15.360833936569279
106.0,22.605354428309088,32.78282429061703,0.994763925937208,15.440866167160706
107.0,21.118876187042385,32.871845109759256,0.9950695512081076,15.522758118324656
108.0,19.87527091984487,32.73593085298155,0.9953589464967454,15.606550470564994
109.0,18.864707949957477,32.396213604244096,0.995632775604077,15.692285067196881
110.0,18.06856479279222,31.881388988729626,0.9958916949757889,15.780004903971006
111.0,17.462607748483713,31.224506016915754,0.9961363516832635,15.869754116687044
112.0,17.020431195479173,30.45965245706159,0.9963673815242697,15.961577969824727
113.0,16.716556913622437,29.61909120092742,0.9965854074635352,16.055522830927668
114.0,16.52874846494881,28.731252512140323,0.9967910382310773,16.151636146579772
115.0,16.439417449261686,27.819669035291078,0.9969848671046507,16.249966412677114
116.0,16.436137982525405,26.902785891134535,0.9971674709983478,16.350563133402325
117.0,16.51157927081048,25.994315383308958,0.9973394095325988,16.45347678579461
118.0,16.662982526420155,25.103982009267693,0.997501224483843,16.558758766154085
119.0,16.891495843910914,24.238340975691134,0.9976534392789851,16.66646133651291
120.0,17.20149733188044,23.40155373093833,0.9977965585095888,16.77663756933225
121.0,17.59989162572191,22.59608474595043,0.997931068022663,16.889341267049602
122.0,18.095572320508385,21.823210846434907,0.9980574345154619,17.004626899359987
123.0,18.69889663497389,21.083441588523616,0.9981761056813785,17.122549516465664
124.0,19.42122510447036,20.37682042734137,0.9982875102827038,17.24316466102432
125.0,20.274486348612594,19.703148309414495,0.9983920583316617,17.366528271976343
126.0,21.27075068368564,19.062150116795994,0.9984901413382768,17.492696581004505
127.0,22.421795175133713,18.453601272080867,0.9985821326397617,17.621726001224708
128.0,23.73865340282631,17.87742568029665,0.998668387780143,17.753673008666368
129.0,25.231147787377203,17.33377355744601,0.9987492449341806,17.888594016456878
130.0,26.907408786589496,16.82308226297573,0.9988250253921497,18.026545242290297
131.0,28.77338922025505,16.346124555010977,0.9988960340252322,18.167582568142493
132.0,30.832392963043493,15.904042719094775,0.9989625598133867,18.311761393445355
133.0,33.08456807627986,15.49837346524229,0.9990248762086914,18.45913646638634
134.0,35.526778130596085,15.131050294252805,0.9990832422567769,18.60976176577147
135.0,38.15195067978369,14.804403010328413,0.9991379024736319,18.763690285233306
136.0,40.94908025692741,14.521147863735688,0.999189087721513,18.920973878144622
137.0,43.90315766060845,14.284352800822488,0.999237015965525,19.081663103324125
138.0,46.99517180511501,14.097416218053944,0.9992818925412592,19.24580701347674
139.0,50.20234456727861,13.96402128078698,0.9993239108580209,19.413452982366568
140.0,53.498437490669716,13.88808632580876,0.9993632529372019,19.584646513313835
141.0,56.854176299238404,13.873706681989086,0.9994000899601932,19.759431046788425
142.0,60.23775800440577,13.925089784528675,0.9994345828044663,19.937847765786398
143.0,63.615419691726494,14.046483115690034,0.9994668825662217,20.1199353996989
144.0,66.95205121694282,14.24209617360941,0.9994971310682964,20.305730027409925
145.0,70.21184182277858,14.516017325570745,0.9995254613522683,20.495264880380898
146.0,73.35895782020634,14.872126577707078,0.9995519981539515,20.68857014650032
147.0,76.35825212390682,15.314005428200282,0.9995768583616507,20.88567277548027
148.0,79.17600677264184,15.844845122968497,0.9996001514564891,21.0865962863955
149.0,81.78069731928834,16.46735472631827,0.9996219799353495,21.29136057857626
150.0,84.14375871323546,17.183670748522275,0.9996424397155848,21.49998174629672
151.0,86.2403152946088,17.9952704599595,0.9996616205230806,21.71247189917206
152.0,88.04982976789641,18.902889514805302,0.9996796062559992,21.92883898207627
153.0,89.55662268693658,19.906451872427407,0.9996964753473313,22.14908661585973
154.0,90.75018998234546,21.00501265847102,0.9997123011164482,22.37321395670545
155.0,91.62546591014049,22.196692312042323,0.9997271519872573,22.6012154439013
156.0,92.18261133170526,23.478645468895596,0.9997410918509356,22.83308068028112
157.0,92.42660451764355,24.847095793915827,0.9997541804996101,23.06879451092423
158.0,92.36699171319276,26.297280732899768,0.9997664736552295,23.308336593217074
159.0,92.01718674686441,27.823505708297255,0.9997780233230222,23.551681386580956
160.0,91.39376681187706,29.41919457292904,0.9997888780420353,23.798798054139105
161.0,90.51576940754786,31.07696047800673,0.9997990831097004,24.049650363790988
162.0,89.40401406269183,32.78869009406695,0.9998086807910143,24.304196594857814
163.0,88.0804760713048,34.54564156119754,0.9998177105128374,24.562389447000356
164.0,86.56773094990503,36.33855240528114,0.9998262090335337,24.82417592024412
165.0,84.88848966219277,38.15776221303254,0.9998342106359004,25.089497275339152
166.0,83.06523557616708,39.99333379133866,0.999841747299908,25.358288997432144
167.0,81.11995042247902,41.835170399865994,0.9998488488549748,25.630480747342794
168.0,79.07391312167364,43.6731293107552,0.9998555431228573,25.905996320354316
169.0,76.94755367571139,45.49713112172384,0.9998618560438339,26.184753583639047
170.0,74.76036180803771,47.29726535101531,0.9998678118016128,26.4666644314916
171.0,72.53084175168297,49.06388451263679,0.9998734329552056,26.751634809144544
172.0,70.27648563190064,50.78769048612572,0.999878740548945,27.03956470330953
173.0,68.01376184647523,52.459815306617124,0.999883754214469,27.33034813414967
174.0,65.75810956044428,54.07189772229034,0.9998884922645879,27.623873144035777
175.0,63.52392998531996,55.61616075157555,0.999892971775228,27.920021752712522
176.0,61.324594342569156,57.08547867208326,0.9998972086780471,28.218669993588815
177.0,59.172443235230126,58.473437760912425,0.9999012178417253,28.51968794083607
178.0,57.07878245685515,59.77439361803854,0.999905013143788,28.822939717287497
179.0,55.05387821849445,60.98352196078791,0.9999086075376342,29.128283502791003
180.0,53.106945633486056,62.09686609122437,0.9999120131111752,29.435571511994898
181.0,51.24615134763953,63.11137137651044,0.9999152411456398,29.744649988996432
182.0,49.47862929727093,64.02489626868257,0.9999183021763026,30.055359257375002
183.0,47.81049882465847,64.8362133489667,0.9999212060436655,30.36753373444186
184.0,46.24689281726365,65.54499956942387,0.9999239619391926,30.68100191861724
185.0,44.79199346281834,66.15179679760716,0.9999265784526512,30.995586447856166
186.0,43.44904939109476,66.65800995677515,0.9999290635888939,31.311103799839145
187.0,42.22052520812894,67.06578091795447,0.9999314248477704,31.62736471370372
188.0,41.10809839411887,67.37794072626882,0.9999336692449073,31.944174147443917
189.0,40.11271766355,67.59799435963285,0.9999358032888187,32.261330333824716
190.0,39.23480700148136,67.72987573729509,0.9999378331395248,32.57862670604809
191.0,38.4741808265301,67.77804093609898,0.9999397644696035,32.89584924724254
192.0,37.83031164307344,67.74720295260583,0.9999416026702891,33.212779396384335
193.0,37.302213684002155,67.64237241003444,0.9999433526959634,33.529190898429924
194.0,36.88870445368324,67.46867861296606,0.9999450192592048,33.84485288074531
195.0,36.58829166326618,67.23133592014351,0.9999466066949743,34.15952678729446
196.0,36.39938426852689,66.9355590902798,0.9999481191169107,34.472969066856976
197.0,36.320200176757474,66.58648386529453,0.9999495603226172,34.784928718598934
198.0,36.34891623919731,66.189142605007,0.9999509338983187,35.09514912664278
199.0,36.48359571990221,65.74838723929187,0.9999522431724103,35.403366616859216
200.0,36.72228356952217,65.26887897973498,0.9999534912674137,35.70931111287027
201.0,37.062951263551795,64.75505458214089,0.999954681099334,36.01270595875557
202.0,37.50354490459183,64.21109476654718,0.9999558153832754,36.313267225412204
203.0,38.04195074744345,63.6409530962414,0.9999568966703842,36.61070489391367
204.0,38.6760004431119,63.048289039080295,0.9999579273176978,36.90472081390759
205.0,39.403463192085866,62.43655485304529,0.9999589095513639,37.19501116082299
206.0,40.22201287059469,61.80890026705186,0.9999598454133464,37.48126324694549
207.0,41.1292475359718,61.16829451758657,0.9999607368381438,37.763158949987734
208.0,42.12263012046478,60.517424176231636,0.9999615855899595,38.0403708206378
209.0,43.19952438347427,59.8588189874503,0.9999623933394047,38.312565920589364
210.0,44.35713006730718,59.19476807549561,0.9999631616047737,38.57940192267199
211.0,45.592515293864004,58.52742323327557,0.9999638918168067,38.84053064189011
212.0,46.90256857052735,57.858748523166824,0.9999645852737953,39.09559483077348
213.0,48.28400798666394,57.19059016955387,0.9999652431875857,39.34423080840394
214.0,49.73336713327226,56.52466067437512,0.9999658666572451,39.58606647707897
215.0,51.246966584989195,55.862578033024114,0.9999664566937452,39.82072267061783
216.0,52.820942859263056,55.205875600292735,0.999967014213339,40.047812686697064
217.0,54.45117501184054,54.55602183908529,0.9999675400412548,40.266942232663325
218.0,56.13335458346524,53.91444214120384,0.9999680349217651,40.477710363351925
219.0,57.862884667784336,53.2825337970355,0.9999684995097026,40.67970870675392
220.0,59.634940238254266,52.66168605721986,0.9999689343871428,40.87252301949923
221.0,61.44440419935368,52.053299660284765,0.9999693400473846,41.055732087627185
222.0,63.28586097725388,51.458805544229676,0.9999697169108994,41.22890944090885
223.0,65.15360747813061,50.87967926100885,0.9999700653228261,41.391623432374956
224.0,67.04156375394729,50.317472715219324,0.9999703855449629,41.543437531520354
225.0,68.94331649401478,49.773816342271154,0.9999706777723376,41.68391203084671
226.0,70.85205432203918,49.25045366783854,0.9999709421177224,41.812603895361875
227.0,72.76051701642587,48.74925953720554,0.9999711786186865,41.92906869385689
228.0,74.66103688915503,48.27224179821451,0.9999713872419616,42.032861264526886
229.0,76.54540468885665,47.821595240412016,0.9999715678670623,42.12353726466444
230.0,78.40491264402517,47.39968493086435,0.9999717203026348,42.20065494261928
231.0,80.23030789375368,47.009082812429,0.9999718442725825,42.26377618602516
232.0,82.0117207825955,46.6525825138103,0.9999719394177873,42.31246950008253
233.0,83.73869161332897,46.33320184314309,0.9999720052955604,42.34631140252653
234.0,85.4001481197012,46.05419464576583,0.9999720413746679,42.36488871599374
235.0,86.9843713305892,45.819065183101515,0.9999720470284004,42.36780203070227
236.0,88.4790459648628,45.63154980205164,0.9999720215360449,42.35466799128057
237.0,89.87130332883116,45.4956075829441,0.999971964078596,42.3251217923229
238.0,91.14776193906998,45.41541261534687,0.9999718737275289,42.27882162373682
239.0,92.29463929024745,45.395315071547934,0.9999717494428367,42.215452185219306
240.0,93.29790021751332,45.43979750210694,0.999971590070213,42.1347271414469
241.0,94.14341835375973,45.55343095144574,0.9999713943297103,42.036393667579354
242.0,94.81721481068945,45.740802717508934,0.9999711608049944,41.92023809250161
243.0,95.30572131676188,46.0064374043988,0.9999708879420668,41.78608802572357
244.0,95.59605266205946,46.35471770454473,0.9999705740396688,41.63381612669332
245.0,95.67640734523278,46.789766095462696,0.9999702172296909,41.463347247794516
246.0,95.53640684697582,47.31533604879491,0.9999698154731761,41.274661022096915
247.0,95.16738758257912,47.934713303424004,0.9999693665523449,41.06779404667154
248.0,94.56278315730712,48.65058177446205,0.9999688680511096,40.84284539943682
249.0,93.71857807304131,49.46484244313807,0.999968317328733,40.59998385904603
250.0,92.6331154811438,50.3786383473037,0.9999677115456995,40.3394395982973
