Time,J,A,S,tau
0.0,100.0,10.0,0.9269611150820456,20.1362068203235
1.0,99.96613664199042,9.03799851446609,0.9267035741883255,21.13200771707514
2.0,99.9335132931015,8.168497586775196,0.926452481110848,22.128401715981223
3.0,99.9021248524007,7.38284849069213,0.9262076603010674,23.125157444373155
4.0,99.8718748921513,6.672949796519545,0.9259688560420176,24.122230408436618
5.0,99.8426760636059,6.031476644498773,0.9257358119156748,25.119582015614
6.0,99.81444903446477,5.4518221431987905,0.9255082725497233,26.11717877041758
7.0,99.78712148152128,4.928011904445726,0.9252859849888354,27.114991531157703
8.0,99.76062728791415,4.454657079092501,0.9250686997741512,28.112994918422714
9.0,99.73490579711903,4.026884343486905,0.9248561717433893,29.11116677908373
10.0,99.70990119880828,3.640297504386999,0.9246481606391295,30.10948774842956
11.0,99.6855619736353,3.290921025490439,0.9244444315254143,31.107940863341046
12.0,99.66184041764524,2.9751678617714767,0.9242447550652064,32.10651123636199
13.0,99.63869222599372,2.689794577721164,0.9240489076835829,33.105185775812714
14.0,99.61607612018844,2.4318738340509243,0.9238566716156286,34.10395294191466
15.0,99.59395353278506,2.198759241043139,0.9236678349045365,35.10280254337119
16.0,99.57228831181158,1.988061437406654,0.9234821912934091,36.10172555401219
17.0,99.55104647870137,1.7976209851490457,0.9232995401168526,37.100713963958995
18.0,99.5301959913345,1.625487325975464,0.9231196860901959,38.09976064116166
19.0,99.50970655492644,1.469898218252475,0.9229424391324333,39.098859221476864
20.0,99.48954943010942,1.3292610938401235,0.9227676140918369,40.09800400366847
21.0,99.46969728191215,1.202137703875441,0.922595030523915,41.09718986718435
22.0,99.45012402283575,1.0872276599889268,0.9224245123816903,42.096412192193995
23.0,99.43080468899664,0.9833569642865028,0.9222558877628997,43.09566679703289
24.0,99.41171531054744,0.8894637610649828,0.9220889885847721,44.09494987697114
25.0,99.39283280712438,0.8045896087271037,0.9219236503094878,45.09425795562897
26.0,99.37413487944025,0.7278674089915877,0.9217597116159069,46.09358783762825
27.0,99.35559991848251,0.6585145963107225,0.9215970141097266,47.092936569945195
28.0,99.3372069131666,0.5958231021428813,0.9214354019988655,48.09230140467559
29.0,99.31893536932022,0.5391538955882921,0.9212747217933112,49.09167976741425
30.0,99.30076522909742,0.4879287776840992,0.9211148219867245,50.091069227172746
31.0,99.2826767968473,0.44162588748128095,0.9209555527500763,51.09046746962118
32.0,99.26465066660123,0.3997730958699637,0.9207967656192176,52.08987227178507
33.0,99.24666765260838,0.3619442163094748,0.9206383131857842,53.08928147846743
34.0,99.22870872165682,0.32775376584404636,0.9204800487887396,54.088692979758385
35.0,99.21075492645791,0.2968537052891735,0.9203218262055175,55.08810468924649
36.0,99.19278733987458,0.26892934747157066,0.9201634993447201,56.08751452263022
37.0,99.1747869895064,0.24369650955255379,0.9200049219399663,57.086920376467795
38.0,99.1567347910979,0.22089836873893942,0.9198459472409124,58.08632010630514
39.0,99.13861148263899,0.20030294800566342,0.9196864277117416,59.08571150472154
40.0,99.12039755433041,0.18170074269221614,0.9195262147184244,60.085092277397635
41.0,99.10207318026212,0.16490248942523675,0.919365158233176,61.08446001908589
42.0,99.08361814234598,0.14973740315363562,0.9192031065174583,62.08381218594569
43.0,99.06501175712039,0.13605121232634546,0.9190399058330104,63.083146067774145
44.0,99.04623279103366,0.12370484711495948,0.9188754001225595,64.08245875473658
45.0,99.02725937915326,0.11257274848767827,0.918709430727577,65.08174710371102
46.0,99.00806892894823,0.10254187597546793,0.9185418360714483,66.08100769718213
47.0,98.98863802672614,0.0935102863115986,0.9183724513847269,67.08023680087044
48.0,98.96894232652416,0.08538636878629849,0.9182011083984915,68.07943031198155
49.0,98.94895643886503,0.0780876770089472,0.9180276350797881,69.07858370433068
50.0,98.92865380046923,0.07154032995178197,0.9178518553463607,70.07769196228891
51.0,98.90800653828832,0.06567807453138923,0.9176735888185098,71.07674950826784
52.0,98.88698531459333,0.06044179929854997,0.9174926505712548,72.07575011757795
53.0,98.86555915759499,0.05577883524221055,0.9173088509156462,73.074686821545
54.0,98.84369526837231,0.0516425755479066,0.9171219951947152,74.0735517938033
55.0,98.8213588197802,0.04799188622508356,0.9169318836485484,75.07233622623998
56.0,98.79851270171821,0.044790855932067566,0.9167383112545205,76.07103017102237
57.0,98.77511726992931,0.04200845723623144,0.9165410676963486,77.06962237564704
58.0,98.75113003697268,0.039618224755820296,0.916339937342598,78.06810007876325
59.0,98.72650531702558,0.0375981699437313,0.9161346993035117,79.06644876956955
60.0,98.70119385674418,0.035930575883112416,0.9159251276301505,80.06465192755694
61.0,98.67514237770116,0.03460193766895847,0.9157109915763589,81.06269069874485
62.0,98.64829307639467,0.033602939586028516,0.9154920560258315,82.06054353159338
63.0,98.62058303613752,0.0329285710093113,0.9152680820688653,83.05818574325704
64.0,98.59194341816912,0.03257844866612477,0.915038827782165,84.0555889238717
65.0,98.56229901032717,0.03255655972105339,0.9148040493453135,85.05272055426504
66.0,98.53156701654099,0.03287181536183058,0.9145635022886934,86.04954310807065
67.0,98.49965619097591,0.03353851244795395,0.9143169431956598,87.0460133501497
68.0,98.46646556308066,0.03457671246494215,0.9140641318146845,88.04208133185745
69.0,98.43188308373672,0.036013041187185055,0.9138048336413092,89.0376892990686
70.0,98.39578400963107,0.037881254953109116,0.9135388230981814,90.03277038099053
71.0,98.35802897519706,0.04022343578526752,0.9132658874719625,91.0272470146898
72.0,98.31846190351776,0.04309093062556499,0.9129858315341841,92.02102921067069
73.0,98.27690734803033,0.046545877686088394,0.9126984833646372,93.01401234937978
74.0,98.23316765879133,0.0506626257202061,0.912403701038937,94.00607479507642
75.0,98.18701948601024,0.05552982183037132,0.9121013808696067,94.99707495131493
76.0,98.13820977823308,0.061252564470684376,0.911791467166541,95.98684786401763
77.0,98.08645126114945,0.067954964548083,0.9114739635730731,96.97520135813356
78.0,98.03141702373323,0.07578331860298443,0.9111489467439755,97.96191140097743
79.0,97.97583664977446,0.08966345213759279,0.9108165822049911,98.94671681495002
80.0,97.91961442542255,0.10927782377644238,0.9104771424980205,99.929313302395
81.0,97.8605984800896,0.13175243807976486,0.9101310288112546,100.90934633538726
82.0,97.798614551039,0.15754505000775845,0.909778795067376,101.88640333761379
83.0,97.7334904034534,0.18718727229879562,0.9094211756822328,102.86000469375823
84.0,97.665061901265,0.22129532386083264,0.9090591162166176,103.82959388015888
85.0,97.59318144715286,0.2605819044262088,0.9086938073850996,104.79452652777644
86.0,97.51772938172908,0.3058689435048187,0.908326721742616,105.75405863532325
87.0,97.43862913579517,0.3581008602537903,0.9079596520044717,106.7073342473465
88.0,97.35586702304879,0.41835803542797534,0.9075947500565186,107.65337285199236
89.0,97.26951761440294,0.4878698666164638,0.9072345647783443,108.59105705104706
90.0,97.17977551509135,0.5680262554740332,0.9068820753077425,109.51912152991937
91.0,97.08699443711811,0.6603865528033878,0.9065407167391988,110.43614419069964
92.0,96.99173399354163,0.7666843972781023,0.9062143935660013,111.3405408508579
93.0,96.89481402057126,0.8888265963158483,0.905907475296359,112.2305651743485
94.0,96.79737515328934,1.0288840955142626,0.9056247683158468,113.10431560179845
95.0,96.70094298040962,1.1890730531245879,0.9053714579573753,113.95975108042133
96.0,96.60749100973305,1.3717242047887428,0.905153015269213,114.7947172549025
97.0,96.51949555157894,1.579239396851574,0.9049750649518119,115.60698415577605
98.0,96.43997170624226,1.8140351058069513,0.9048432138374793,116.39429560905374
99.0,96.37247928184162,2.078474129401562,0.9047628432514379,117.15442931192754
100.0,96.32108369568924,2.374787955450889,0.904738872670716,117.88526535380625
101.0,96.29025532990902,2.7049963857952473,0.9047755147677364,118.58485740175257
102.0,96.28469929006778,3.070825602067063,0.9048760239772692,119.25150519785478
103.0,96.30910265146916,3.4736392093958397,0.9050424843704354,119.88381573267452
104.0,96.36780583245219,3.9143819817358474,0.9052756342214728,120.48075290594119
105.0,96.4644123919706,4.39354687873795,0.9055747604693604,121.04166646007198
106.0,96.60130777931998,4.911150831531426,0.9059376146577283,121.56631247492479
107.0,96.77923771262094,5.466766899428711,0.9063605061747884,122.05482427359865
108.0,96.996918006263,6.059556239911997,0.9068383900101563,122.50768301364215
109.0,97.25062755556485,6.688310634575202,0.9073649821561236,122.92567815399347
110.0,97.53401773956747,7.351528031399977,0.9079329827129555,123.30983913144976
111.0,97.83805241426435,8.047480115161363,0.9085342695269217,123.66137398314513
112.0,98.15113017241602,8.774282780770987,0.9091601033592606,123.9816053835462
113.0,98.45938986098743,9.529960504296533,0.9098013147620425,124.27191220272319
114.0,98.74718803457837,10.312502230977195,0.9104484660499925,124.53367871450286
115.0,98.99771893457638,11.119906968469072,0.9110919829180928,124.76825305825305
116.0,99.19373801174264,11.95021876093267,0.9117222543311979,124.97691518552047
117.0,99.31833206424606,12.801551090408736,0.9123297016471926,125.16085426774156
118.0,99.35566488118889,13.672101458631733,0.9129048197519022,125.32115502734185
119.0,99.29167705843508,14.560159591817094,0.9134381967226495,125.45878938516051
120.0,99.11460530737313,15.464107087483079,0.9139205134127895,125.57461637101504
121.0,98.81537502795456,16.382414220112004,0.9143425322403723,125.66938403694526
122.0,98.38787911577147,17.313635205322292,0.9146950773590097,125.7437327063091
123.0,97.82905614144154,18.256399000421208,0.914969005226885,125.7982010947471
124.0,97.13851564127698,19.209394290855663,0.9151551763640796,125.83324186959351
125.0,96.31856190957836,20.171366376985688,0.9152444234382667,125.84922060782428
126.0,95.55008173575825,20.965362059129987,0.9305807162045368,49.60755088459849
127.0,94.93431840530623,21.51752103129747,0.9369146884619524,32.00874165541427
128.0,93.80536980798641,22.48409144495599,0.9373086577659852,28.12785224139436
129.0,92.31906316751122,23.70041922858435,0.9365818795877447,25.94718250637798
130.0,90.53736754807838,25.104600573235963,0.9352979101231614,24.455395476370544
131.0,88.51814652972028,26.644407344090435,0.9336545918363144,23.3316040705149
132.0,86.32225215329788,28.267975288336775,0.9317457941862709,22.433112152442664
133.0,84.01264462195314,29.92263902731574,0.9296236981376971,21.68436661227882
134.0,81.65148681673104,31.556225556381783,0.9273203380810409,21.040812395155697
135.0,79.29692379007162,33.119296921006,0.9248567636318377,20.47419514427076
136.0,77.00023780303793,34.567623885063924,0.9222475066956276,19.965651630496524
137.0,74.80364789963127,35.864441926477234,0.9195029840644762,19.50210563816688
138.0,72.73896186506916,36.98208078956897,0.9166309012261564,19.07421624531965
139.0,70.82698905595294,37.90287235279449,0.9136371052839627,18.67517125071294
140.0,69.07787382852483,38.619110296248536,0.910526149125096,18.29990502219506
141.0,67.49208925153037,39.132269835633615,0.9073016648823877,17.944599244852746
142.0,66.0620196372851,39.45157071728586,0.9039666290071671,17.606342294179107
143.0,64.77363572753183,39.592401350512425,0.9005235590162436,17.282879915800233
144.0,63.588246640676964,39.59456288260355,0.8969746468677685,16.97245570419543
145.0,62.497770319323784,39.46700786510245,0.8933218748146603,16.673688711673133
146.0,61.50725484117483,39.20563362842518,0.889567099776069,16.385480286157847
147.0,60.603442053724315,38.824651348977405,0.8857121195192923,16.106948305342154
148.0,59.7646310072121,38.34664950329642,0.8817587258170302,15.837377088734398
149.0,58.96749518694569,37.79575476868137,0.8777087485575038,15.57617963536941
150.0,58.191681294638244,37.19304910910649,0.8735640912223341,15.322868751957893
151.0,57.42175619200375,36.55465922786076,0.869326759776814,15.077035062225514
152.0,56.64714844602426,35.89185617518311,0.8649988856598538,14.838330055571488
153.0,55.861157826521826,35.212082390366255,0.8605827461008025,14.606453296078172
154.0,55.059783895702324,34.52015171187977,0.8560807803073641,14.381142325841509
155.0,54.240773765112536,33.81922194989695,0.8514955979904928,14.162164599770572
156.0,53.402982052986886,33.11144652560587,0.846829991303936,13.949311575359692
157.0,52.54599621931722,32.39837265630558,0.8420869592240232,13.742395265534562
158.0,51.66983940596999,31.68122688164505,0.8372696584881217,13.541241364810903
159.0,50.77489018891039,30.96102614691945,0.8323815003894514,13.34569093360813
160.0,49.86171856922276,30.238726870460084,0.8274260267723862,13.155593204293849
161.0,48.93112201252143,29.515219419017715,0.8224070634185302,12.970808956604435
162.0,47.984060580834374,28.791362285332795,0.8173285352314191,12.791203790904577
163.0,47.021715776781164,28.067983946604443,0.8121946610902361,12.616652390038785
164.0,46.045402790836235,27.34590340858473,0.8070097457241905,12.447032659201016
165.0,45.05665465034912,26.62594096359564,0.8017783787983285,12.28222971219213
166.0,44.05712041645042,25.908917240405433,0.796505224149799,12.1221310391814
167.0,43.04867338548311,25.195671484902267,0.7911952095558582,11.966630048162076
168.0,42.03328962591183,24.487046630504977,0.7858533284421824,11.815622090723329
169.0,41.013172841760046,23.783914135150457,0.7804848059989996,11.66900752317199
170.0,39.99062222357058,23.087154062091486,0.7750949389254905,11.526688620153118
171.0,38.968127241017456,22.397677034120157,0.7696891868720966,11.388571493104683
172.0,37.94827657600563,21.71641134855613,0.7642730886272213,11.254564536371774
173.0,36.93379526076866,21.044324121862083,0.7588523170747421,11.124579378414653
174.0,35.92747010445674,20.382409587328336,0.7534326016422168,10.998530007395766
175.0,34.93215160362118,19.731704328475544,0.7480197629499094,10.876333014321615
176.0,33.95068261133936,19.093291443706505,0.7426196707927732,10.757907653866727
177.0,32.985862467411934,18.46829282275707,0.7372382348262713,10.64317523195289
178.0,32.04038961605183,17.857898980276552,0.7318814070215569,10.532059862464656
179.0,31.116766181454558,17.26333537797013,0.7265551340214174,10.424487529892295
180.0,30.21729391597535,16.68590299050721,0.7212653852916842,10.320386780499486
181.0,29.343888704007433,16.12693775728347,0.7160180926116875,10.219688218760377
182.0,28.498166066816804,15.587834102615766,0.7108191813720555,10.122324560897846
183.0,27.681193480527945,15.070016742108585,0.705674516564817,10.028230854422354
184.0,26.893614122346833,14.574928963977262,0.7005899217734227,9.937343936744552
185.0,26.13548091763745,14.104013105464846,0.6955711449290399,9.849602892449843
186.0,25.406270835976766,13.658669310705758,0.6906238504136447,9.76494873800999
187.0,24.704944452411503,13.240237540553041,0.6857536177712945,9.683324383537666
188.0,24.02995438724609,12.849947557230232,0.6809659186682897,9.604674787432383
189.0,23.37927342339028,12.488859817792317,0.6762661065048552,9.528946747237612
190.0,22.750554105392848,12.157844659818842,0.6716594186814948,9.456088849009447
191.0,22.141244962902476,11.857506913816017,0.6671509520939222,9.386051613759216
192.0,21.548654165038933,11.588137888765997,0.662745659362953,9.318787308450268
193.0,20.97015268532476,11.349706331743963,0.6584483517674894,9.254249889795046
194.0,20.403345232216598,11.141787282853985,0.6542636742089675,9.192395142957976
195.0,19.846085609002145,10.963558833670223,0.6501961077396783,9.133180510000813
196.0,19.296644143269642,10.813826760871663,0.6462499729021205,9.076565029720946
197.0,18.753842262463422,10.69099930947231,0.6424294034833954,9.022509481738993
198.0,18.21692568798751,10.593154126292792,0.6387383619677015,8.970976169443684
199.0,17.6856814927169,10.518079116848941,0.635180625684815,8.921928995982972
200.0,17.160380776867548,10.46334510990979,0.6317597873432091,8.87533340201069
201.0,16.641721115794734,10.426381439260142,0.6284792512539915,8.831156346994968
202.0,16.130739854361483,10.404558240839188,0.625342230786772,8.789366287372973
203.0,15.628719416559905,10.395268970494538,0.622351748414557,8.749933141216541
204.0,15.137095795511305,10.396004849025097,0.6195106350313826,8.712828261225498
205.0,14.65736724089948,10.404418514640506,0.6168215295846262,8.678024409699708
206.0,14.191010698004057,10.418375492567591,0.6142868790437601,8.645495734189346
207.0,13.739410961639168,10.435991971090148,0.611908937498687,8.615217748581685
208.0,13.30379914975,10.455657383196995,0.6096897672145596,8.587167312353195
209.0,12.885214506268753,10.476040291507026,0.6076312413778278,8.56132259732176
210.0,12.484476636264871,10.496087615174138,0.6057350425519585,8.537663080723057
211.0,12.102179739138867,10.51500280902606,0.6040026717477597,8.51616948198799
212.0,11.738685981695383,10.532236350654992,0.6024354358974382,8.49682379046037
213.0,11.394116815335638,10.547460009202737,0.6010344551937883,8.479609290167309
214.0,11.068419912395061,10.560506965161268,0.599800696959058,8.464510270111054
215.0,10.76129865121161,10.571406344758065,0.5987348891171351,8.451512596798816
216.0,10.472374293800963,10.580265756513992,0.5978376145729648,8.440602875364817
217.0,10.201062316938092,10.587316162571875,0.5971092870506116,8.431769136142645
218.0,9.946697818639679,10.592848076771975,0.5965501372148655,8.425000408871192
219.0,9.708511715305134,10.597203374040317,0.596160206881075,8.420287003421029
220.0,9.485683788258568,10.60074427030009,0.5959393929896085,8.417620133593845
221.0,9.277351642457594,10.603841686644012,0.5958873847906292,8.416992283076878
222.0,9.082618337485965,10.606863739919877,0.5960037385813326,8.41839686807926
223.0,8.900598734557219,10.610158298564965,0.5962878103000991,8.421828424147508
224.0,8.730391932311072,10.614052511631455,0.596738809475603,8.427282536351113
225.0,8.571133689641433,10.618843141436873,0.597355771977816,8.434755725016867
226.0,8.421972221518768,10.624792781594783,0.5981375610811313,8.444245662570614
227.0,8.282090847073531,10.632133663995521,0.5990828971749961,8.455750837719611
228.0,8.150718815823604,10.641057183620038,0.6001903063580408,8.469270892582378
229.0,8.0271084092983,10.651727260961177,0.6014581872498043,8.484806290936854
230.0,7.910577237241425,10.664269871450562,0.6028847458068922,8.502358530294075
231.0,7.800463770371144,10.67878430291651,0.6044680512110141,8.52193002750046
232.0,7.69616991014983,10.695340582909713,0.6062060029935397,8.543524066901474
233.0,7.59712859344601,10.713982805289833,0.6080963405224998,8.567144952776895
234.0,7.502820216164534,10.734734815283138,0.6101366628324151,8.592797731973121
235.0,7.412771451517876,10.757597475338727,0.6123243888227299,8.620488493934618
236.0,7.326538910078699,10.782557612100396,0.6146568145678539,8.65022405106189
237.0,7.243733716120265,10.809584644005264,0.6171310567067766,8.682012167724094
238.0,7.163989774214943,10.838637379875403,0.6197441049560289,8.715861404524913
239.0,7.086990001090482,10.869663498496603,0.6224927930306259,8.751781121472945
240.0,7.012444106434007,10.902602444833315,0.6253738083609658,8.789781582861735
241.0,6.9401017215673235,10.937387487760766,0.6283837113005288,8.829873696690226
242.0,6.869740991746311,10.973946659263474,0.6315189051784101,8.872069345413706
243.0,6.801174766827985,11.012204849259593,0.6347756847948254,8.91638095743699
244.0,6.734240882314416,11.052085097881363,0.6381501928810638,8.962821941624497
245.0,6.668814661316158,11.093509178324739,0.6416384644269797,9.011406242305432
246.0,6.604783477182755,11.13639988957095,0.6452364167730523,9.062148631533038
247.0,6.542083365553248,11.180681440399646,0.6489398249684991,9.11506467216901
248.0,6.48064756831231,11.22627860887083,0.6527444211494852,9.170170233456997
249.0,6.420454180172039,11.273122803949553,0.6566457556385241,9.227482437183989
250.0,6.361507274269791,11.32114801586111,0.6606393254990338,9.287018745762623
