Time,J,A,S,tau,r
0.0,1.0,1.0,0.5553907362586107,23.809523809523807,0.0
1.0,9.425909271413593,3.676383387150588,0.5553907362586107,23.809523809523807,0.027691791365480455
2.0,29.104292731520548,6.2695535051605695,0.5553907362586107,23.809523809523807,0.02769179136548045
3.0,58.3505379071227,8.78209760201542,0.5553907362586107,23.809523809523807,0.02769179136548046
4.0,95.6978202719353,11.216522486885138,0.5553907362586107,23.809523809523807,0.027691791365480452
5.0,139.86824429551382,13.575257024548403,0.5553907362586107,23.809523809523807,0.027691791365480452
6.0,189.74803012144744,15.86065457664812,0.5553907362586107,23.809523809523807,0.027691791365480445
7.0,244.36620263360484,18.074995302328585,0.5553907362586107,23.809523809523807,0.02769179136548044
8.0,302.87616108767884,20.22048852889695,0.5553907362586107,23.809523809523807,0.02769179136548044
9.0,364.53980952667894,22.29927483101923,0.5553907362586107,23.809523809523807,0.02769179136548044
10.0,428.71378927726767,24.313428249195752,0.5553907362586107,23.809523809523807,0.027691791365480445
11.0,494.8375918078825,26.264958350198988,0.5553907362586107,23.809523809523807,0.027691791365480445
12.0,562.4231067760531,28.155812373753392,0.5553907362586107,23.809523809523807,0.02769179136548044
13.0,631.0459020192815,29.987876632792673,0.5553907362586107,23.809523809523807,0.027691791365480438
14.0,700.3370112271593,31.762979122344117,0.5553907362586107,23.809523809523807,0.02769179136548044
15.0,769.9764315371333,33.482891000607495,0.5553907362586107,23.809523809523807,0.02769179136548044
16.0,839.6870724533576,35.149328380974254,0.5553907362586107,23.809523809523807,0.02769179136548044
17.0,909.2295016333231,36.76395376601378,0.5553907362586107,23.809523809523807,0.02769179136548044
18.0,978.3974291167159,38.32837805372087,0.5553907362586107,23.809523809523807,0.02769179136548044
19.0,1047.013724729884,39.844162092862575,0.5553907362586107,23.809523809523807,0.02769179136548044
20.0,1114.9268622697043,41.312818719136224,0.5553907362586107,23.809523809523807,0.027691791365480438
21.0,1182.0077355083197,42.73581417107933,0.5553907362586107,23.809523809523807,0.02769179136548044
22.0,1248.147387548279,44.11456590973746,0.5553907362586107,23.809523809523807,0.027691791365480445
23.0,1313.254539623213,45.45044874604437,0.5553907362586107,23.809523809523807,0.02769179136548045
24.0,1377.1235552869084,46.87629958949624,0.5553907362586107,23.809523809523807,0.02769179136548045
25.0,1435.5949700973988,52.87667212198754,0.5553907362586107,23.809523809523807,0.027691791365480455
26.0,1486.5847400144742,64.87506204682926,0.5553907362586107,23.809523809523807,0.027691791365480452
27.0,1526.5388369456873,81.92430068892996,0.5553907362586107,23.809523809523807,0.02769179136548046
28.0,1550.1658849972916,103.20181214817627,0.5553907362586107,23.809523809523807,0.027691791365480462
29.0,1553.8068187051147,127.9930879898476,0.5553907362586107,23.809523809523807,0.027691791365480462
30.0,1537.0080231438747,155.67747947722467,0.5553907362586107,23.809523809523807,0.027691791365480462
31.0,1502.0959232953733,185.7159465025287,0.5553907362586107,23.809523809523807,0.027691791365480462
32.0,1452.844145139735,217.64051766973972,0.5553907362586107,23.809523809523807,0.027691791365480455
33.0,1393.228870539329,251.04513288891368,0.5553907362586107,23.809523809523807,0.027691791365480445
34.0,1326.6883694662783,285.5777494319071,0.5553907362586107,23.809523809523807,0.027691791365480438
35.0,1255.8619083767235,320.9334983568415,0.5553907362586107,23.809523809523807,0.02769179136548044
36.0,1182.623949089395,356.84874788804467,0.5553907362586107,23.809523809523807,0.02769179136548044
37.0,1108.2416350882734,393.09587971215313,0.5553907362586107,23.809523809523807,0.027691791365480445
38.0,1033.546613543539,429.4788958705213,0.5553907362586107,23.809523809523807,0.02769179136548044
39.0,959.0808179986763,465.8293220574429,0.5553907362586107,23.809523809523807,0.027691791365480434
40.0,885.1986909919833,502.0029477778292,0.5553907362586107,23.809523809523807,0.027691791365480438
41.0,812.1370733869613,537.8767597439942,0.5553907362586107,23.809523809523807,0.027691791365480438
42.0,740.0587542346864,573.34630745224,0.5553907362586107,23.809523809523807,0.027691791365480438
43.0,669.0790871501714,608.3233794218729,0.5553907362586107,23.809523809523807,0.02769179136548044
44.0,599.2819068169324,642.734053554902,0.5553907362586107,23.809523809523807,0.02769179136548044
45.0,530.7291825380206,676.5170243194692,0.5553907362586107,23.809523809523807,0.027691791365480438
46.0,463.4672042792352,709.6218840427687,0.5553907362586107,23.809523809523807,0.027691791365480438
47.0,397.5304692876946,742.0075380187295,0.5553907362586107,23.809523809523807,0.02769179136548044
48.0,332.933288234241,773.6518521518212,0.5553907362586107,23.809523809523807,0.02769179136548044
49.0,269.4174545704735,804.8039071596302,0.5553907362586107,23.809523809523807,0.027691791365480445
50.0,207.68352438315102,834.7539316572681,0.5553907362586107,23.809523809523807,0.02769179136548044
51.0,150.51724630324955,860.7192221302946,0.5553907362586107,23.809523809523807,0.027691791365480445
52.0,101.2236395206307,879.4193719886529,0.5553907362586107,23.809523809523807,0.02769179136548045
53.0,61.88206750782463,888.8177123400725,0.5553907362586107,23.809523809523807,0.02769179136548045
54.0,32.717945040319,888.7379257398372,0.5553907362586107,23.809523809523807,0.02769179136548046
55.0,12.49414658612124,880.460840060023,0.5553907362586107,23.809523809523807,0.02769179136548047
56.0,-0.7193112257572309,865.9476016113884,0.5553907362586107,23.809523809523807,0.02769179136548048
57.0,-8.894574827896813,847.1870522722572,0.5553907362586107,23.809523809523807,0.02769179136548049
58.0,-13.68680889935445,825.8381545556964,0.5553907362586107,23.809523809523807,0.02769179136548049
59.0,-16.32567112894124,803.1245156886094,0.5553907362586107,23.809523809523807,0.027691791365480486
60.0,-17.650715894924357,779.8729351317169,0.5553907362586107,23.809523809523807,0.02769179136548048
61.0,-18.200878944345487,756.6054773374434,0.5553907362586107,23.809523809523807,0.027691791365480483
62.0,-18.30646867671987,733.63334491725,0.5553907362586107,23.809523809523807,0.027691791365480483
63.0,-18.16287348736722,711.1318528715458,0.5553907362586107,23.809523809523807,0.027691791365480483
64.0,-17.88243272283991,689.1931153743582,0.5553907362586107,23.809523809523807,0.027691791365480483
65.0,-17.52811012997608,667.8602387892203,0.5553907362586107,23.809523809523807,0.027691791365480486
66.0,-17.134181535376037,647.1483487979174,0.5553907362586107,23.809523809523807,0.027691791365480486
67.0,-16.718421178688274,627.0570110700886,0.5553907362586107,23.809523809523807,0.027691791365480486
68.0,-16.289026451148786,607.5773547467014,0.5553907362586107,23.809523809523807,0.02769179136548048
69.0,-15.848508276811357,588.6961158523626,0.5553907362586107,23.809523809523807,0.02769179136548048
70.0,-15.39566373251885,570.3978875302554,0.5553907362586107,23.809523809523807,0.027691791365480483
71.0,-14.92674858003287,552.6663185056689,0.5553907362586107,23.809523809523807,0.02769179136548048
72.0,-14.435829439623058,535.4847689815,0.5553907362586107,23.809523809523807,0.02769179136548048
73.0,-13.914970358264783,518.8366861036037,0.5553907362586107,23.809523809523807,0.027691791365480483
74.0,-13.354174280394536,502.70579421263704,0.5553907362586107,23.809523809523807,0.02769179136548048
75.0,-12.741233719857682,487.0762062592491,0.5553907362586107,23.809523809523807,0.027691791365480486
76.0,-12.061497681193561,471.9324501166195,0.5553907362586107,23.809523809523807,0.02769179136548049
77.0,-11.297620770217137,457.25948804042235,0.5553907362586107,23.809523809523807,0.02769179136548048
78.0,-10.429288558053575,443.0427234615988,0.5553907362586107,23.809523809523807,0.027691791365480476
79.0,-9.43295596964392,429.2680054407247,0.5553907362586107,23.809523809523807,0.02769179136548047
80.0,-8.281596967017848,415.92162394281814,0.5553907362586107,23.809523809523807,0.027691791365480466
81.0,-6.944461882085924,402.9903062853108,0.5553907362586107,23.809523809523807,0.02769179136548047
82.0,-5.3868806446602715,390.46121134325494,0.5553907362586107,23.809523809523807,0.02769179136548047
83.0,-3.570102927304008,378.3219260422565,0.5553907362586107,23.809523809523807,0.027691791365480476
84.0,-1.4511901039268775,366.5604655558732,0.5553907362586107,23.809523809523807,0.027691791365480483
85.0,1.0170253542980368,355.1652758624739,0.5553907362586107,23.809523809523807,0.027691791365480497
86.0,3.885909585738753,344.1252416129739,0.5553907362586107,23.809523809523807,0.027691791365480493
87.0,7.210920159560583,333.4297004660833,0.5553907362586107,23.809523809523807,0.02769179136548049
88.0,11.051403700988912,323.0684633269635,0.5553907362586107,23.809523809523807,0.027691791365480486
89.0,15.470299678340849,313.03184319910827,0.5553907362586107,23.809523809523807,0.027691791365480476
90.0,20.533738398564047,303.31069292722657,0.5553907362586107,23.809523809523807,0.02769179136548048
91.0,26.310527307310114,293.8964533375459,0.5553907362586107,23.809523809523807,0.027691791365480476
92.0,32.87152056992331,284.78121230903207,0.5553907362586107,23.809523809523807,0.027691791365480466
93.0,40.28886179405395,275.95777572007285,0.5553907362586107,23.809523809523807,0.02769179136548047
94.0,48.63509811530436,267.4197509716572,0.5553907362586107,23.809523809523807,0.027691791365480466
95.0,57.98215188262338,259.1616428198871,0.5553907362586107,23.809523809523807,0.027691791365480466
96.0,68.400135938607,251.17896028938148,0.5553907362586107,23.809523809523807,0.02769179136548047
97.0,79.9560595894789,243.46833597785093,0.5553907362586107,23.809523809523807,0.02769179136548047
98.0,92.71228349993434,236.0276582086316,0.5553907362586107,23.809523809523807,0.027691791365480473
99.0,106.72494076702458,228.85620022634484,0.5553907362586107,23.809523809523807,0.027691791365480473
100.0,122.04202772911135,221.9547683684132,0.5553907362586107,23.809523809523807,0.02769179136548048
101.0,138.70151517015645,215.32584919409052,0.5553907362586107,23.809523809523807,0.02769179136548048
102.0,156.72917834326137,208.97374693715582,0.5553907362586107,23.809523809523807,0.02769179136548048
103.0,176.1362067230243,202.9047340388282,0.5553907362586107,23.809523809523807,0.027691791365480476
104.0,196.9170419593741,197.12711041775196,0.5553907362586107,23.809523809523807,0.02769179136548048
105.0,219.04813557102202,191.65155691769164,0.5553907362586107,23.809523809523807,0.02769179136548048
106.0,242.48303211306714,186.49087144797522,0.5553907362586107,23.809523809523807,0.027691791365480483
107.0,267.1518072812755,181.66028627900525,0.5553907362586107,23.809523809523807,0.027691791365480483
108.0,292.95911879464256,177.17743142237566,0.5553907362586107,23.809523809523807,0.027691791365480483
109.0,319.78157912810417,173.06235787099604,0.5553907362586107,23.809523809523807,0.02769179136548048
110.0,347.4670571458492,169.33750780069465,0.5553907362586107,23.809523809523807,0.027691791365480483
111.0,375.8335875584672,166.02763920771088,0.5553907362586107,23.809523809523807,0.027691791365480483
112.0,404.66913610327015,163.15971434823567,0.5553907362586107,23.809523809523807,0.02769179136548048
113.0,433.7319611359463,160.76271793109314,0.5553907362586107,23.809523809523807,0.027691791365480476
114.0,462.75161352482337,158.86744822801109,0.5553907362586107,23.809523809523807,0.027691791365480476
115.0,491.4310667981337,157.50624295089327,0.5553907362586107,23.809523809523807,0.027691791365480473
116.0,519.4493952464925,156.7126493007338,0.5553907362586107,23.809523809523807,0.02769179136548047
117.0,546.4657049538481,156.52103404456363,0.5553907362586107,23.809523809523807,0.027691791365480466
118.0,572.1238455077438,156.96612370964155,0.5553907362586107,23.809523809523807,0.027691791365480466
119.0,596.0583008010476,158.0824824536964,0.5553907362586107,23.809523809523807,0.027691791365480462
120.0,617.9012557135047,159.90391705108667,0.5553907362586107,23.809523809523807,0.02769179136548046
121.0,637.2910531815502,162.46280259210818,0.5553907362586107,23.809523809523807,0.027691791365480455
122.0,653.8822076863049,165.789337588271,0.5553907362586107,23.809523809523807,0.027691791365480452
123.0,667.3561927913315,169.91071187922736,0.5553907362586107,23.809523809523807,0.02769179136548045
124.0,677.4329625743492,174.85019473025403,0.5553907362586107,23.809523809523807,0.027691791365480455
125.0,683.8830535476944,180.62613895595516,0.5553907362586107,23.809523809523807,0.027691791365480452
126.0,686.5385997682008,187.2509185374552,0.5553907362586107,23.809523809523807,0.027691791365480452
127.0,685.3024336900166,194.72983276957802,0.5553907362586107,23.809523809523807,0.027691791365480452
128.0,680.1574605792936,203.05971876677162,0.5553907362586107,23.809523809523807,0.027691791365480452
129.0,671.1642481478669,212.22813693750368,0.5553907362586107,23.809523809523807,0.02769179136548045
130.0,658.4632234252928,222.2118727536939,0.5553907362586107,23.809523809523807,0.027691791365480445
131.0,642.2679555952564,232.97599554416203,0.5553907362586107,23.809523809523807,0.02769179136548044
132.0,622.8552459515867,244.4727097617294,0.5553907362586107,23.809523809523807,0.02769179136548044
133.0,600.5526751314779,256.64059525390616,0.5553907362586107,23.809523809523807,0.027691791365480438
134.0,575.7243149563109,269.4039175836954,0.5553907362586107,23.809523809523807,0.027691791365480434
135.0,548.7563738050848,282.67230004053556,0.5553907362586107,23.809523809523807,0.02769179136548044
136.0,520.044125625161,296.34061225121246,0.5553907362586107,23.809523809523807,0.027691791365480445
137.0,489.9808987955856,310.2892792772566,0.5553907362586107,23.809523809523807,0.027691791365480445
138.0,458.9496284578965,324.3849035140887,0.5553907362586107,23.809523809523807,0.027691791365480452
139.0,427.3172375124224,338.4814048519017,0.5553907362586107,23.809523809523807,0.027691791365480455
140.0,395.4314000069115,352.42155442616763,0.5553907362586107,23.809523809523807,0.027691791365480455
141.0,363.6190171737216,366.0389623241053,0.5553907362586107,23.809523809523807,0.02769179136548046
142.0,332.18579299489164,379.1606047447403,0.5553907362586107,23.809523809523807,0.027691791365480466
143.0,301.41636723630955,391.6099710394136,0.5553907362586107,23.809523809523807,0.027691791365480466
144.0,271.57418427444196,403.2107936623467,0.5553907362586107,23.809523809523807,0.02769179136548047
145.0,242.90065916788126,413.79146828176863,0.5553907362586107,23.809523809523807,0.02769179136548047
146.0,215.6134920097218,423.1901299506358,0.5553907362586107,23.809523809523807,0.027691791365480473
147.0,189.9041548975834,431.26020487759,0.5553907362586107,23.809523809523807,0.02769179136548048
148.0,165.9345577265196,437.87625304975876,0.5553907362586107,23.809523809523807,0.02769179136548048
149.0,143.83319143186247,442.9398605538947,0.5553907362586107,23.809523809523807,0.02769179136548048
150.0,123.69153944725934,446.38485736706053,0.5553907362586107,23.809523809523807,0.027691791365480486
151.0,105.56149542059546,448.1812136643254,0.5553907362586107,23.809523809523807,0.027691791365480486
152.0,89.45363299504763,448.3376764620273,0.5553907362586107,23.809523809523807,0.027691791365480483
153.0,75.33830911050292,446.90155867903496,0.5553907362586107,23.809523809523807,0.02769179136548048
154.0,63.148063804989846,443.95691106280117,0.5553907362586107,23.809523809523807,0.02769179136548048
155.0,52.78311081254144,439.6196018340134,0.5553907362586107,23.809523809523807,0.02769179136548048
156.0,44.11816073415799,434.0310133334301,0.5553907362586107,23.809523809523807,0.02769179136548048
157.0,37.01090546304375,427.35005291293623,0.5553907362586107,23.809523809523807,0.02769179136548048
158.0,31.310870409449045,419.7447992369427,0.5553907362586107,23.809523809523807,0.027691791365480483
159.0,26.86803915551435,411.3843799563338,0.5553907362586107,23.809523809523807,0.027691791365480483
160.0,23.540454521324452,402.431861428208,0.5553907362586107,23.809523809523807,0.02769179136548048
161.0,21.200280209164326,393.03864526760907,0.5553907362586107,23.809523809523807,0.02769179136548048
162.0,19.73807432327601,383.3406108996807,0.5553907362586107,23.809523809523807,0.027691791365480473
163.0,19.06527642426207,373.45598062573305,0.5553907362586107,23.809523809523807,0.027691791365480476
164.0,19.115051615410078,363.48474567926297,0.5553907362586107,23.809523809523807,0.02769179136548047
165.0,19.841878544512603,353.50926613682276,0.5553907362586107,23.809523809523807,0.027691791365480476
166.0,21.22016110590216,343.5957452818618,0.5553907362586107,23.809523809523807,0.027691791365480476
167.0,23.242387750705173,333.7960999316813,0.5553907362586107,23.809523809523807,0.02769179136548048
168.0,25.916805967512808,324.1501836859349,0.5553907362586107,23.809523809523807,0.02769179136548048
169.0,29.265135113383412,314.68786673569696,0.5553907362586107,23.809523809523807,0.02769179136548048
170.0,33.3203342272029,305.43096391612056,0.5553907362586107,23.809523809523807,0.02769179136548048
171.0,38.12448472275308,296.39500467900643,0.5553907362586107,23.809523809523807,0.027691791365480483
172.0,43.726843428762635,287.59066969222937,0.5553907362586107,23.809523809523807,0.027691791365480483
173.0,50.18201832544738,279.0250466691942,0.5553907362586107,23.809523809523807,0.027691791365480483
174.0,57.548258862758,270.70261709951023,0.5553907362586107,23.809523809523807,0.027691791365480483
175.0,65.88585396418395,262.62609697760865,0.5553907362586107,23.809523809523807,0.027691791365480483
176.0,75.25549984812719,254.7971022982581,0.5553907362586107,23.809523809523807,0.027691791365480486
177.0,85.7167477586546,247.21672152304072,0.5553907362586107,23.809523809523807,0.02769179136548048
178.0,97.32630561854938,239.88598957595966,0.5553907362586107,23.809523809523807,0.027691791365480483
179.0,110.13640645641638,232.80631112021388,0.5553907362586107,23.809523809523807,0.027691791365480483
180.0,124.19292129806112,225.97981889405523,0.5553907362586107,23.809523809523807,0.027691791365480483
181.0,139.53345303953236,219.4097121721134,0.5553907362586107,23.809523809523807,0.027691791365480483
182.0,156.18529861201915,213.10055230791627,0.5553907362586107,23.809523809523807,0.027691791365480483
183.0,174.16323055656176,207.0585031556749,0.5553907362586107,23.809523809523807,0.02769179136548049
184.0,193.46779201526627,201.29160195134804,0.5553907362586107,23.809523809523807,0.02769179136548049
185.0,214.08185460885377,195.8099902557183,0.5553907362586107,23.809523809523807,0.02769179136548049
186.0,235.9701591058587,190.6258593451581,0.5553907362586107,23.809523809523807,0.027691791365480486
187.0,259.0747499773221,185.75370387803835,0.5553907362586107,23.809523809523807,0.027691791365480486
188.0,283.3148111802382,181.21037515066385,0.5553907362586107,23.809523809523807,0.02769179136548049
189.0,308.58346385511356,177.01498850902834,0.5553907362586107,23.809523809523807,0.027691791365480483
190.0,334.747136184273,173.18895677034334,0.5553907362586107,23.809523809523807,0.027691791365480486
191.0,361.6442134633562,169.75588322166294,0.5553907362586107,23.809523809523807,0.027691791365480486
192.0,389.0844943085453,166.74143421314983,0.5553907362586107,23.809523809523807,0.027691791365480483
193.0,416.84949544785485,164.1731781540194,0.5553907362586107,23.809523809523807,0.027691791365480483
194.0,444.69257143266526,162.08033821521803,0.5553907362586107,23.809523809523807,0.027691791365480483
195.0,472.3411620322046,160.49356985957445,0.5553907362586107,23.809523809523807,0.02769179136548049
196.0,499.4989553667268,159.44463838184163,0.5553907362586107,23.809523809523807,0.02769179136548049
197.0,525.8491299688923,158.96606375762832,0.5553907362586107,23.809523809523807,0.02769179136548049
