Time,J,A,S,tau
0.0,100.0,10.0,0.7135333341777482,27.332762538596228
1.0,99.819463048588,9.00123891297754,0.7122450677858623,28.33260041879399
2.0,99.64286316852473,8.102439441614496,0.7109849996196508,29.332597685517737
3.0,99.47000367746332,7.293794921193331,0.7097516202664219,30.332594952241486
4.0,99.30069971544391,6.5662090014334025,0.7085436106921674,31.33259221896523
5.0,99.13477372114056,5.911508112993418,0.7073597039408404,32.33258948568897
6.0,98.97205501993201,5.322347732473109,0.706198682195114,33.33258675241272
7.0,98.8123794527756,4.792131487557581,0.7050593741282836,34.33258401913647
8.0,98.65558901857555,4.3149310309257904,0.7039406523524541,35.332581285860215
9.0,98.50153151542098,3.8854169288044136,0.7028414308586631,36.33257855258396
10.0,98.35006021528454,3.4988004703595648,0.7017606626957559,37.332575819307706
11.0,98.20103355664273,3.1507774161430584,0.7006973377771349,38.33257308603145
12.0,98.05431483160413,2.837476716009349,0.6996504806483247,39.3325703527552
13.0,97.90977189904666,2.5554185656627673,0.6986191484401155,40.332567619478944
14.0,97.7672769170669,2.301474880166264,0.6976024289595071,41.33256488620269
15.0,97.62670606987291,2.0728313698669165,0.6965994387410038,42.332562152926435
16.0,97.48793931299191,1.8669571870766415,0.6956093212285911,43.33255941965018
17.0,97.3508601371318,1.6815769335369073,0.6946312450908134,44.33255668637392
18.0,97.21535532892945,1.5146429274152864,0.6936644025136386,45.332553953097666
19.0,97.08131474284257,1.3643130432015271,0.6927080075728338,46.33255121982141
20.0,96.94863108936126,1.2289305079375923,0.6917612947227882,47.332548486545164
21.0,96.81719972581156,1.1070044855002665,0.6908235173038296,48.33254575326892
22.0,96.68691844574622,0.997193406162317,0.6898939460394605,49.33254301999267
23.0,96.55768729606143,0.8982904212263604,0.6889718677314276,50.33254028671642
24.0,96.42940837455689,0.809208621637148,0.6880565838152474,51.33253755344017
25.0,96.30198565659082,0.7289707778118469,0.687147409123334,52.33253482016392
26.0,96.17532481030499,0.6566963960818025,0.6862436705665702,53.332532086887674
27.0,96.04933302451425,0.5915936200506066,0.6853447059062424,54.33252935361143
28.0,95.92391884180981,0.5329492598136654,0.6844498625631786,55.33252662033518
29.0,95.79899198808118,0.48012130015752436,0.6835584964013315,56.33252388705893
30.0,95.6744632169501,0.4325320221162987,0.6826699706177621,57.33252115378268
31.0,95.55024414561032,0.3896608398274841,0.681783654571304,58.33251842050643
32.0,95.4262471031605,0.35103951692844165,0.6808989227003661,59.332515687230185
33.0,95.30238497542675,0.31624600737772823,0.6800151534156902,60.33251295395393
34.0,95.17857105445374,0.2849005704137241,0.6791317280264202,61.332510220677676
35.0,95.05471888986477,0.25666110362647304,0.678248029679504,62.33250748740142
36.0,94.93074214079209,0.23121948949678575,0.6773634423031675,63.33250475412517
37.0,94.80655442960905,0.20829840699776386,0.6764773495632422,64.33250202084892
38.0,94.6820691971426,0.18764785591925162,0.6755891338300578,65.33249928757265
39.0,94.55719955721503,0.1690429068945555,0.6746981751405459,66.33249655429638
40.0,94.4318581526491,0.15228076566593152,0.6738038501707871,67.33249382102012
41.0,94.30595701212091,0.13717889398759528,0.6729055312146065,68.33249108774386
42.0,94.17940740301266,0.12357282176174467,0.672002585133625,69.33248835446759
43.0,94.05211969151483,0.11131435693061034,0.6710943723590407,70.33248562119132
44.0,93.92400319132263,0.10027010044566728,0.6701802458120228,71.33248288791506
45.0,93.79496602348098,0.09031975830872169,0.6692595499036569,72.33248015463879
46.0,93.66491496499421,0.08135507476659776,0.668331619454719,73.33247742136253
47.0,93.53375530139269,0.07327843182710402,0.6673957786436868,74.33247468808626
48.0,93.40139068002637,0.06600193394000162,0.6664513399599356,75.33247195481
49.0,93.26772295094132,0.05944638160407778,0.6654976030683336,76.33246922153373
50.0,93.1326520243642,0.053540390970199164,0.6645338537923426,77.33246648825747
51.0,92.9960757031038,0.04821969932404491,0.663559362918141,78.3324637549812
52.0,92.85788953572619,0.04342634514054584,0.6625733851469742,79.33246102170494
53.0,92.71798665027775,0.03910815857197877,0.6615751579087071,80.33245828842867
54.0,92.57625759217127,0.035218093265512375,0.6605639002050809,81.3324555551524
55.0,92.43259016654056,0.03171377782221834,0.6595388114848543,82.33245282187615
56.0,92.2868692571167,0.02855703433443694,0.6584990703514179,83.33245008859988
57.0,92.13897667419671,0.025713444143258525,0.6574438334779935,84.33244735532361
58.0,91.98879096338437,0.023152021887858518,0.6563722342429276,85.33244462204735
59.0,91.83618724498332,0.020844817338504573,0.6552833815836996,86.33244188877109
60.0,91.68103702846558,0.018766670451744374,0.6541763586730855,87.33243915549481
61.0,91.52320802912519,0.016894892737737692,0.6530502216109102,88.33243642221855
62.0,91.36256399747131,0.0152090463519949,0.6519039982067026,89.33243368894229
63.0,91.19896451164222,0.01369071844244289,0.6507366864984896,90.33243095566603
64.0,91.03226481507002,0.012323306503011203,0.649547253594471,91.33242822238975
65.0,90.86231560101922,0.01109186494639826,0.6483346341356188,92.3324254891135
66.0,90.68896283814561,0.009982911910959284,0.6470977290509721,93.33242275583724
67.0,90.51204756951384,0.00898431081615311,0.6458354041235485,94.332420022561
68.0,90.33140571001172,0.008085118572990536,0.6445464885448166,95.33241728928473
69.0,90.14686787021304,0.007275476391832482,0.6432297736578869,96.33241455600849
70.0,89.95825912848916,0.006546504079472781,0.6418840113314388,97.33241182273223
71.0,89.76539886847488,0.005890193887576921,0.6405079127999743,98.33240908945598
72.0,89.56810055169277,0.005299338061879896,0.6391001470414022,99.33240635617972
73.0,89.3661715423007,0.00476743523183938,0.6376593395265412,100.33240362290347
74.0,89.15941290930887,0.004288632841971806,0.6361840708078582,101.33240088962721
75.0,88.94761922286841,0.0038576549432132903,0.6346728750659061,102.33239815635096
76.0,88.73057839678256,0.0034697481334605203,0.6331242389855746,103.3323954230747
77.0,88.50807146628112,0.003120631969054555,0.6315366001704209,104.33239268979845
78.0,88.27987245466406,0.002806446599694681,0.6299083461911152,105.33238995652219
79.0,88.04574816920864,0.002523718395720165,0.6282378131291533,106.33238722324595
80.0,87.80545806153494,0.002269314683559555,0.6265232845805035,107.33238448996968
81.0,87.5587540770601,0.00204041564130463,0.624762990581399,108.33238175669344
82.0,87.30538049679338,0.001834480014030387,0.6229551064794749,109.33237902341718
83.0,87.04507385070666,0.0016492183241096326,0.6210977523156274,110.33237629014093
84.0,86.77756275852259,0.0014825697554094138,0.6191889916879644,111.33237355686468
85.0,86.5025693083713,0.0013971431207452643,0.6172268314413323,112.33237082358842
86.0,86.21980673606592,0.0013878035673997012,0.6152092223092078,113.33236809031217
87.0,85.92897935957102,0.0013783533046241626,0.6131340648777254,114.33236535703593
88.0,85.62978453365946,0.0013687904196925773,0.6109991993118721,115.33236262375966
89.0,85.32190520755464,0.0013591130818339009,0.6088023629216085,116.33235989048342
90.0,85.00502394956428,0.0013493194640032775,0.606541290297559,117.33235715720716
91.0,84.67882074014607,0.0013394078265825348,0.6042136975460002,118.33235442393091
92.0,84.34295245450384,0.0013293766139661615,0.6018171357700008,119.33235169065465
93.0,83.99707127398253,0.0013192242930623454,0.5993491225528272,120.33234895737839
94.0,83.6408292797594,0.001308949333603588,0.596807174761956,121.33234622410214
95.0,83.27387114511474,0.0012985503650326169,0.5941887563371575,122.33234349082588
96.0,82.89583089472652,0.0012880261618735418,0.5914912551492537,123.33234075754962
97.0,82.50633669502318,0.0012773695876318947,0.5887120170202376,124.33233804527534
98.0,82.10395322277468,0.002324531761709027,0.5858753294262379,125.32860524138037
99.0,81.56632971179833,0.12676282893931493,0.5861026721545609,125.88826946332327
100.0,80.96528538211055,0.30354765291599645,0.5875924903285576,126.25913265301207
101.0,80.35123817539387,0.4824980340989897,0.5890636761495412,126.6178285163249
102.0,79.7244708931569,0.6636057265456047,0.5905132143781311,126.9641075972508
103.0,79.08530767528752,0.8468755899858404,0.5919383818910464,127.29766451374984
104.0,78.43424067908838,1.0323069426097713,0.5933361879226074,127.61818728885638
105.0,77.77186116044325,1.2198966595393852,0.5947034769544673,127.92536003133384
106.0,77.09879061496936,1.4096397785659476,0.5960370641931395,128.2188660332541
107.0,76.41588519903242,1.6015225273651126,0.5973333789218084,128.49838038234512
108.0,75.72409684339551,1.795528490776583,0.5985886653749799,128.76357449237892
109.0,75.02439570428989,1.9916401852827266,0.5997991485966957,129.01411935847185
110.0,74.31791430032438,2.1898303066258014,0.6009607294470188,129.249679976687
111.0,73.60585954080709,2.3900668430514833,0.6020690416802406,129.46991683799624
112.0,72.88946289303415,2.5923157007489164,0.6031196759632628,129.67448967374682
113.0,72.16997220197538,2.7965318497117035,0.6041078570937398,129.86305267925232
114.0,71.4485941379228,3.002666794427582,0.6050286198557028,130.03525741680798
115.0,70.72653033051417,3.210667120843328,0.6058769084924653,130.1907541334883
116.0,70.00471222904255,3.4204672016055055,0.6066472569400309,130.3291881308501
117.0,69.28397758351767,3.631999376338571,0.6073340960610342,130.45020357198436
118.0,68.56497999604072,3.8451868539924545,0.6079316834558947,130.55344271981707
119.0,67.84780836796502,4.059941428846076,0.6084339012522059,130.63854448000524
120.0,67.1324660505809,4.276173080220775,0.6088345808868884,130.7051473105379
121.0,66.4184432713848,4.49377792427584,0.6091273008395919,130.75288780598254
122.0,65.70459488456335,4.712643239347773,0.609305356877349,130.78140103033778
123.0,64.9896411843858,4.93265245629436,0.6093619939038565,130.79032179344657
124.0,64.27160213889418,5.153672686111053,0.6092901874433286,130.77928405182462
125.0,63.54816845032338,5.375565853425231,0.6090827860336688,130.7479215929001
126.0,62.81658591001713,5.598180276658179,0.6087324683922241,130.69586845670528
127.0,62.073798484426945,5.821357154784225,0.6082317858993681,130.62275906783705
128.0,61.31652373811439,6.0449240042560115,0.6075731784115906,130.52822889749294
129.0,60.541324456656476,6.268700040780547,0.6067489752026272,130.41191470194784
130.0,59.74476716757282,6.492492133724884,0.6057514571090999,130.27345478607072
131.0,59.17986572115604,6.459698196544425,0.7347033635897996,31.293453317803134
132.0,58.6621928730354,6.352676647979097,0.7296814993436863,30.452060117150936
133.0,58.1078542773161,6.25477777865396,0.7246139138954226,29.639369997603275
134.0,57.5134555791075,6.169003746197663,0.7195040017597101,28.85465929874613
135.0,56.87532025550411,6.098737057543616,0.7143551586058741,28.097171625154974
136.0,56.18956481917147,6.047636031926975,0.7091707809729468,27.366128345225235
137.0,55.452230135645415,6.019470460178145,0.7039542638834716,26.660737220230466
138.0,54.659472550192724,6.017895944810069,0.6987089978871963,25.980199633868757
139.0,53.807812169343826,6.046174069919474,0.6934383685626399,25.323716959184765
140.0,52.894424306630576,6.106859075840866,0.6881457532735663,24.690495501701434
141.0,51.91745278877134,6.201481077832914,0.682834517239359,24.07975046932605
142.0,50.8763507308205,6.3302352642986985,0.6775080180945583,23.490710261307573
143.0,49.77210626012149,6.49181924521958,0.6721696057937303,22.922618848116088
144.0,48.60748822137638,6.683286687926831,0.6668226016282145,22.374736580099302
145.0,47.38710556152898,6.900122133164937,0.6614703142131118,21.84634327781871
146.0,46.11735536126651,7.136430071436463,0.6561160295870953,21.336738808701867
147.0,44.80620896176845,7.385270263844974,0.6507630111946004,20.84524416443345
148.0,43.46284698027322,7.639098413950234,0.6454144994422972,20.371202145845444
149.0,42.09718207540348,7.890255706456232,0.6400737075595673,19.913977400646957
150.0,40.719396471072294,8.131389771470403,0.634743817432177,19.472956481927433
151.0,39.33887499363081,8.356428796730455,0.6294279787738947,19.047547890430707
152.0,37.960751201188735,8.563830017470508,0.6241293053379141,18.637181670714593
153.0,36.588953404411086,8.753338159272177,0.6188508795706872,18.241309990189627
154.0,35.22734037280303,8.924782239057931,0.6135957384576978,17.85940511310281
155.0,33.87977942162682,9.077947017569999,0.6083668955338111,17.49096086835294
156.0,32.5502483979834,9.212446962614127,0.6031673046425573,17.135490748786744
157.0,31.2428784252928,9.327661800988876,0.5979998701830782,16.792526989849666
158.0,29.961956535303685,9.4227145513824,0.5928674588993671,16.461620916722804
159.0,28.711822962324085,9.496554368720595,0.5877728890598843,16.142342869847965
160.0,27.49662630062414,9.548189142203128,0.5827189145255088,15.834280029101176
161.0,26.320061621350394,9.576922191317914,0.5777082395693054,15.537036320247797
162.0,25.1850325077144,9.58265214111043,0.5727435233461906,15.250232874839178
163.0,24.093418302604594,9.566070239073564,0.5678273548431186,14.973506409648168
164.0,23.046081130084808,9.528631403247129,0.5629622675972609,14.706508314857544
165.0,22.04288334388299,9.472495037647986,0.5581507302582598,14.448904771017343
166.0,21.082937196850175,9.400262188332695,0.553395152152857,14.200376017877458
167.0,20.164992765127444,9.314579548438346,0.5486978791990915,13.960615804582455
168.0,19.28761901051843,9.217961882778496,0.5440611907325181,13.729330746997034
169.0,18.449259333023758,9.112747098880263,0.539487299786389,13.506239829091179
170.0,17.648255336954794,9.001086987176208,0.5349783522503669,13.291073903857823
171.0,16.88285659383862,8.884956317888896,0.5305364260637209,13.083575209008027
172.0,16.15122899233215,8.766167651007256,0.5261635305464101,12.883496901084326
173.0,15.451473739355757,8.646380332779657,0.5218616062438728,12.69060262778842
174.0,14.781663303395781,8.527095119408763,0.5176325240528946,12.504666116654409
175.0,14.139892967786627,8.409634666073085,0.5134780841529397,12.32547070292046
176.0,13.524342449720837,8.295116615797156,0.5094000165176625,12.152808914553624
177.0,12.933338436613637,8.18442522869799,0.505399980627212,11.986482223733562
178.0,12.365393199730876,8.078204253865811,0.5014795681480616,11.826300455895739
179.0,11.819234022279204,7.976853731313404,0.4976403016978415,11.672081670703458
180.0,11.293805201549594,7.880547020474812,0.4938836326148639,11.523651928991098
181.0,10.788232830501594,7.789267205405485,0.49021094127067744,11.380844509041946
182.0,10.301844590788749,7.702830222825113,0.4866235493409529,11.243499866842457
183.0,9.83413564453924,7.620899671013177,0.4831227003034369,11.111466001160304
184.0,9.384701687940524,7.543044334279701,0.47970957957736754,10.984596543040222
185.0,8.953290596310604,7.468740219429565,0.47638530518303474,10.862752537655624
186.0,8.539658734542364,7.39742113992809,0.4731509252129104,10.74580042662131
187.0,8.143660261691275,7.328496293629643,0.47000743577205367,10.63361283987995
188.0,7.765109519657657,7.261384484302911,0.4669557570648707,10.526068287757163
189.0,7.403829973966003,7.195527507813302,0.46399676178018473,10.423050142272922
190.0,7.059615443324548,7.130419699251863,0.46113125313089387,10.324447848980933
191.0,6.732182309701458,7.06560585814266,0.4583599814138374,10.230155161019809
192.0,6.42124962955307,7.0006979139352,0.4556836403142149,10.14007122009957
193.0,6.126424065527231,6.935374459712647,0.45310286367811364,10.054099726875576
194.0,5.846892580983668,6.869832815562031,0.45068701411508266,9.970087322605988
195.0,5.583636898227306,6.802396285168628,0.4482111385022168,9.894697158449732
196.0,5.336471423541462,6.732539651596935,0.44561526708887245,9.829445208724797
197.0,5.104727454350266,6.660250330246959,0.44290841827822136,9.773803312537039
198.0,4.887705896352106,6.585565852864103,0.440100295526147,9.727266816429045
199.0,4.684701245291182,6.508566233166578,0.4372012278167506,9.689353071305156
200.0,4.495016328250734,6.429367386909466,0.4342221124273719,9.659600360208179
201.0,4.317953448853972,6.348114455031282,0.4311743262782162,9.637565972507536
202.0,4.152829395667744,6.264975623201367,0.428069645768819,9.62282446783194
203.0,3.9990860672828767,6.180047948773619,0.4249038892586669,9.615419322227066
204.0,3.8561191299731377,6.093467387937189,0.42167830139951734,9.615258305974509
205.0,3.72204638144197,6.006763418984993,0.41864845403297785,9.615258305974509
206.0,3.596431428615704,5.9200989517066835,0.41582166997001363,9.615258305974509
207.0,3.478898796008149,5.8336088939502435,0.4131993071631405,9.615258305974509
208.0,3.369078189460201,5.747432015745878,0.4107825830237147,9.615258305974509
209.0,3.2666194905625976,5.6617092406194525,0.4085725826141687,9.615258305974509
210.0,3.1711973693280457,5.576582691203846,0.40657026006422864,9.615258305974509
211.0,3.0824993935910383,5.492195197868511,0.40477644854064687,9.615258305974509
212.0,3.0002243758923304,5.408689349619982,0.4031918797519342,9.615258305974509
213.0,2.9241033852227862,5.326204395923454,0.4018171735372289,9.615258305974509
214.0,2.853868965700068,5.244880305644402,0.40065285479827806,9.615258305974509
215.0,2.789257600422144,5.164866018884994,0.399699363912295,9.615258305974509
216.0,2.7300304708448517,5.086310538371844,0.39895704626407175,9.615258305974509
217.0,2.675954483054556,5.009358763283153,0.39842616915307266,9.615258305974509
218.0,2.6268111422578446,4.934151209926669,0.3981069277391685,9.615258305974509
219.0,2.5824130109478762,4.860823466308091,0.39799942657465875,9.615258305974509
220.0,2.542570100871376,4.789505884559067,0.39810370725613964,9.615258305974509
221.0,2.5071161145021374,4.720324076849619,0.3984197367224241,9.615258305974509
222.0,2.4759009369814087,4.653398030786371,0.39894739430856857,9.615258305974509
223.0,2.4487784735601474,4.5888428934383585,0.39968650338365447,9.615258305974509
224.0,2.4256290861949834,4.526769160158634,0.40063678676982417,9.615258305974509
225.0,2.406326910093614,4.467281905705796,0.40179790834640877,9.615258305974509
226.0,2.390780267363726,4.410483891245539,0.40316942141016454,9.615258305974509
227.0,2.378882910899759,4.356471803179659,0.40475081472493474,9.615258305974509
228.0,2.37056503430993,4.305342092803292,0.40654144968712336,9.615258305974509
229.0,2.365737534401397,4.257184647035437,0.4085406251031695,9.615258305974509
230.0,2.3643479338195568,4.212091373853005,0.41074747238323855,9.615258305974509
231.0,2.3663276940464004,4.170148293417496,0.41316107624637094,9.615258305974509
232.0,2.371627562704682,4.131442809154938,0.41578031860625453,9.615258305974509
233.0,2.3802005691925476,4.096060674147942,0.4186040182298426,9.615258305974509
234.0,2.3919978011059526,4.064085875833488,0.4216307889761414,9.615258305974509
235.0,2.407193564942678,4.035391455623694,0.4248034899741973,9.616671465922158
236.0,2.426445876478931,4.009298945660904,0.4279306377277143,9.62431454975679
237.0,2.449767713454902,3.985765058587576,0.43099199617545475,9.638646156633394
238.0,2.4771263089205093,3.964769283336475,0.43397799396580716,9.659864944394323
239.0,2.508507736510537,3.946287660547108,0.43687802718549684,9.688216292599423
240.0,2.5438960277842,3.9302909990341734,0.43968217286315464,9.723933944323935
241.0,2.5832698397216265,3.9167386266545243,0.44238204321445806,9.767239434468465
242.0,2.626610900493616,3.9055982167943566,0.4449699333875285,9.818348576003629
243.0,2.6738955223562852,3.896818760012093,0.4474390598409284,9.877470403360578
244.0,2.725092490539704,3.890354946064707,0.44978415594803167,9.944801681913248
245.0,2.7801516196593017,3.886174556248464,0.45200444080930424,10.020430865776213
246.0,2.837980006067661,3.8853038189784246,0.4543394886023271,10.098158412250006
247.0,2.898682658274556,3.8876075423668244,0.45675255309008134,10.178932636264754
248.0,2.9622101553493896,3.8930721976913714,0.45923730957911835,10.262915628967901
249.0,3.028475441404132,3.901698614342114,0.4617923135592674,10.350142399390126
