Time,J,A,S,tau,r
0.0,1.0,1.0,0.8216491277713164,2.247191011235955,0.0
1.0,4.177671919673844,3.6539686472053186,0.8060438427310931,2.4126765437986304,0.028145134807852832
2.0,13.075023130090809,6.061087022302959,0.7908439598007256,2.5773373004370366,0.02788627075612607
3.0,26.03381720247645,8.550247549323798,0.7766087984512836,2.7238642905683284,0.027546549296318446
4.0,41.27656371542692,14.565441997270032,0.7769567309496199,2.7210574687573392,0.025853453373180176
5.0,63.38900894207843,24.54203627858914,0.7773092392951777,2.71822906534106,0.0248461063532291
6.0,92.69264596280286,37.7588169804814,0.7776662441463301,2.7153800075251984,0.024181684489160804
7.0,122.19075242621629,57.50361487802121,0.7780275524587504,2.712512474352723,0.023713259446825008
8.0,143.87580492521337,86.22469101536568,0.7783928482426001,2.7096299932614256,0.023367353193924693
9.0,151.67165536266774,122.17981082911622,0.7787617485251291,2.7067367333109504,0.023103155549668682
10.0,144.33653528669254,161.85622429966446,0.7791339855886262,2.703835343022907,0.02289617490327398
11.0,127.69888816891816,199.66202559038493,0.7795091982679557,2.700930096559688,0.022730821015847513
12.0,109.98670279764241,230.31327793778337,0.7798870985787593,2.6980241350905967,0.022596695814390968
13.0,95.96537203037096,252.09932974586619,0.7802674175933566,2.695120933308732,0.02248659142327689
14.0,86.41943407521438,266.3635162376754,0.7806497124133547,2.692225389793188,0.02239536141587536
15.0,80.38377407895877,275.3342997484423,0.7810336475552925,2.689340998212215,0.02231923007533875
16.0,76.66255114815955,280.91281159238696,0.781418700366766,2.6864738887891138,0.022255359672628584
17.0,74.32733074324965,284.4190984437013,0.7818045147943303,2.6836276784511774,0.022201579281413267
18.0,72.78029840150951,286.67490972664393,0.7821907649633909,2.680805806200829,0.022156201946508206
19.0,71.67579995610846,288.1602326119798,0.7825771642232222,2.678011015367573,0.022117894662332546
20.0,70.82494405236778,289.15000026607123,0.7829631009087936,2.6752504126734844,0.02208558302585339
21.0,70.12492167892518,289.8047957108072,0.783348231161038,2.6725275699377535,0.022058399422825586
22.0,69.5194259165194,290.2223158623924,0.7837320818074169,2.6698476505128106,0.022035631062601216
23.0,68.97625527718333,290.4653327891698,0.7841141652371462,2.6672161170898177,0.022016687125102814
24.0,68.47597710730176,290.57659566629593,0.78449412285315,2.6646363628582788,0.02200107668821946
25.0,68.00675818485439,290.58627997966556,0.7848713846146274,2.6621150316985513,0.02198837947452461
26.0,67.56073980829454,290.51692215012224,0.7852454581060622,2.6596572606187476,0.02197824356513089
27.0,67.1322724636195,290.3856507232399,0.7856159767080625,2.6572668698857584,0.021970369055792735
28.0,66.71782999912656,290.20560708373426,0.7859823970645672,2.6549498440379344,0.02196449369510545
29.0,66.31425521906297,289.98754717900937,0.7863445173297552,2.652707552112474,0.021960400223927475
30.0,65.92001448409273,289.7395863055859,0.7867017201577342,2.650547104477522,0.021957885432243314
31.0,65.53395424198686,289.46828552448676,0.7870534661196978,2.648474548523149,0.021956775445116695
32.0,65.15522274212846,289.17912607357124,0.7873994173235783,2.646492897985227,0.02195692033144033
33.0,64.7832977161525,288.87645497377775,0.7877391090001788,2.644607329698514,0.0219581843991074
34.0,64.41807453965171,288.563882573902,0.788072081616177,2.642822763863861,0.021960448199008647
35.0,64.05954834919879,288.2444306835762,0.7883979134081712,2.6411436377386415,0.021963603516902384
36.0,63.70754237488514,287.92065382271187,0.7887162779433349,2.639573379047411,0.021967553968548315
37.0,63.36211403583501,287.5949417382294,0.7890268664791538,2.638114783536167,0.02197221714331476
38.0,63.02378843338598,287.26910700735436,0.7893292485645312,2.636772606875162,0.021977512021858894
39.0,62.6925841517919,286.9449674909899,0.7896231645342835,2.6355492031617893,0.021983369754036704
40.0,62.368764965592305,286.62410549505154,0.7899083205397504,2.634447634985022,0.021989724840252942
41.0,62.052645974333565,286.3079323607525,0.7901844086589208,2.6334710938288977,0.021996518305644464
42.0,61.74435763344564,285.9978161948744,0.7904512312101653,2.6326213337811133,0.022003697174052057
43.0,61.44417861333625,285.69501139128175,0.7907085603482374,2.631900502117581,0.022011211836932457
44.0,61.15226673336415,285.40076602032786,0.7909562139885348,2.6313102264862773,0.022019016832662403
45.0,60.86883556474121,285.1162312910054,0.7911940127730637,2.6308522513959836,0.022027069380697893
46.0,60.5938946596534,284.8425603288218,0.7914218289171507,2.6305276390153662,0.022035332217010328
47.0,60.32739947327277,284.58090650052327,0.7916395920089059,2.6303368063943573,0.02204376865763947
48.0,60.06955100497183,284.3322982839276,0.7918471579417681,2.630281070044796,0.022052346307979295
49.0,59.82023819863759,284.0978442096833,0.7920445218515437,2.6303599749778184,0.02206103443804761
50.0,59.57957918546724,283.8785147454401,0.792231561574981,2.6305746526878253,0.022069803867447845
51.0,59.34724185325623,283.67537440585636,0.7924083631799143,2.6309236217128014,0.022078628488678198
52.0,59.12302859642532,283.48938157269066,0.7925749486481428,2.6314062558599898,0.022087482254624004
53.0,58.90686561234917,283.32143300197043,0.7927313273481867,2.6320220574644564,0.022096343232064282
54.0,58.69854899926599,283.17243722998626,0.7928775759422144,2.632769794576115,0.022105189401647955
55.0,58.49786745122902,283.0432674191342,0.7930137551239362,2.633648392872409,0.02211400069566227
56.0,58.30451050451296,282.93465757073517,0.7931399657080271,2.6346563604573885,0.02212275857890544
57.0,58.118280271481424,282.8473701937113,0.7932563132659755,2.6357921460383613,0.02213144499441829
58.0,57.938763261675845,282.7820993846939,0.793362980416753,2.63705318886399,0.022140043585748097
59.0,57.765979326375344,282.73933325128206,0.7934599615635796,2.638439385258563,0.022148538849319912
60.0,57.59942031803793,282.7197631016742,0.7935475499317564,2.639946998540609,0.02215691575045383
61.0,57.43869516952734,282.72384968467287,0.7936259317576746,2.641573368772596,0.022165162245767846
62.0,57.28360047545736,282.752019355473,0.7936952417672727,2.643316631103623,0.022173265328294535
63.0,57.13400262373711,282.80457208726796,0.7937556127918838,2.645175015945096,0.022181213375218882
64.0,56.98954683294061,282.8817438725811,0.7938072622146152,2.6471456609966304,0.022188995310371336
65.0,56.84999940670347,282.9837671960768,0.7938503971595614,2.6492259509308758,0.02219660095998307
66.0,56.71515267900517,283.1107862811698,0.7938852308460271,2.651412984943756,0.022204021621707863
67.0,56.58480320310967,283.2627549985424,0.7939119186223853,2.653704697002765,0.022211248570191564
68.0,56.458727840761284,283.4397632461562,0.793930729268223,2.656097663428951,0.022218274287119415
69.0,56.33679299496263,283.64164613605,0.7939418051661861,2.658589883560756,0.022225091775674378
70.0,56.21882382688576,283.8682671203278,0.7939454031526617,2.6611781751879793,0.022231694042061094
71.0,56.10468864720577,284.11936295185296,0.7939417208202709,2.6638598969158056,0.022238076121703733
72.0,55.994293330535726,284.394667728691,0.7939309679361225,2.6666322182095037,0.02224423298377646
73.0,55.887636714112176,284.6938356061377,0.7939133190453438,2.669492929557069,0.022250159974460837
74.0,55.7845762258052,285.0164380930484,0.79388898702145,2.6724391610733176,0.02225585392643008
75.0,55.685012591082966,285.36205590366393,0.7938582255553589,2.6754676407915263,0.022261311401707614
76.0,55.5890351989005,285.7301454727578,0.7938211555252531,2.6785767390454116,0.022266530039229893
77.0,55.496545327725414,286.12027957018466,0.7937780181291513,2.6817632396744076,0.02227150823241309
78.0,55.40759080572682,286.53180195744375,0.7937289615976325,2.685025153622032,0.0222762446308239
79.0,55.322158681577825,286.9641600254796,0.7936741849601922,2.688359744353011,0.02228073871153332
80.0,55.24014854730236,287.4167517768892,0.7936139394996959,2.691763625604445,0.022284990641461985
81.0,55.16160669955492,287.88890286159415,0.7935483742621722,2.695234772323784,0.022289001222791285
82.0,55.08658792661997,288.37998906276556,0.793477659704074,2.6987707388141633,0.022292771276371186
83.0,55.01513295228942,288.8893399254275,0.7934019628991591,2.7023692009407143,0.022296302598872424
84.0,54.94718940578509,289.4162370130909,0.7933214828589888,2.706027383561088,0.022299597778642995
85.0,54.882739623060324,289.9599818240971,0.7932364113010338,2.7097424882121746,0.022302659576519796
86.0,54.82191288026396,290.51990334004864,0.7931468760665542,2.713512588617953,0.02230549089873448
87.0,54.764545075721784,291.0952796231977,0.7930531200622584,2.717334201158094,0.02230809611161068
88.0,54.710767654471105,291.68536955319325,0.7929552548247808,2.721205635943221,0.022310479032108785
89.0,54.66049750711102,292.2894697072558,0.7928534911257117,2.7251235998415866,0.02231264434199801
90.0,54.613710156228805,292.9068376655661,0.7927480054447211,2.729085403784945,0.022314597075419402
91.0,54.570398499268485,293.5367453204044,0.7926389682351097,2.7330883277497406,0.02231634239400395
92.0,54.530554204415665,294.17841091993375,0.7925265410351627,2.737129755301888,0.02231788599544415
93.0,54.49418275157151,294.83110092116084,0.7924108857936676,2.741207002998084,0.022319233540366346
94.0,54.461303074286974,295.49397512857007,0.7922921530404391,2.745317443754647,0.022320390843709882
95.0,54.43186861921991,296.1663934088453,0.7921705343589669,2.749457971377156,0.02232136394356894
96.0,54.40596968274184,296.84741700230694,0.7920461179617765,2.753626655631455,0.022322159013034606
97.0,54.38354850730895,297.53628964086,0.791919085957559,2.757820447041022,0.02232278232392695
98.0,54.36458524792299,298.23224656779547,0.7917896148210005,2.7620361687274624,0.02232323981900774
99.0,54.349315669701355,298.93423486940134,0.7916577310013718,2.766272818309139,0.022323537266678555
100.0,54.33765602356653,299.64152517872566,0.7915236127455825,2.770527025841041,0.022323681073724507
101.0,54.32983941870328,300.3530842821358,0.791387291834751,2.7747977518141047,0.022323676654781407
102.0,54.32571253658427,301.06822495789726,0.7912489487744857,2.7790813315313985,0.02232353020698188
103.0,54.32548114023187,301.7859134370613,0.7911086217078569,2.783376517800797,0.022323246937387502
104.0,54.32915521000599,302.5052806384812,0.7909664142164409,2.7876811014123044,0.0223228322274436
105.0,54.33710606960413,303.2250777136684,0.790822283551665,2.791994886456583,0.022322291225190673
106.0,54.34950305657871,303.9444130481506,0.7906762468244602,2.7963167956333113,0.022321628470820015
107.0,54.36638846001408,304.66228006591615,0.7905283917176386,2.8006446771041285,0.022320848771159096
108.0,54.38815886115334,305.37744911228805,0.7903785928318489,2.8049795857087383,0.022319956605396877
109.0,54.41503577461881,306.08885080629227,0.7902268272857043,2.809321184683571,0.022318956400823407
110.0,54.4472924654634,306.7952753885574,0.7900730212081081,2.8136698199942956,0.022317852252709266
111.0,54.48506821495224,307.4956979695812,0.7899171482978035,2.818025034313007,0.022316648342829655
112.0,54.5285986725819,308.18892545841726,0.7897591632226941,2.8223865003354733,0.022315348949715746
113.0,54.57821757189534,308.87372364881804,0.7895988733419086,2.826756567453929,0.022313956958190738
114.0,54.63429818199699,309.5487652586703,0.7894361207674916,2.8311371221068113,0.022312476592279085
115.0,54.697069396716145,310.21275931767275,0.7892708315388584,2.8355286786642293,0.022310911982704833
116.0,54.76666606297596,310.86449949319393,0.789102877880961,2.8399323739444102,0.022309266196830553
117.0,54.84398413998124,311.50231755672604,0.7889319045930013,2.8443535270585936,0.022307542923893066
118.0,54.92856749424623,312.12529881242864,0.7887580309875635,2.848789268866021,0.022305746801840016
119.0,55.02112467521041,312.7318238373164,0.7885809265830833,2.8532443985952973,0.02230388078720292
120.0,55.1217333547894,313.32067849720886,0.7884005240886713,2.857719331679232,0.022301948563501237
121.0,55.23045813599926,313.8906275800849,0.788216751813883,2.8622145843764026,0.022299954538947533
122.0,55.34700243321153,314.4406237065976,0.7880298073720076,2.86672583707144,0.02229790321801392
123.0,55.471723507417586,314.96934045209167,0.7878395241317339,2.871255285134057,0.022295797995922084
124.0,55.604300517015275,315.4758429913,0.7876460712581276,2.875799279493885,0.022293643817950674
125.0,55.74447540135314,315.9590706205208,0.7874497169687487,2.8803524354578367,0.02229144427188659
126.0,55.891525037791595,316.41854440781253,0.7872509032872359,2.8849062266856054,0.02228920437127471
127.0,56.04503088736693,316.85353367529314,0.7870500275152226,2.8894526095914315,0.022286929085388426
128.0,56.203422553186876,317.26417328673404,0.7868481043983417,2.893972988931025,0.02228462434863325
129.0,56.36582442931766,317.6502995917582,0.7866458704080379,2.8984531910149856,0.02228229466108488
130.0,56.530543708319385,318.0123963380767,0.7864445167454409,2.9028710452754503,0.022279945216552244
131.0,56.695667553529994,318.35119991995083,0.7862454149798754,2.9072009617368004,0.02227758136987284
132.0,56.85901674162708,318.6678002302563,0.7860501269200402,2.9114138038939683,0.02227520877874237
133.0,57.01812677124917,318.96351316957106,0.7858604243612177,2.9154764685500094,0.02227283264219011
134.0,57.169865268411925,319.24057245517537,0.7856785374065477,2.9193473212215832,0.022270460197391245
135.0,57.31153449653004,319.500601864797,0.7855063940688056,2.922990270445403,0.02226809631414005
136.0,57.44005464666246,319.7457698346772,0.7853461833061883,2.9263643040501552,0.022265746755921134
137.0,57.55241873958733,319.97815447934096,0.7852000737844844,2.929428752957083,0.02226341713691899
138.0,57.64598349046962,320.19936761112217,0.7850699524676359,2.932148181246889,0.02226111173920771
139.0,57.717707715982755,320.41215843123916,0.7849581026828729,2.9344796067018173,0.022258838288475857
140.0,57.76533533652962,320.6178488656964,0.7848661337080028,2.936392686982264,0.02225660025598177
141.0,57.78693155714998,320.81780614724755,0.784795459664564,2.9378607723564603,0.022254402564684767
142.0,57.781313478589155,321.01227984776017,0.784746973435495,2.9388669308055086,0.02225224966124404
143.0,57.74715644556398,321.20249143016986,0.7847217566082991,2.9393907592424404,0.022250146522500548
144.0,57.68382498589886,321.3884831908069,0.7847203294711341,2.9394225203929407,0.022248096943034854
145.0,57.59131971584278,321.5698801389701,0.7847427698971812,2.9389606674721853,0.02224610493119982
146.0,57.47013907673801,321.7458397973095,0.7847888203916743,2.9380101502960287,0.02224417356710736
147.0,57.32134705146073,321.91520417598247,0.7848578404045736,2.9365830501039336,0.022242308128619957
148.0,57.14683160826736,322.0754640498966,0.7849485735505879,2.9347031292640042,0.022240508340342934
149.0,56.948435831645014,322.2248357592767,0.7850598772497783,2.932391985978834,0.022238779375799857
150.0,56.7289704651374,322.36054801344136,0.7851899388468345,2.929683632458443,0.022237123967388205
151.0,56.491239574874804,322.47928732318877,0.7853368475313256,2.9266143147748114,0.022235542922587365
152.0,56.23860663466827,322.57802914364686,0.7854984384075796,2.923224514243291,0.02223403988354869
153.0,55.97412325049127,322.6539773982464,0.7856727420923458,2.9195513012802707,0.022232615357696897
154.0,55.70132100917548,322.7035659879728,0.7858573959204765,2.9156390052314385,0.022231271058350596
155.0,55.42351224564436,322.7238164398458,0.7860502061806836,2.911528672510478,0.022230009146551717
156.0,55.14382999416585,322.71206504392575,0.7862491061213198,2.9072588111023268,0.022228832402870886
157.0,54.864849865568544,322.6660715476067,0.7864524116865592,2.902861044983953,0.02222774201182488
158.0,54.58927828628402,322.5837932638371,0.7866583451561718,2.898368535569216,0.022226738753348477
159.0,54.31933647886746,322.46361126460846,0.7868653930080256,2.893809361785829,0.022225825740978793
160.0,54.05695465222843,322.30432415369717,0.7870723134727081,2.889206815495445,0.022225002280373975
161.0,53.80361728479471,322.10527952887014,0.7872781088659774,2.8845795463239146,0.022224273074540123
162.0,53.560588077756286,321.86615787566205,0.7874819976025271,2.8799423140042744,0.022223638091123186
163.0,53.32874379702379,321.5871561830337,0.7876833650282798,2.8753067614327366,0.022223098137725817
164.0,53.10871575085504,321.26873289723585,0.7878818603391131,2.8706799907439082,0.02222265713591992
165.0,52.9009674803509,320.91155491867937,0.7880771124093019,2.8660692235713228,0.022222315480110638
166.0,52.70591426642598,320.5165694064634,0.7882689292786372,2.8614784600489243,0.022222074944418652
167.0,52.52336257702648,320.0851563193583,0.7884573382856718,2.8569079860491207,0.022221936950710692
168.0,52.353641628866974,319.61846447987546,0.7886422403982365,2.8523601985410463,0.022221903352572705
169.0,52.196398787227565,319.1182143592535,0.7888237730223705,2.8478337451675455,0.022221975302742794
170.0,52.051476593127084,318.5859545211691,0.7890020625328996,2.8433269188649444,0.022222154638614797
171.0,51.918782737233585,318.023390873266,0.7891771612119863,2.838839666483555,0.022222441691043888
172.0,51.79798355226876,317.43228802475903,0.7893492028186689,2.834370497210952,0.02222283787196014
173.0,51.68843036165782,316.8145448380852,0.7895185801517209,2.8299139523273293,0.02222334422033285
174.0,51.59023301336598,316.1718052649331,0.7896851541705568,2.8254726878347083,0.02222396003399521
175.0,51.50293827816623,315.505904131,0.7898491667834774,2.8210437607779917,0.022224686032051563
176.0,51.4259510859097,314.81878526143765,0.7900108767613507,2.8166237074060665,0.022225523027590198
177.0,51.35922765000013,314.11202629239324,0.7901702824016213,2.8122133567002106,0.022226470006597377
178.0,51.30244526502333,313.387362516214,0.79032747651565,2.807812178746906,0.022227526326605546
179.0,51.255008711816664,312.6466687740198,0.7904826655204641,2.803417429126944,0.022228691623735617
180.0,51.21691044872226,311.89149491694894,0.7906358164085239,2.799030628371042,0.02222996445580239
181.0,51.187771740078134,311.123464431188,0.7907869989610818,2.794651453994059,0.022231343496730508
182.0,51.16748184169362,310.34408769701724,0.7909361993855348,2.7902809511029636,0.022232826792617587
183.0,51.15577109948504,309.5548920437777,0.791083439750283,2.7859195533598315,0.02223441240531633
184.0,51.15229681688774,308.7574146581555,0.7912287669164416,2.781567344151695,0.022236098080072767
185.0,51.15712634502018,307.9529777560086,0.7913720523579092,2.7772271117209715,0.02223788076191863
186.0,51.17025845036303,307.14277290129866,0.7915131792269287,2.772901493655252,0.022239757511411322
187.0,51.191317837181685,306.3283882111421,0.7916522169451499,2.768589876244992,0.022241725299400477
188.0,51.22029513085922,305.5109888728309,0.7917890330429963,2.764295197236226,0.022243780326416145
189.0,51.257208941936966,304.6918436992806,0.7919234722499999,2.7600203334954263,0.0222459188161834
190.0,51.30177866247239,303.8723317454579,0.7920555144171602,2.7557660473972976,0.022248136912398884
191.0,51.353994880896856,303.0535868199404,0.7921850023313721,2.751535418276925,0.022250430344721673
192.0,51.41384286825986,302.2367119490042,0.7923117832209822,2.7473312888749675,0.02225279462113534
193.0,51.48145716660181,301.4226591748605,0.7924356258103572,2.743157492230582,0.022255225107391807
194.0,51.55665992684164,300.6126640823322,0.7925564668214918,2.739015473469544,0.022257717113783576
195.0,51.63945361667097,299.8077801947652,0.7926741355415605,2.7349081137854103,0.022260265842931826
196.0,51.72973485415807,299.0091712176483,0.7927885104918295,2.730837516194285,0.02226286643852937
197.0,51.82749069680389,298.2178110045625,0.7928993984010859,2.7268069206469754,0.0222655139966117
198.0,51.93280278732565,297.43467425595907,0.7930065674623769,2.722819874345663,0.022268203421464298
199.0,52.045402137659075,296.66076651979574,0.7931099438928825,2.718877734356497,0.022270929976014944
