Time,J,A,S,tau
0.0,100.0,10.0,0.8874794931897845,26.70542781526196
1.0,99.45312326440174,9.34823714023557,0.8868751621919113,27.612977712412906
2.0,98.91874157461953,8.75585851592223,0.8862732768316384,28.522950208352444
3.0,98.39662587161625,8.217333450264805,0.8856739150848887,29.43507811008835
4.0,97.88606970135848,7.727401734764585,0.8850770603303064,30.349232994549855
5.0,97.3863972727921,7.281360292390687,0.8844826851202251,31.26529194802406
6.0,96.896961462736,6.8749928005472825,0.8838907520529985,32.183137204371505
7.0,96.41714216528275,6.504520859121441,0.8833012145069834,33.102655844321966
8.0,95.94634462985655,6.166558115330449,0.8827140173633522,34.02373949169673
9.0,95.4839977754928,5.858068545417417,0.8821290977189126,34.946284004535514
10.0,95.02955260995866,5.576325775821077,0.8815463855461625,35.870189184186074
11.0,94.58248080334353,5.318885445918504,0.8809658042871137,36.79535851149947
12.0,94.14227321658461,5.0835506412942735,0.880387271446083,37.72169887412496
13.0,93.70843855463447,4.868348055601142,0.8798106991278521,38.64912031559041
14.0,93.28050204155416,4.671504571855239,0.8792359945548712,39.57753578765918
15.0,92.85800413015124,4.491428667341291,0.878663060559003,40.50686090852743
16.0,92.44049929033648,4.326687959005949,0.8780917960376192,41.43701373419128
17.0,92.02755481965963,4.175993675131608,0.8775220963901837,42.367914533530175
18.0,91.61874974387213,4.038187391345097,0.8769538539192314,43.29948557842102
19.0,91.21367366655491,3.9122278530756636,0.8763869582330501,44.23165092499867
20.0,90.81192572527081,3.7971771793914275,0.8758212966107545,45.16433621263937
21.0,90.41311357617097,3.6921915448152625,0.8752567543523552,46.09746846709674
22.0,90.01685234616335,3.596513499122463,0.874693215126276,47.03097589861946
23.0,89.62276367965845,3.509461049046965,0.8741305612891027,47.964787714678266
24.0,89.23047476286757,3.4304192809145393,0.8735686742030897,48.89883392912608
25.0,88.83961742657715,3.3588417184681703,0.8730074345354215,49.83304518201036
26.0,88.44982716443437,3.294232747746467,0.8724467225668522,50.76735254715467
27.0,88.06074224541098,3.2361491256763775,0.8718864184850524,51.701687351184674
28.0,87.6720027920684,3.1841931874921423,0.8713264026615418,52.63598099490642
29.0,87.28324994374697,3.13801174552646,0.8707665559368577,53.57016477721122
30.0,86.89412489814472,3.0972928585858606,0.8702067599562276,54.50416968907469
31.0,86.50426804802407,3.061750991137856,0.869646897400707,55.43792625532362
32.0,86.11331823635663,3.0311355827863453,0.8690868522367696,56.3713643786322
33.0,85.72091146751924,3.0052364063965045,0.8685265102343827,57.30441303662715
34.0,85.32668053498044,2.983846939107639,0.8679657589718083,58.23700025131309
35.0,84.93025381029427,2.9668172526426653,0.8674044883331659,59.16905280181008
36.0,84.53125404572873,2.953984644774961,0.8668425909548222,60.10049596037867
37.0,84.12929858991296,2.94524609111503,0.8662799620314151,61.03125358646244
38.0,83.72399652798694,2.9404700518627527,0.8657165005573781,61.96124743100549
39.0,83.31494925088367,2.9396167045234334,0.8651521089680313,62.89039732444214
40.0,82.90175101534811,2.9425595056437115,0.8645866929157446,63.81862131016693
41.0,82.4839798765851,2.949297765182739,0.8640201651283949,64.74583349151132
42.0,82.06121071463912,2.9598167721382067,0.8634524397339441,65.67194719350377
43.0,81.63300052863457,2.974047081190846,0.8628834387091808,66.59687140925458
44.0,81.19889459125018,2.9920290609743425,0.8623130890970926,67.52051233910899
45.0,80.75842593693751,3.0137243335693205,0.8617413233477585,68.44277323329953
46.0,80.31110600122263,3.039196199199407,0.8611680833416699,69.36355221891532
47.0,79.85643846479248,3.0684553324189188,0.8605933144108957,70.28274555937534
48.0,79.39389823192847,3.1015552035152085,0.8600169746462447,71.20024269748941
49.0,78.9229499026575,3.1385836176033144,0.8594390267167394,72.11593064139969
50.0,78.44303184245199,3.179583808728602,0.8588594451413747,73.02969016456765
51.0,77.95356420608589,3.2246569939255343,0.8582782126495593,73.94139774421576
52.0,77.45393922383063,3.2738886590778593,0.8576953247828233,74.85092323273416
53.0,76.94352949356715,3.3274014842021185,0.8571107861014013,75.75813184224802
54.0,76.42167492230998,3.3853103608436115,0.8565246164209745,76.66288102471145
55.0,75.88769450013335,3.447757523853713,0.8559368453511409,77.56502327646777
56.0,75.34086957593038,3.5148890347068615,0.8553475203753793,78.4644021448092
57.0,74.78045912216832,3.586865524204096,0.854756699662611,79.36085585587746
58.0,74.20567941358205,3.6638663604137838,0.8541644620089582,80.25421246052844
59.0,73.6157215276554,3.746078157747756,0.8535708984814762,81.14429399187206
60.0,73.00973268413877,3.8337057352572717,0.8529761216863173,82.03091199261169
61.0,72.38682667008737,3.926946799203843,0.8523802608290385,82.91386997478831
62.0,71.74607521678114,4.0260474765112795,0.8517834660634372,83.79296136336762
63.0,71.08650687396899,4.131237223788454,0.8511859093347905,84.66796915314046
64.0,70.40711110224592,4.24277326771777,0.8505877823693295,85.53866690260045
65.0,69.70682529533102,4.36093569481338,0.8499893034665482,86.40481554927558
66.0,68.98454550904925,4.485989333727949,0.8493907121969594,87.266165954406
67.0,68.23911521165887,4.618255958849527,0.8487922752244862,88.12245617394606
68.0,67.46932639773071,4.758030846389188,0.848194285998278,88.97341161581973
69.0,66.67392314548377,4.9056473516851655,0.8475970628983454,89.81874592220254
70.0,65.85158780631436,5.061455688857662,0.8470009565918759,90.65815747903616
71.0,65.00095444213457,5.225789370907976,0.84640634310709,91.49133265926562
72.0,64.1205949064731,5.399047143770918,0.8458136310689156,92.31794235679106
73.0,63.209023243240495,5.581587240600292,0.8452232595429826,93.13764290656559
74.0,62.26469817406306,5.773818143214431,0.844635696587575,93.95007671971197
75.0,61.28601025477816,5.976153453253091,0.8440514459549309,94.754868870973
76.0,60.27129746118198,6.188988302356805,0.8434710388586072,95.55163095107623
77.0,59.21882832026618,6.412804269301445,0.8428950423744351,96.33995670590589
78.0,60.88233749313328,7.051721977653743,0.8423240518873665,97.11942551175402
79.0,64.46903199403712,7.963695637593405,0.84175869535417,97.88959989862936
80.0,68.28186304682548,8.901915213592765,0.841199630746503,98.65002642040702
81.0,72.26381182086388,9.867564235415388,0.8406475451167476,99.4002356265903
82.0,76.35661913623737,10.861842419702121,0.8401031529414686,100.13974232707159
83.0,80.50141429369972,11.885962022346083,0.8395671943204153,100.8680458125781
84.0,84.63943564731794,12.941143725240302,0.8390404324707259,101.58463035528787
85.0,88.71279590284435,14.028611570113371,0.8385236508500464,102.28896578892409
86.0,92.66532855370775,15.149587848463018,0.83801764987371,102.98050813630132
87.0,96.44342153544665,16.305287084835452,0.8375232428753685,103.65870057907583
88.0,99.99686055624994,17.496909082570582,0.8370412516987461,104.32297443631545
89.0,103.27967279090285,18.725632000948153,0.8365725016364742,104.97275032268294
90.0,106.25086521418882,19.99260423680803,0.836117815738571,105.6074395468328
91.0,108.87506310875828,21.298935986684878,0.8356780086169118,106.22644565343005
92.0,111.12306214379839,22.645690000127967,0.8352538795551584,106.82916609779983
93.0,112.97218964763702,24.033871984983232,0.8348462050905906,107.41499413563591
94.0,114.4065104984033,25.464420156489297,0.8344557309121553,107.98332086787893
95.0,115.41683516280725,26.93819362958508,0.8340831629809969,108.53353749750526
96.0,116.00012582289123,28.45596606835873,0.83372916309433,109.06503718481048
97.0,116.16051653206733,30.018401537023806,0.8333943230046003,109.57721926770698
98.0,115.90647498585358,31.626068309249323,0.8330791811448882,110.06948900248044
99.0,115.25191628551697,33.27939822912426,0.832784190524301,110.54126262606245
100.0,114.214661890855,34.97868795980072,0.8325097150731589,110.99196952429602
101.0,112.8155052958413,36.724091996636076,0.8322560228235869,111.42105435728702
102.0,111.07741187025846,38.51560493550426,0.8320232711141771,111.8279805450191
103.0,109.02453758381601,40.353054074043655,0.8318114975726614,112.21223285069311
104.0,106.68135867391766,42.23608761568384,0.8316206089350527,112.57332032028958
105.0,104.07190077473302,44.164166096591394,0.8314503719607252,112.91077881045283
106.0,101.21910416469109,46.136554917786775,0.8313004042271818,113.22417349482537
107.0,98.14433321112625,48.15231746718257,0.8311701654655589,113.51310122593053
108.0,94.86703145445149,50.21030947365598,0.8310589496065265,113.77719271465116
109.0,91.40451335334345,52.309174458167504,0.830965877116707,114.01611461148813
110.0,87.7718907362156,54.447339700343065,0.8308898879863045,114.22957141333976
111.0,83.98213807972108,56.623016080011816,0.8308297377035163,114.41730668889649
112.0,80.04623494922389,58.834199445064264,0.830783993761693,114.57910413258931
113.0,75.97335583641373,61.078671123945206,0.8307510314329937,114.71478873312108
114.0,71.77113056437668,63.35400713380359,0.8307290359005269,114.82422652056123
115.0,67.85813310341031,65.24584394989562,0.8312847816368701,113.99538667897083
116.0,67.60601045340759,63.450581111025556,0.8377975434609626,103.27912951115
117.0,67.35082073048139,61.678285680581034,0.8455818343094867,89.96806791949686
118.0,67.09289629749703,59.929430053928606,0.8535844884360249,76.42577343894861
119.0,66.83263351306991,58.20447874369607,0.8606162346410541,65.19024160921117
120.0,66.5705016776119,56.50388703048939,0.8662900286615647,56.72339098431097
121.0,66.30705303680188,54.828099572012576,0.8707582874943371,50.395395282796095
122.0,66.04293398760835,53.177549005309544,0.8742763018855471,45.550889740336736
123.0,49.00134658346031,68.1211346514684,0.877057915500862,41.73236990487497
124.0,28.9590590246093,85.53619012952294,0.879260938641819,38.642380842392306
125.0,12.263142512581389,99.15856827188226,0.8809993602469245,36.08641698622709
126.0,0.0,108.45498714484928,0.882356403923344,33.9337109165934
127.0,0.0,113.9022557904802,0.8833940241683993,32.09353563641119
128.0,0.0,116.31188114877567,0.8841593197744662,30.50103659917458
129.0,0.0,116.50320418845293,0.8846888322803299,29.10858327784971
130.0,0.0,115.16863067639814,0.8850114519541621,27.880348747979554
131.0,0.0,112.83886886566995,0.885150415767251,26.788813591258833
132.0,0.0,109.89483327953023,0.885124708305,25.812447166457776
133.0,0.0,106.59674337394614,0.884950063490635,24.9341292286261
134.0,0.0,103.11542273979451,0.8846396935985305,24.14005075274259
135.0,0.0,99.55931536144024,0.8842048291378393,23.41893190818958
136.0,0.0,95.99531612229045,0.8836551258483334,22.761453614944923
137.0,0.0,92.46347535875984,0.8829989737674802,22.1598405079906
138.0,0.0,89.0005658036142,0.8822437393220636,21.607543183332293
139.0,0.0,85.62796498612602,0.8813959493429293,21.099002668822706
140.0,0.0,82.34656157211603,0.8804614431333558,20.629467842240803
141.0,0.0,79.15721346135403,0.8794454907907259,20.194847781899988
142.0,0.0,76.06041880162465,0.878352889276512,19.79159960213085
143.0,0.0,72.99235440466879,0.8771880428872395,19.41663618113525
144.0,0.0,69.98846008786326,0.8759550184008,19.067256462473317
145.0,0.0,67.06934001600828,0.8746576058914705,18.741085082432132
146.0,0.0,64.23526672738652,0.8732993634059683,18.43602714542119
147.0,0.0,61.48573274302931,0.8718836486029597,18.15022828134389
148.0,0.0,58.820090762607045,0.8704136528958826,17.882035229976847
149.0,0.0,56.23762928132777,0.8688924321860126,17.62997247502838
150.0,0.0,53.73754096318395,0.8673229159615087,17.39272498131216
151.0,0.0,51.31892017465873,0.8657079337080802,17.169108889992206
152.0,0.0,48.98082967206085,0.8640502391631523,16.958057122479673
153.0,0.0,46.7222309922579,0.8623525055486189,16.758614612951995
154.0,0.0,44.54198897414308,0.8606173492841493,16.569910144520428
155.0,0.0,42.43899761732001,0.8588473437160709,16.39116205348984
156.0,0.0,40.4119960848263,0.8570450127375895,16.22165686770436
157.0,0.0,38.459694447414094,0.8552128488463099,16.060746474585297
158.0,0.0,36.58078413203351,0.8533533176971394,15.907843005483718
159.0,0.0,34.773882850930526,0.8514688591644864,15.762409181722784
160.0,0.0,33.03759692203518,0.8495618947993863,15.62395506321964
161.0,0.0,31.370516940777105,0.8476348303106533,15.492032536648772
162.0,0.0,29.771232589968697,0.8456900577514864,15.366231748150268
163.0,0.0,28.238359905478358,0.8437299580376754,15.246177185439556
164.0,0.0,26.77056375713467,0.8417569022650832,15.13152434194861
165.0,0.0,25.366589827511874,0.8397732526162761,15.02195698292452
166.0,0.0,24.02530876325201,0.8377813631921587,14.917184455126241
167.0,0.0,22.745763005571714,0.8357835801212176,14.81693939913213
168.0,0.0,21.52722691674403,0.8337822414634863,14.720975705126799
169.0,0.0,20.369275944382967,0.8317796768345005,14.629066604303132
170.0,0.0,19.271859214116226,0.829778206599958,14.54100296970106
171.0,0.0,18.23538380398813,0.8277801409896957,14.456591799492205
172.0,0.0,17.260807773568075,0.8257877788880789,14.375654925016175
173.0,0.0,16.349721467945063,0.8238034065058744,14.298027665012203
174.0,0.0,15.50443463738043,0.821829295824411,14.223557758584011
175.0,0.0,14.728044508075714,0.8198677028491067,14.152104349908347
176.0,0.0,14.024469507619033,0.8179208657428145,14.083537018706492
177.0,0.0,13.398471856165033,0.8159910029143574,14.01773496746414
178.0,0.8017802623388683,12.855625495848976,0.8140803109425786,13.954586249238172
179.0,3.058721177191006,12.402231150871136,0.8121909624266482,13.893987065115548
180.0,5.338622015728186,12.045167822458005,0.8103251037646854,13.835841126641158
181.0,7.594446656151776,11.791668903257698,0.8084848528747356,13.780059072470994
182.0,9.773308607553192,11.649015898330289,0.8066722968822644,13.726557934113188
183.0,11.818032045431071,11.62414400937349,0.8048894897681816,13.675260649464192
184.0,13.669201663502841,11.723158525154323,0.8031384500086136,13.626095615946966
185.0,15.26777469009945,11.950767284089068,0.8014211582106634,13.57899628156709
186.0,16.558308877100796,12.30964012987018,0.7997395547285086,13.533900772536086
187.0,17.49277110202165,12.799728963727603,0.7980955373373906,13.490751547504251
188.0,18.034633202514602,13.417583266781811,0.7964909589157356,13.449495082867836
189.0,18.162739361015127,14.155718024317824,0.7949276250849222,13.410081588831968
190.0,17.874084262366235,15.002134614445724,0.7934072920798271,13.372464735361227
191.0,17.18494092528364,15.940007088110507,0.7919316643391999,13.336601421914501
192.0,16.12977680277276,16.947689505854072,0.790502392654309,13.302451537646132
193.0,14.758499949066929,17.998996746409368,0.7891210718744107,13.269977768295641
194.0,13.132370780511984,19.063823343003186,0.7877892389554993,13.239145403910491
195.0,11.319561632823373,20.10904303640905,0.7865083710226086,13.209922166031028
196.0,9.391051604383163,21.099659079535797,0.7852798835159809,13.182278048654375
197.0,7.4172180094941975,22.000195657116073,0.7841051284029968,13.156185173173817
198.0,5.4651092149731495,22.77635899691764,0.7829853925036323,13.131617653957674
199.0,3.5961557381172504,23.397017709135024,0.781921895893079,13.108551475910472
200.0,1.8640521925753148,23.836479363853186,0.7809157903937075,13.086964382338259
201.0,0.31275400936607345,24.076854742064572,0.779968158182055,13.06683577177751
202.0,0.0,24.110093033983787,0.7790800104818137,13.048146604142666
203.0,0.0,23.939129584019515,0.7782522863722916,13.030879314730758
204.0,0.0,23.577688708176364,0.777485851699442,13.015017735898336
205.0,0.0,23.04861871366677,0.7767814979427751,13.000547027480977
206.0,0.0,22.38105581349478,0.7761399415284581,12.98745360958377
207.0,0.0,21.60709692711919,0.7755618229480573,12.975725106109861
208.0,0.0,20.758661629594098,0.7750477060818728,12.965350291774035
209.0,0.0,19.86510750416426,0.7745980776474231,12.956319045000686
210.0,0.0,18.951814635315827,0.7742133467234076,12.948622306299553
211.0,0.0,18.039684395281174,0.7738938443748328,12.9422520414089
212.0,0.0,17.145330608202297,0.7736398234356178,12.937201208111226
213.0,0.0,16.281680753884338,0.7734514583110929,12.933463729972216
214.0,0.14195427249227924,15.4587808541081,0.7733288448308844,12.931034471966125
215.0,1.5101597726145797,14.684623815756161,0.7732720008036593,12.92990921850151
216.0,3.0596327662188947,13.965923523346449,0.7732808656467204,12.930084661441752
217.0,4.78008936940043,13.308789394104057,0.7733553008709779,12.931558386309206
218.0,6.654906671106759,12.719266064681767,0.7734950904192415,12.93432886464215
219.0,8.66019613690158,12.20372374071307,0.7736999412001759,12.93839544893025
220.0,10.764286507521316,11.769084273417485,0.7739694835991235,12.943758372398674
221.0,12.927714343912717,11.422870808718564,0.7743032721829273,12.950418751149046
222.0,15.103733024558155,11.173078202933354,0.7747007864996445,12.958378590102019
223.0,17.23936103178748,11.027880148961618,0.7751614318843456,12.96764079328713
224.0,19.27693404756843,10.99519791688879,0.7756845404767579,12.978209176302498
225.0,21.15609749443163,11.082166822403266,0.776269372280044,12.990088483149455
226.0,22.816297653565336,11.294545680983871,0.7769151162596329,13.003284406920368
227.0,24.199747557786313,11.636106171997113,0.7776208916235163,13.017803613406945
228.0,25.254900741150873,12.108043708945633,0.7783857491514831,13.033653768642806
229.0,25.940239868375556,12.708440030269758,0.7792086725805695,13.050843570885355
230.0,26.227910017626595,13.43181586738181,0.7800885802228956,13.069382784232053
231.0,26.106757008681626,14.268778447497132,0.781024326154501,13.089282283865117
232.0,25.583622049388016,15.205858886384414,0.7820147024210116,13.110554090621404
233.0,24.6831079903389,16.22547000840285,0.7830584403445573,13.13321142739377
234.0,23.44537487386709,17.30612112228239,0.7841542125975334,13.157268766104655
235.0,21.922723515045963,18.422818803867628,0.7853006349084619,13.18274188822029
236.0,20.175520465417197,19.547689279467203,0.7864962681052846,13.20964794482926
237.0,18.268257633004744,20.650777110600988,0.7877396200628506,13.238005524850454
238.0,16.266171462459212,21.7010171805242,0.7890291477855945,13.267834727311584
239.0,14.232581091835224,22.66738886909307,0.7903632595519097,13.299157238871002
240.0,12.22680971113331,23.520287922896966,0.7917403170759484,13.331996417958512
241.0,10.302453468859353,24.233138947594384,0.7931586377448546,13.366377384019971
242.0,8.505809077647791,24.784190059818382,0.7946164968833691,13.402327113877323
243.0,6.874459501659191,25.158285373290013,0.7961121300667052,13.439874544236453
244.0,5.436221141795396,25.34828477352339,0.7976437354805704,13.47905068050433
245.0,4.2087545152577155,25.355766179004146,0.7992094763129395,13.519888712439062
246.0,3.2000678105325107,25.190762477392827,0.800807483147546,13.562424138580456
247.0,2.4099574684300262,24.870500949936062,0.8024358563663704,13.606694900055228
248.0,1.8322146513698594,24.417377729587706,0.8040926686895272,13.652741513187998
249.0,1.4571009548246816,23.85660203411902,0.805775967584486,13.700607220893144
250.0,1.273716990177748,23.213922560851213,0.807483777755831,13.750338147053238
251.0,1.2718780941181989,22.513792479449265,0.809214103625775,13.80198346102591
252.0,1.443312899218625,21.778142886624426,0.8109649318332551,13.85559554845401
253.0,1.7821650203886568,21.025763391746406,0.8127342337093587,13.911230194235845
254.0,2.2849029840244266,20.272190007955974,0.8145199677678864,13.968946768894293
255.0,2.9498086895611886,19.52993257835891,0.8163200821528022,14.028808437823843
256.0,3.7762048773754353,18.808919114597185,0.8181325171305853,14.090882358063963
257.0,4.7635604052480955,18.117009024060664,0.8199552075175238,14.15523989730952
258.0,5.910567089128456,17.460511713154837,0.8217860851023333,14.221956870206206
259.0,7.214293726973839,16.844671438861194,0.8236230810896488,14.291113769298294
260.0,8.669409185828114,16.27407737124759,0.8254641284682576,14.362795995393638
261.0,10.267520429296447,15.752994359421859,0.8273071643635411,14.437094114817759
