Time,J,A,S,tau,r
0.0,1.0,1.0,0.7968432136172162,12.195121951219512,0.0
1.0,0.9091958515081608,0.8448309920938416,0.7981051224698842,13.02569912919734,-0.0017838510175582204
2.0,0.811052729717741,0.7357132071185969,0.7994040346960729,13.852020496432768,-0.0017484195067062024
3.0,0.7066295307246137,0.6603699704617507,0.8007415881586504,14.673875471691984,-0.001711917993346364
4.0,0.5967209667361573,0.6099440048618495,0.8021193950699991,15.491045149030464,-0.0016743709893491147
5.0,0.4819368166232992,0.5780232289667121,0.803539139628435,16.30330434929265,-0.0016358407296295351
6.0,0.3627473398346997,0.5599783098389092,0.8050024451819672,17.110426906601116,-0.0015963436885694975
7.0,0.23950138896416814,0.5525303026169948,0.8065108782827057,17.912185812014503,-0.0015557221547203971
8.0,0.11252038050192897,0.5532132026583884,0.8080663009509648,18.708322032312893,-0.0015141139400455766
9.0,-0.017940493653383727,0.5603090144000996,0.8096699234020539,19.498628137274327,-0.0014714623286844633
10.0,-0.15164368382452895,0.5725767302384415,0.8113234537307974,20.28284540226514,-0.0014277464033634198
11.0,-0.2883611122723707,0.5891404739295715,0.8130286109811496,21.06070537982742,-0.0013829342903637692
12.0,-0.427845606234325,0.6093530246170522,0.8147864969614002,21.831984848929615,-0.0013370454280094886
13.0,-0.5698417713346479,0.6327978306033607,0.8165984284807142,22.596434148672834,-0.0012900515433269535
14.0,-0.7140703382915329,0.6592235490561557,0.8184660084312579,23.35376878335634,-0.0012419011269931893
15.0,-0.8601899481476087,0.6884181712857756,0.8203902794688621,24.10374011645902,-0.001192618007513357
16.0,-1.0078260032896433,0.7203152091039634,0.8223724727709819,24.846074923471196,-0.0011421641088485994
17.0,-1.156541439167577,0.7549107397506001,0.8244137250106299,25.58049340950653,-0.0010905092550147584
18.0,-1.3058195724059214,0.7922332294486742,0.8265148477940307,26.306730955882546,-0.0010376366497331525
19.0,-1.4550448558486224,0.8322995615614992,0.8286768365169557,27.024491789418526,-0.0009835653008822996
20.0,-1.6035370112277836,0.8752954859875189,0.8308998648614493,27.733535348653863,-0.0009282318888241253
21.0,-1.7505030415851073,0.9214693059387544,0.8331851685907902,28.433518330948388,-0.0008715600325263418
22.0,-1.8949644417270608,0.9708750762412992,0.8355327453468752,29.124176552624828,-0.0008135952314514378
23.0,-2.0358544225473607,1.0238773989958765,0.8379428223187526,29.805213298379957,-0.0007542418300331885
24.0,-2.1718932875208354,1.0806827108475707,0.8404154923431197,30.47631947862134,-0.0006935036492556703
25.0,-2.301613486288361,1.141638759216831,0.8429503589732398,31.137204375523222,-0.0006313246156150898
26.0,-2.4233239639380373,1.2071096204238054,0.8455469321697312,31.787562803085713,-0.000567673545292823
27.0,-2.5350695058532855,1.277611541887293,0.8482045409773826,32.427078623222705,-0.0005024718696460422
28.0,-2.634578387827809,1.3536208565228132,0.8509223891248184,33.055417129428896,-0.00043568305622406704
29.0,-2.7192163370506646,1.4356975661082365,0.8536983059926138,33.672326355293784,-0.0003672564060572648
30.0,-2.785935862079158,1.5244999544311177,0.8565311013555248,34.27744148154272,-0.0002971364722538101
31.0,-2.8312373189875593,1.6210827857623902,0.8594188016146767,34.870432057453144,-0.00022519552408427243
32.0,-2.8509811930378723,1.7262852901535666,0.8623581977883054,35.45102375838505,-0.00015138681700165808
33.0,-2.840366475392465,1.8414093520774966,0.865346729791561,36.01885530691458,-7.559216405712332e-05
34.0,-2.7937583117030553,1.9679070163254966,0.8683801402670766,36.573658072539295,2.293436861580729e-06
35.0,-2.704505658814115,2.1077345666985026,0.8714546511153181,37.11507830308068,8.2421998200517e-05
36.0,-2.5646873490663396,2.2633604713304383,0.8745651199981717,37.642822131137564,0.00016497146950595674
37.0,-2.364778254040658,2.4380740977514237,0.8777060407285819,38.15657198310144,0.0002501692172747224
38.0,-2.0931709604560167,2.636558478378684,0.8808710475565081,38.656024340668544,0.0003383332610019719
39.0,-1.7353614538438684,2.8656009259308175,0.8840528519824957,39.14088749178834,0.00042990282240855425
40.0,-0.9954622817567514,2.8352685515178644,0.8840592092471496,37.59785971815542,0.000452290897760839
41.0,-0.12377288412365495,2.748215579053548,0.8827031938849718,35.61890943878967,0.00045688635431872404
42.0,0.7806289245221552,2.7407169038383574,0.8811947699666444,33.77779554434061,0.0004711500784262927
43.0,1.7391139205457822,2.7821633948258215,0.879420226199294,32.40618030111288,0.0004915804894875573
44.0,2.760565128741582,2.8269218672240815,0.8776042129976009,30.604077607998338,0.0005110672249903719
45.0,3.8280387982489823,2.9008519858894855,0.8755646258108036,29.408516557094842,0.0005359320044711778
46.0,4.973203102722583,2.9841824021829266,0.8734348606359493,27.83044573296684,0.0005595127512594667
47.0,6.196315538363325,3.091592731055781,0.8710346005003674,26.619005306364894,0.0005853429833295922
48.0,7.501777301260125,3.237577829593554,0.8685225922921266,25.550176193799604,0.0006149625716706188
49.0,8.914556731830587,3.4205828126048696,0.8658648663633792,24.522944147274178,0.0006467111225980038
50.0,10.46074686373703,3.643839472957897,0.8630237133175538,23.53172509522646,0.0006800630847528343
51.0,12.1708017874132,3.9133455294423083,0.859983860924059,22.576707719684478,0.0007149696667291673
52.0,14.074033382918525,4.244574590586191,0.8567920126209071,21.667100341057537,0.0007524276816704217
53.0,16.178876423485207,4.683313739578756,0.8535530025503569,20.97901687869105,0.0007958934390368123
54.0,18.55642269511542,5.223782000980581,0.8502034279974017,20.355490818457028,0.0008428049389764453
55.0,21.373010250617316,5.783243659556175,0.8462933188180759,19.52964573739302,0.0008843640371463771
56.0,24.594554622933646,6.499227778216834,0.8423624713756142,18.779681977480518,0.0009311777257654496
57.0,28.20011723785153,7.506956374681072,0.8386765171672342,18.370789645249967,0.000989221285980577
58.0,32.73113666233237,8.41552926115428,0.8338777944869364,17.62989339311198,0.0010343132692582151
59.0,37.86674023923637,9.615696416189262,0.8300172192515789,17.275496965950534,0.001099795425580923
60.0,44.162731171823935,10.587274418003194,0.8247587205747914,16.599739140622397,0.0011497343596618822
61.0,51.081314347768206,11.94833662246922,0.8206225015541193,16.27676688711799,0.0012210004192433242
62.0,59.33852820536949,13.049572355243988,0.8147063651860843,15.64924088312487,0.001273653234228766
63.0,68.21259022674515,14.706288087340281,0.8104376727626896,15.365213222358102,0.0013521278211570049
64.0,78.63489748892576,16.0937365687812,0.8040770471443888,14.807614610533546,0.0014104286799648442
65.0,89.88093753302965,18.027015184089873,0.7987668136649937,14.503717834299843,0.0014867087135633044
66.0,102.33102590067723,20.311048327082986,0.7934314170783541,14.22156256942106,0.0015669625708072128
67.0,116.61665386318609,22.41739830257063,0.7860375972236487,13.714490321069713,0.00162959125622699
68.0,131.5805053590021,25.675941231043982,0.7806783603930167,13.474079659627145,0.0017173944952036091
69.0,148.06576220360083,29.480152873229724,0.7746512325074072,13.219165787172876,0.001803406360203042
70.0,166.72136161338835,33.22046762106433,0.766381559238493,12.770463404218365,0.001872004679886703
71.0,185.70358313942984,38.8015453010289,0.7599254284138967,12.537080581405547,0.001962120783943318
72.0,205.6011880028023,45.696766380281524,0.754189897519031,12.33793351770458,0.002058770997069149
73.0,227.27528107813282,52.65244014144729,0.7458038834229643,12.019844194659601,0.0021401944133154784
74.0,249.14832930645775,60.51456961682251,0.7369051345218947,11.69224077323128,0.0022215221607776343
75.0,269.1656320777798,70.77528765604754,0.7303367822868921,11.507209657940965,0.00232087214268602
76.0,287.5336792952264,82.43316698508052,0.7238578120994422,11.331698067081113,0.0024216236066522323
77.0,304.16105235481336,94.50330604853178,0.714712060039167,11.073024350480685,0.0025108979087546212
78.0,317.4791655168948,107.41679910188685,0.7045326294919532,10.762310857310455,0.0025952796003317355
79.0,324.2123828429688,123.63425097031342,0.6963923615181211,10.580515011010531,0.0026950614713551393
80.0,325.1677088867788,141.57846374718727,0.6897593254890968,10.433343844336829,0.0027979809389318657
81.0,319.55283533765686,161.42388658621974,0.6817216681598849,10.268740171643508,0.0028989147359291772
82.0,307.90299553756756,182.34184117146944,0.6710704082484221,10.02320400730642,0.002989349393481806
83.0,289.6007859569662,204.9689220322094,0.6599121545314323,9.768972629898151,0.0030786510371785553
84.0,265.2680519563356,228.99244193322872,0.6507410247974567,9.60787207076151,0.003178360464703881
85.0,238.29532263958578,251.65332562036815,0.6434018501378067,9.479876348478463,0.003278405968458116
86.0,209.45991103014177,272.97268007819656,0.635645537368271,9.350951342589354,0.003377144255828962
87.0,179.03706739245686,293.4194390247634,0.6255689576967037,9.189168399829253,0.0034728429086719865
88.0,147.41142995691186,313.21433527445,0.6134964857902195,8.963339865763656,0.00356013458423291
89.0,117.91896662109627,329.5844974043315,0.6015770616509686,8.762900195969237,0.003649100182230031
90.0,94.91445197716746,338.8017802133893,0.5916207535060718,8.625908782312559,0.003742504483115881
91.0,76.65156235532186,343.1063629567303,0.5835716786194858,8.515993982414193,0.0038331745721368418
92.0,62.1013889261038,343.7948017716282,0.5758563823546129,8.41160637777841,0.0039210619175229
93.0,50.747551296935036,341.51747578415774,0.5666907503022126,8.296409615997405,0.004007850010693968
94.0,41.57643510391824,337.3448603497978,0.5553120961185984,8.14989801681157,0.004091743754076414
95.0,32.89991860221545,332.9737302115447,0.5425004709019786,7.962876836465842,0.004169664362931
96.0,27.764876516867336,325.4059205272104,0.5299142770603117,7.795034684525685,0.00424725411867983
97.0,25.589348862568563,315.3400180300514,0.5189382868701361,7.673033807596988,0.004325282778148948
98.0,24.548659937448956,304.6660964891959,0.5098974660897955,7.576808903951291,0.004399186805142371
99.0,24.29867186988826,293.7705889248111,0.5020615259089837,7.491459457404915,0.004468680544941424
100.0,24.709744623584683,282.8221780745382,0.49418513667979636,7.407715612106324,0.0045352731880686096
101.0,25.696630472358905,271.9445095886383,0.48512704105376414,7.317588177093699,0.004600278289237023
102.0,27.18290602459803,261.2511854072545,0.47434844884311517,7.211585855642822,0.004663802878211591
103.0,28.900426368385837,251.0429722255164,0.4621287172746402,7.080472519915089,0.0047239325826240325
104.0,30.635527721988122,241.55710796636262,0.4493661266552098,6.934627719365976,0.004780120922386639
105.0,33.22471450368808,231.98888658584505,0.4370957240866706,6.808198161816338,0.004834523711816271
106.0,36.49930564107787,222.54255060944163,0.42608665221695186,6.71015736210114,0.004886227020672913
107.0,40.1718343706824,213.51797877144057,0.4166072741385895,6.631278412096417,0.0049334010210784415
108.0,44.13495533314367,205.01100075646423,0.40843914470631504,6.563328273744286,0.004976140758652902
109.0,48.30491119921017,197.07179589464735,0.4010552418199354,6.501023021995363,0.005015277389463883
110.0,52.622075692504794,189.70573045491943,0.3937987467839544,6.44092092753289,0.005051547986032603
111.0,57.03130379799293,182.89545470083462,0.38606899746835244,6.380406230390048,0.0050854961148701205
112.0,61.455357053339,176.63089597136585,0.3774858606909311,6.3169164810272,0.005117508647889435
113.0,65.78891880393357,170.91974006601475,0.36794161390626906,6.247736287071959,0.005147739844713541
114.0,69.88265673008634,165.80806034207467,0.35757671548061126,6.170442743205522,0.005175933522765754
115.0,73.55571308380377,161.37303827355166,0.34670457359219403,6.084662089988115,0.005201511222784636
116.0,76.7432974167511,157.58244001552825,0.3356989976007595,5.995163542019448,0.005224180015736997
117.0,79.60337342638617,154.19660793449353,0.3248947992219751,5.911101101347484,0.005244129584222102
118.0,82.23641283216877,151.0526142635187,0.3145307369689602,5.838884892045471,0.005261421282698956
119.0,84.5920724867005,148.15318945885232,0.304737433808055,5.779155266413272,0.0052758304197051634
120.0,86.62047849521377,145.51313887725476,0.2955414901992951,5.729845738851118,0.005287243810831178
121.0,88.31401046794454,143.1165302648423,0.28689203373488203,5.688664705960463,0.005295800358110948
122.0,89.70219887687716,140.9210911725027,0.27869740043271307,5.653795682716749,0.005301760846908426
123.0,90.83584995203822,138.8721077192307,0.27085692101128694,5.623910163579968,0.005305386522573606
124.0,91.77097939362308,136.9162485729245,0.2632815489390316,5.598052424273663,0.0053068941075204165
125.0,92.55975553730758,135.00841670062528,0.2558983125031476,5.575560943967231,0.005306451889706911
126.0,93.24647879856616,133.11331235278195,0.2486479042393364,5.55602202228743,0.005304189225827847
127.0,93.86690531982529,131.2046955523878,0.24148118052666537,5.5392176401158375,0.005300208299191379
128.0,94.44821396770304,129.26406384935467,0.23435808297539165,5.52506983421624,0.0052945936752045375
129.0,95.00985645765194,127.27943851747445,0.22725006446822454,5.513571466550144,0.005287419790945292
130.0,95.56425051975575,125.24421321902523,0.2201405030790674,5.504744728921656,0.005278755575601745
131.0,96.11812934000908,123.15604249863584,0.213024245083707,5.498606606874943,0.005268667787904525
132.0,96.67376753645807,121.01578217712401,0.20590399384252472,5.495160636813829,0.005257222760739998
133.0,97.23018124042484,118.82652672940381,0.19878683870933317,5.494400776462367,0.005244487128980377
134.0,97.78426197130038,116.59287627015999,0.1916816809217737,5.49631624082623,0.005230528228039432
135.0,98.33159205122037,114.32041221769569,0.18459811146999244,5.500897087177284,0.005215414046125868
136.0,98.86693213124278,112.01546698568721,0.17754874900641482,5.5081202046350635,0.005199213364020551
137.0,99.38451978771899,109.68514389136116,0.17055462301247892,5.517918613108466,0.005181995769699941
138.0,99.87795207521602,107.33744163483476,0.16365206685166162,5.530131445713525,0.005163831949740005
139.0,100.3403523249013,104.98137612198839,0.15689923250547433,5.544443034804361,0.005144793573913123
140.0,100.7646085685854,102.62667829137337,0.1503726148448749,5.560373927703474,0.0051249530202427075
141.0,101.14428250592883,100.2831016189387,0.1441542662462929,5.57733224881331,0.005104382648308361
142.0,101.47450192471072,97.95940049610624,0.13830979911468533,5.594756752691603,0.005083153262847539
143.0,101.7527413266263,95.66282986818706,0.13287755003972126,5.612212180287551,0.005061333798764064
144.0,101.97841027848497,93.39913471069926,0.12786797822420864,5.629430982631393,0.005038990973563931
145.0,102.1527233641209,91.17298669253181,0.1232720130866877,5.646287515699402,0.005016189260093551
146.0,102.27785595285069,88.98847620739856,0.11907082841434825,5.662733332129574,0.0049929912541657375
147.0,102.35691321076385,86.84951461026714,0.11524247632523325,5.678748587738422,0.004969457667020479
148.0,102.39341301117899,84.75997869409552,0.11176526229234693,5.6943054761337635,0.004945647320788028
149.0,102.3913088969246,82.7236996566504,0.10861815491057242,5.709371808670602,0.004921616718605683
150.0,102.35498921087516,80.7445657442035,0.10578235328072981,5.7238835587185495,0.004897420039065888
151.0,102.28923666362051,78.82644965208293,0.10324068420539377,5.73775280806963,0.004873108988231405
152.0,102.19920171203243,76.97317882882942,0.100977810148661,5.750875726892015,0.004848732547104482
153.0,102.090425710157,75.18850337330164,0.0989797410900403,5.763138098994972,0.004824336962129738
154.0,101.96872523731788,73.47607515571659,0.09723410924089065,5.774419299593994,0.00479996576271351
155.0,101.84022430048776,71.8394323891087,0.09572993929803883,5.784603622847232,0.004775659733962428
156.0,101.71121115531314,70.28201139760151,0.09445780487085464,5.793578770239607,0.004751457164412031
157.0,101.58828242429044,68.8071244464941,0.09340983588709988,5.801243113620116,0.004727393963773774
158.0,101.47813164086307,67.41795751131154,0.0925795871747588,5.807508174263217,0.004703503910408433
159.0,101.38761443008728,66.11757517609254,0.09196198520215018,5.812301382437218,0.004679818884485129
160.0,101.32366550298964,64.90891146791606,0.0915532888764494,5.8155693740893035,0.004656369093985707
161.0,101.29327317819184,63.794805252819536,0.09135104978265679,5.817277138618584,0.004633183336996999
162.0,101.30341993055238,62.778033030223526,0.09135416291920904,5.817406037282741,0.004610289278902832
163.0,101.36100210238646,61.86130809227477,0.09156270973786326,5.815960145447508,0.004587713566694881
164.0,101.47284423838346,61.04733225925637,0.09197804095923603,5.812960707123913,0.0045654820936319495
165.0,101.64551754285098,60.33882922060068,0.09260282274847574,5.808447035394902,0.0045436201563264144
166.0,101.88543518302137,59.738572987290915,0.09344096819868256,5.802476948537024,0.0045221526349435975
167.0,102.19850270269812,59.249420147751565,0.094497781655737,5.795125939756335,0.004501104064199847
168.0,102.59034733307682,58.87437005450728,0.09577999794692493,5.786482779698313,0.004480498904031932
169.0,103.06599515784495,58.61657822912199,0.0972957847102555,5.776650292168122,0.004460361616357286
170.0,103.6298270276769,58.47942238839278,0.09905493631611971,5.76573846097884,0.0044407169015988745
171.0,104.28534834126778,58.46650468924418,0.10106861404644207,5.753866475816433,0.004421589784112646
172.0,105.03503861569382,58.581725488943505,0.10334977475597976,5.741147265381287,0.0044030059118420695
173.0,105.88018271345048,58.82929364623828,0.10591305437196195,5.727692222450619,0.004384991581820581
174.0,106.82055301927882,59.21376534962947,0.10877474805602848,5.713600496341076,0.004367573933636138
175.0,107.85408882909053,59.74012926023748,0.11195378209443589,5.698940304521647,0.004350781092801319
176.0,108.97666915649089,60.41373245521083,0.1154711008403884,5.683761217353709,0.004334641993828509
177.0,110.18175195115569,61.2403465489932,0.11935143788843201,5.668072817655172,0.004319186360220916
178.0,111.45985444893464,62.226112191948175,0.12362318087108316,5.651849022351903,0.0043044444463759554
179.0,112.79865546960119,63.37738392977747,0.12831813956766677,5.635048645931337,0.004290446621306329
180.0,114.18257809936405,64.70053928010157,0.13346953010985738,5.61763390924171,0.0042772228288175665
181.0,115.59309514183897,66.20149251224225,0.1391046685804184,5.59964009326549,0.004264801881293081
182.0,117.00916371088515,67.88494081146415,0.1452298903553778,5.581275068282764,0.004253210508857494
183.0,118.40805211151465,69.75348365924647,0.15181192877161398,5.56300582409693,0.004242472334769538
184.0,119.76622093638395,71.80687406749007,0.15876456112887613,5.545581706847484,0.0042326071863394085
185.0,121.05959964426152,74.04197141198112,0.16596085846211336,5.529887859555025,0.004223631313794877
186.0,122.26303863682698,76.45346529076838,0.17327133962103816,5.516684419959987,0.0042155587199385215
187.0,123.35078564614875,79.03456146439797,0.1805982580276726,5.506451032806035,0.004208402008117304
188.0,124.29664903989601,81.77704069693023,0.1878840071053386,5.499390401673346,0.004202172775264535
189.0,125.07604273773075,84.67087217514963,0.19510093072815576,5.495531359855577,0.004196881150360207
190.0,125.66693771599293,87.70375941747365,0.20223689061410427,5.494818080366429,0.004192535753549754
191.0,126.05173300512774,90.86085478246285,0.20928496329267257,5.497178295727617,0.00418914307413879
192.0,126.21822155436857,94.1248463433439,0.21624249946402496,5.502524943661378,0.004186707700641837
193.0,126.16026711064515,97.47634362945756,0.22311404273223273,5.510748469887407,0.004185232387996774
194.0,125.87794668395046,100.89441011101432,0.22991594335794335,5.521704834936927,0.004184718120345657
195.0,125.37803364167392,104.35727229498963,0.23668199351496125,5.535213822301839,0.004185163760211355
