Time,J,A,S,tau
0.0,100.0,10.0,0.7238664998249608,122.36192635181942
1.0,99.98329953566122,8.963137738605038,0.7237493302582804,123.36148922329963
2.0,99.9669572229851,8.03391280839906,0.7236343607784971,124.3613789125566
3.0,99.95091796945938,7.201381511068272,0.723521385926231,125.36127516937877
4.0,99.93516079448639,6.455428285477145,0.7234102747860295,126.36117730272167
5.0,99.91966565764021,5.787004665969862,0.7233009010561263,127.36108469364609
6.0,99.9044133775591,5.188016626262234,0.7231931427340224,128.36099678635549
7.0,99.88938555352158,4.651216959175802,0.7230868817948974,129.3609130801043
8.0,99.87456449482222,4.170120428700172,0.722982003891415,130.36083312225765
9.0,99.85993315670815,3.738924365702976,0.7228783980724653,131.36075650228744
10.0,99.8454750778963,3.352431489172775,0.7227759564967937,132.36068284631168
11.0,99.83117432327406,3.0059892639413004,0.7226745741623145,133.3606118123502
12.0,99.81701543132536,2.695433808605645,0.7225741486511302,134.36054308618813
13.0,99.80298336251946,2.4170345803701654,0.7224745798711956,135.36047637757758
14.0,99.78906345105702,2.1674509198984158,0.7223757698089008,136.3604114168786
15.0,99.77524135990772,1.9436923412716958,0.7222776222937644,137.36034795208485
16.0,99.76150303644003,1.743078911525747,0.7221800427611254,138.36028574605484
17.0,99.74783467012018,1.5632100344767195,0.7220829380219522,139.36022457400117
18.0,99.73422265231223,1.40193627913971,0.7219862160409387,140.3601642212063
19.0,99.72065353639906,1.2573310196997516,0.7218897857134606,141.36010448085108
20.0,99.7071139990571,1.1276679589897958,0.7217935566467761,142.36004515197754
21.0,99.69359080257884,1.0114011021379106,0.7216974389455585,143.35998603755687
22.0,99.68007075724424,0.9071444711538612,0.7216013429965635,144.3599269425961
23.0,99.66654068419018,0.8136558859341462,0.7215051792555625,145.35986767228755
24.0,99.6529873783334,0.7298227004833817,0.7214088580345636,146.35980803015875
25.0,99.63939757099213,0.6546473044160945,0.7213122892877829,147.35974781618984
26.0,99.62575789252719,0.5872353958159032,0.7212153823987437,148.35968682489604
27.0,99.61205483403529,0.5267858032498667,0.7211180459635681,149.359624843306
28.0,99.59827470824054,0.47258013232852325,0.7210201875718969,150.35956164882373
29.0,99.58440361003451,0.4239742709779468,0.7209217135885957,151.35949700697765
30.0,99.57042737499481,0.3803911147187079,0.7208225289275385,152.3594306689429
31.0,99.55633153636741,0.3413131807076657,0.7207225368210857,153.35936236883424
32.0,99.54210128136579,0.30627644481642596,0.7206216385907638,154.3592918207909
33.0,99.52772140422287,0.27486513460016876,0.7205197334059341,155.35921871567513
34.0,99.5131762566296,0.2467064669440531,0.7204167180353359,156.35914271737306
35.0,99.4984496971106,0.22146617153700818,0.7203124866009819,157.3590634587573
36.0,99.48352503566962,0.19884476018330063,0.7202069303160453,158.35898053703596
37.0,99.46838497424068,0.17857378405611812,0.7200999372118682,159.35889350844553
38.0,99.45301154552682,0.16041258031251676,0.7199913918691798,160.35880188240878
39.0,99.43738604520966,0.14414559889522485,0.7198811751295305,161.35870511474323
40.0,99.42148895763708,0.12957974798946362,0.7197691637911356,162.35860259980453
41.0,99.4052998789847,0.11654203114205183,0.7196552303114891,163.3584936617851
42.0,99.38879743122953,0.1048776351638359,0.7195392424868322,164.35837754455204
43.0,99.3719591661457,0.09444805679868745,0.7194210631104258,165.35825339976532
44.0,99.35476146517782,0.08512939187774717,0.719300549640863,166.3581202736497
45.0,99.33717942650621,0.076810976769453,0.7191775538445604,167.3579770915116
46.0,99.31918673697358,0.06939407708813651,0.7190519214108805,168.35782263948303
47.0,99.30075553702804,0.06279066212916817,0.7189234915811299,169.35765554408783
48.0,99.28185626757042,0.05692245401744015,0.7187920967503755,170.35747424830484
49.0,99.26245749406587,0.05172002441328292,0.7186575620364223,171.3572769831827
50.0,99.24252571779105,0.04712193034576943,0.7185197048642449,172.35706173578103
51.0,99.22202516229777,0.043074129776553324,0.7183783345284505,173.35682621179188
52.0,99.20091752090082,0.03952929591693726,0.7182332517041533,174.35656779036668
53.0,99.17916169751695,0.03644632173502866,0.7180842480256948,175.35628347500486
54.0,99.15671347581501,0.033789931141152585,0.7179311055416829,176.35596983108314
55.0,99.13352518642913,0.03153027765610481,0.7177735962825197,177.3556229190679
56.0,99.10954527720689,0.029642728668685166,0.7176114816833129,178.35523820887664
57.0,99.0847178789728,0.028107654427859615,0.7174445121441732,179.35481048843303
58.0,99.05898226198194,0.026910234420127955,0.7172724264739481,180.35433374935673
59.0,99.03227222241114,0.026040552920340816,0.7170949513630491,181.3538010544701
60.0,99.00451534464219,0.025493623601055223,0.7169118008157194,182.35320437614737
61.0,98.97563228388759,0.025269640633875223,0.7167226758108303,183.35253443178178
62.0,98.94553574410645,0.0253738510401986,0.7165272636687448,184.3517804543406
63.0,98.91412939501933,0.025817245710565873,0.7163252376177252,185.35092994106404
64.0,98.88130664976676,0.026616933341147217,0.7161162564335044,186.34996836519306
65.0,98.84694916946026,0.027796697689340247,0.7158999640362905,187.3488788217986
66.0,98.81092508081387,0.029387900477629954,0.7156759891289288,188.3476416013676
67.0,98.7730870641546,0.03143031883381253,0.7154439450894966,189.34623372230968
68.0,98.73326988213584,0.03397340995247473,0.7152034297647388,190.34462832875886
69.0,98.69128772995771,0.03707765864055238,0.7149540255987714,191.34279403216811
70.0,98.64693089748937,0.040816362852441175,0.714695299773248,192.34069408218303
71.0,98.59996202116743,0.04527757882773349,0.7144268046760932,193.33828542388065
72.0,98.55011158857609,0.05056665469716283,0.7141480785763776,194.3355175622398
73.0,98.49707268431445,0.05680912091998865,0.7138586466381666,195.33233122580052
74.0,98.44049480238225,0.06415415967480156,0.7135580223193904,196.32865678418418
75.0,98.3799765502565,0.0727787450650386,0.7132457092386298,197.32441237258803
76.0,98.31505707021071,0.08289250359538344,0.7129212036094312,198.31950167561277
77.0,98.24520593367582,0.09474353249449725,0.7125839973496553,199.31381130502825
78.0,98.16981135033234,0.10862505714473306,0.7122335819884696,200.30720772634348
79.0,98.08816612100469,0.12488361044087458,0.7118694535274007,201.29953358539845
80.0,97.99945128101135,0.14392843122397828,0.7114911184271092,202.2906034130074
81.0,97.90271686620845,0.16624252505901146,0.7110981009150172,203.28019855690494
82.0,97.79685938354365,0.19239562227129703,0.7106899518400123,204.26806122525048
83.0,97.68059548420926,0.22305930298149482,0.7102662593238052,205.25388750330407
84.0,97.55243128061274,0.25902454339098363,0.7098266614846189,206.2373191885474
85.0,97.41062668701208,0.3012220195334632,0.7093708615370997,207.21793427176678
86.0,97.25315414175984,0.350745462622175,0.708898645587992,208.19523588380156
87.0,97.07765104935358,0.4088783492281697,0.70840990345625,209.16863952035084
88.0,96.88136529692312,0.4771241613582995,0.7079046528390815,210.1374583592316
89.0,96.66109326457452,0.5572403626703122,0.7073830671146654,211.1008864991356
90.0,96.41310988428586,0.6512760829681159,0.7068455070072499,212.05797998225054
91.0,96.13309051592985,0.7616132720628637,0.7062925562352068,213.00763551743808
92.0,95.81602476590685,0.8910109604114769,0.7057250610901515,213.94856691356733
93.0,95.45612297909813,1.042651401431234,0.7051441736077205,214.87927939233904
94.0,95.17647180788984,1.2692059889200127,0.7045513978599697,215.7980419955721
95.0,95.09795494231669,1.6070704756416399,0.7039486373352485,216.70285928150037
96.0,95.08301089118378,1.9998022587464046,0.7033382437579153,217.59144187604434
97.0,95.15299818812585,2.456012648437718,0.7027230624096296,218.4611788522885
98.0,95.33384110831591,2.9853972405552094,0.7021064723100332,219.3091126644621
99.0,95.65633313854143,3.5987792091156794,0.701492416897062,220.13191907372288
100.0,96.15608650553924,4.308119887194222,0.7008854193539104,220.92589540432257
101.0,96.87291674366594,5.126487641973667,0.7002905779868283,221.68695960670166
102.0,97.84937046805943,6.067972072672585,0.6997135348727849,222.41066400983252
103.0,99.12806816960281,7.147532682122808,0.6991604118362351,223.0922271542555
104.0,100.74755593535717,8.38077335340096,0.6986377090378506,223.726586431895
105.0,102.73642425231753,9.7836388351872,0.6981521633388765,224.30847316230415
106.0,105.10572111187192,11.372033416065122,0.6977105659266245,224.83251062071227
107.0,107.84008178244012,13.161373067698321,0.6973195437138422,225.29333256543063
108.0,110.88860188881178,15.166091127154282,0.6969853134691856,225.68571736374307
109.0,114.15691666697317,17.39911507955172,0.6967134173280967,226.00473257137784
110.0,117.50331542113429,19.871375337112735,0.6965084685098571,226.2458749606194
111.0,120.74035946787981,22.591339374883233,0.6963739042130509,226.40520560485186
112.0,123.64500397652345,25.56466569248561,0.6963117928570822,226.47945598360653
113.0,125.97673264541434,28.793952007763213,0.6963226833884844,226.4661096316344
114.0,127.50268899847835,32.27863295080862,0.6964055245913512,226.36344491379486
115.0,128.02533688212418,36.015023049434376,0.6965576546420682,226.1705384018916
116.0,127.40686998991988,39.99649550052041,0.6967748571931213,225.88723094224824
117.0,125.58496920912017,44.213766832487536,0.6970514700143641,225.51406390352474
118.0,122.57572369802385,48.65527280398417,0.6973805370480871,225.05219080092266
119.0,118.46177958132361,53.307617771201144,0.6977540122433274,224.5032628974288
120.0,113.3727747737875,58.15599451617389,0.6981629383216227,223.86932514065379
121.0,107.45981863940384,63.184637414644236,0.6985976555589473,223.1526994144381
122.0,100.87269257204284,68.37721851461605,0.6990479831887296,222.35588179257297
123.0,93.74349776886892,73.71720278973272,0.699503387892421,221.48144932868237
124.0,86.17830411965544,79.18814277163435,0.6999531244120804,220.53198200764513
125.0,78.25635912801967,84.77391101488708,0.7003863529494287,219.51000022330143
126.0,70.03366361326117,90.45888017075863,0.7007922302820617,218.4179162187103
127.0,61.548902897055136,96.22804252714167,0.7011599784312298,217.25800070790086
128.0,52.82908901465143,102.06708832297456,0.7014789336380785,216.03236043668855
129.0,43.89412876339994,107.9624463793812,0.7017385797514595,214.742925595814
130.0,34.75997389902841,113.90129253601577,0.7019285682354215,213.39144605257493
131.0,25.440534932030733,119.8715343886951,0.7020387292664438,211.9794933329437
132.0,15.948747303287844,125.86178298967272,0.7020590769311498,210.50846674103389
133.0,6.297131050097192,131.86130584648828,0.7019798089397455,208.9796040911617
134.0,0.0,137.8599816431271,0.7017913070881497,207.39399231635295
135.0,0.0,143.84824606450803,0.70148413552933,205.7525808769426
136.0,0.0,149.81703826416106,0.7010490407283121,204.05619507819378
137.0,0.0,155.75774886545983,0.7004769539077677,202.30554918462408
138.0,0.0,161.6621672038904,0.699758994664135,200.5012599602286
139.0,0.0,167.52243411555796,0.6988864786891673,198.6438589822907
140.0,0.0,173.33099921217655,0.6978509288141661,196.73380425382703
141.0,0.0,179.08057872258658,0.6966440880880042,194.77149149803358
142.0,0.0,184.76412419941656,0.6952579387773395,192.75726375970467
143.0,0.0,190.37478751515587,0.6936847208813773,190.69142119654668
144.0,0.0,195.9058978461693,0.6919169588990836,188.57422907733184
145.0,0.0,201.3509364894477,0.6899474842779422,186.40592586001304
146.0,0.0,206.70351912015593,0.6877694657355433,184.18672986094737
147.0,0.0,211.9573852735113,0.6853764405439804,181.91684543293928
148.0,0.0,217.106383927294,0.682762353354895,179.59646874381087
149.0,0.0,222.14446559879147,0.6799215835267234,177.2257929376472
150.0,0.0,227.0656787260511,0.6768489807377095,174.80501251247867
151.0,0.0,231.86417253667932,0.673539897794495,172.33432730793191
152.0,0.0,236.5341971971001,0.6699902500118908,169.81394668024066
153.0,0.0,241.07010471725152,0.6661965269622381,167.2440923297521
154.0,0.0,245.46635739550976,0.6621558225934323,164.62500094312517
155.0,0.0,249.71754162331126,0.6578658934314452,161.95692757288566
156.0,0.0,253.81837991069267,0.6533252057612094,159.24014850273696
157.0,0.0,255.9448764671177,0.6660566231600216,63.45408806328362
158.0,0.0,266.7572499552854,0.668140799069559,50.54079518429745
159.0,0.0,277.41045437570574,0.6634530927643417,46.677188273457475
160.0,0.0,279.6576896109995,0.6573106555632167,44.278404764860625
161.0,0.0,275.1051099021586,0.650497616896912,42.50628109025386
162.0,0.0,267.0289749626726,0.6433102041262418,41.08190614457774
163.0,0.0,257.67913482110777,0.6358984505279047,39.8784420708786
164.0,0.0,248.1064469604194,0.6283517104390555,38.82793288570056
165.0,0.0,238.68565406795872,0.6207291238961555,37.890032519013616
166.0,0.0,229.52202215788193,0.6130728687539275,37.039026960810844
167.0,0.0,220.63730915095076,0.6054147541533833,36.257640118307265
168.0,0.0,212.0321791837272,0.5977798266089898,35.533760818958385
169.0,0.0,203.70271483219847,0.590188467015534,34.85861264789935
170.0,0.0,195.64407647150378,0.5826577052930985,34.22564652730813
171.0,0.0,187.85117900773562,0.5752020699221357,33.6298481735019
172.0,0.0,180.3188023721554,0.5678341622200278,33.06728561696342
173.0,0.0,173.0416158472204,0.5605650716865448,32.53480364160691
174.0,0.0,166.01425241998376,0.553404643091729,32.029841419565
175.0,0.0,159.23121612764265,0.5463616371929952,31.5502744819815
176.0,0.0,152.68692804194924,0.5394439897601687,31.09429034180032
177.0,0.0,146.3758845259435,0.5326588416672866,30.66036487425365
178.0,0.0,140.2923367944521,0.5260126184145667,30.247158197183
179.0,0.0,134.43075792429602,0.5195112296900417,29.853503411335883
180.0,0.0,128.78532984344847,0.5131598973905916,29.478368416996364
181.0,0.0,123.35053385516531,0.5069634981477841,29.120826178259883
182.0,0.0,118.12053479345495,0.5009262762093714,28.780047830021367
183.0,0.0,113.08980878029293,0.4950521974479005,28.455276069432287
184.0,0.0,108.25257534461116,0.48934467562902234,28.14582700087634
185.0,0.0,103.60334396124493,0.4838068850803207,27.851067450423184
186.0,0.0,99.13642614879603,0.47844151302102245,27.57042153596254
187.0,0.0,94.84639726584658,0.473251036404283,27.30335074513442
188.0,0.0,90.72769392678488,0.4682375018953381,27.049362817283964
189.0,0.0,86.77498672062299,0.463402769518684,26.807993960983797
190.0,0.0,82.98286613418341,0.45874832026509005,26.57881874238234
191.0,0.0,79.34612403349477,0.4542754688859217,26.361434052681957
192.0,0.0,75.85952918600435,0.4499851979961764,26.155469259635396
193.0,0.0,72.51801743142897,0.4458783424393273,25.96057168753721
194.0,0.0,69.31655591124918,0.4419554478734143,25.776416585735138
195.0,0.0,66.25027086347201,0.4382169269320717,25.60269440181297
196.0,0.0,63.3143286983699,0.4346629545960046,25.439118399716037
197.0,0.0,60.50396975781143,0.4312935639265689,25.28541663869822
198.0,0.0,57.81464666959152,0.4281086120973956,25.141335410407564
199.0,0.0,55.24179981632921,0.42510781052555413,25.006635580083035
200.0,0.0,52.78107534861102,0.4222907407128351,24.881091846281485
201.0,0.0,50.42818000413845,0.4196568409844349,24.7644937691478
202.0,0.0,48.17892002559907,0.4172054519953015,24.656641756310908
203.0,0.0,46.029282301033405,0.41493578687901345,24.55734976834263
204.0,0.0,43.97527275038595,0.41284697386209174,24.46644200669595
205.0,0.0,42.01310440491862,0.4109380415095929,24.38375342835307
206.0,0.0,40.13903681614659,0.40920793350250967,24.30912969710862
207.0,0.0,38.34946364482538,0.40765552351138035,24.24242480737208
208.0,0.0,36.640919453161594,0.40627959862026186,24.18350311100005
209.0,0.0,35.00998863612102,0.40507889523368,24.132236488142322
210.0,0.0,33.45344929536505,0.404052070489855,24.088505498188265
211.0,0.0,31.96811916004364,0.40319773457545144,24.052198368681676
212.0,0.0,30.550941878150045,0.40251444117825724,24.02321045890749
213.0,0.0,29.19899422631124,0.40200068403787736,24.001444441136496
214.0,0.0,27.909428602808845,0.40165491298610134,23.98680956383902
215.0,0.0,26.679508945376703,0.40147552726405616,23.979221455616653
216.0,0.0,25.506601711086628,0.4014608781174451,23.97860179976688
217.0,0.0,24.38818122108997,0.40160926679494136,23.98487815183565
218.0,0.0,23.321806175684316,0.40191895089236457,23.997983605763984
219.0,0.0,22.30513566064134,0.4023881392776442,24.017856561261418
220.0,0.0,21.335922107841093,0.4030149928161096,24.04444048843157
221.0,0.0,20.412009546715872,0.40379762343981707,24.077683706709212
222.0,0.0,19.531332916548457,0.40473409265252874,24.117539178548068
223.0,0.0,18.691915987187,0.4058224105926789,24.163964282137144
224.0,0.0,17.89187117283387,0.407060534128052,24.216920664061057
225.0,0.0,17.12940173475923,0.40844636462505496,24.27637402259637
226.0,0.0,16.40280288798182,0.40997774610876836,24.34229394166298
227.0,0.0,15.710464923425471,0.4116524631202794,24.41465372360868
228.0,0.0,15.050877726325204,0.413468238512239,24.49343022943062
229.0,0.0,14.422636786293793,0.4154227312210581,24.578603726107072
230.0,0.0,13.82445063505007,0.41751353406022224,24.67015774086676
231.0,0.0,13.255149656643674,0.41973817155730797,24.76807892254062
232.0,0.0,12.713696154339074,0.42209409782692264,24.872356908403876
233.0,0.0,12.19919497030497,0.4245786946448235,24.982984197853902
234.0,0.0,11.710904469446545,0.4271892696384469,25.09995603282726
235.0,0.0,11.248248269786892,0.4299230543566405,25.22327028798534
236.0,1.5586613700561383,10.810823087802508,0.43277720357496213,25.352927348383428
237.0,5.133631431710212,10.398407053777015,0.4357487937292886,25.488930040726878
238.0,8.857779668653006,10.010968297692047,0.4388348216578768,25.63128351574515
239.0,12.724563853885813,9.648668093026078,0.4420322038525003,25.77999517834283
240.0,16.725333281087533,9.311860126385184,0.4453377765202716,25.935074600439457
241.0,20.84942528219903,9.001087981443684,0.4487482949665524,26.09653347021301
242.0,25.084373391864975,8.717078660898414,0.45226043382724723,26.264385528315987
243.0,29.41615265479248,8.460731337216998,0.45587078763774086,26.438646521778335
244.0,33.829468308829895,8.233102802510704,0.45957587117044535,26.619334181630382
245.0,38.30811881573551,8.035390111029967,0.4633721203451924,26.806468203156857
246.0,42.83536235889008,7.868909052659181,0.46725589343777935,27.000070244070898
247.0,47.39427281409086,7.735069846142858,0.4712234724415421,27.20016394060504
248.0,51.96805026811351,7.6353501045503895,0.4752710643490577,27.406774949269813
249.0,56.54031870428797,7.571268676538843,0.4793948027369505,27.61993101012861
250.0,61.095272809451316,7.544354070519781,0.4835907493521392,27.83966203317546
251.0,65.61781640340762,7.556117608846463,0.48785489596208104,28.066000217225923
252.0,70.09351433157259,7.608020649227261,0.49218316563696024,28.298980200581045
253.0,74.50860184009062,7.701449821344241,0.49657141455060555,28.53863926094745
254.0,78.84980003309111,7.837684858487575,0.5010154328086857,28.785017540695932
255.0,83.10427497834205,8.017875213585537,0.5055109454125188,29.038158366123195
256.0,87.25949261992132,8.24301365722284,0.5100536128981097,29.298108555570902
257.0,91.30321592538917,8.513913397542442,0.5146390308204196,29.564918864379713
258.0,95.22359642214327,8.831193564657575,0.5192627304547953,29.838644394886014
259.0,99.00931911309975,9.19525544833741,0.5239201757197438,30.119345275689682
260.0,102.64982828037084,9.606262970699586,0.5286067597856021,30.40708740820995
261.0,106.13554196094725,10.064136451088249,0.5333178035871922,30.7019429980341
262.0,109.45820957884331,10.568545194327898,0.5380485520541856,31.003991367379523
263.0,112.61156144780315,11.118884385254711,0.5427941624884792,31.31332082070444
264.0,115.5909158005804,11.714269207580251,0.5475496990006591,31.630028830525486
265.0,118.39429317418768,12.353564217344651,0.5523101308309589,31.95422386103986
266.0,121.02170136304281,13.035317392485398,0.5570703032525015,32.28602720248964
