Time,J,A,S,tau,r
0.0,1.0,1.0,0.9639140432183335,10.0,0.0
1.0,4652.504223154355,58.55109313094697,0.9636008684855065,10.302974777025877,0.5867136374474008
2.0,17868.53424089029,115.83041666943994,0.9632369273358957,10.581874191575864,0.5967402010207763
3.0,37775.01920441742,172.7463622650898,0.9628170784090592,10.836238120343278,0.6068794011329018
4.0,61608.25258614368,229.2011164342942,0.9623357301869547,11.065654839301821,0.6171191795970845
5.0,86563.90100195982,285.0902853503153,0.9617867888699687,11.269772050407365,0.6274454538292074
6.0,110549.70676454024,340.3025123587578,0.9611636174240791,11.448309143778603,0.6378419363787654
7.0,132500.6945986093,394.71940016065815,0.9604589913855767,11.601067101747471,0.6482903846537624
8.0,152225.37560551884,448.21564639995796,0.959665077293816,11.727936789593036,0.6587708339538163
9.0,170021.6980070185,500.659389743771,0.9587734012797506,11.828906282411946,0.6692617574220189
10.0,186331.59933953377,551.913135336862,0.9577748446838201,11.904061698353585,0.6797406794267239
11.0,201550.5731032631,601.8357239771477,0.9566597191918884,11.953577155681305,0.6901852849188811
12.0,215977.71865173292,648.4240139942398,0.9554599306454323,11.858668992372243,0.6990214755859155
13.0,217990.5852435462,9512.474702818095,0.9544791411040477,11.525412811865444,0.8288495424432158
14.0,202074.9215286689,35534.34497143041,0.9536269546595458,11.266243998609445,1.0216823244206348
15.0,191387.16184115197,56576.73597229769,0.9523301264668276,10.693691697951788,1.1365496665471457
16.0,169668.65650217808,88019.42793090179,0.9514446772189579,10.473029444149343,1.3992311069706582
17.0,152101.87985759482,113700.28792125244,0.950381509742737,10.246259648029556,1.6462029068248847
18.0,145032.5213641453,125940.35082796936,0.9487857099486188,9.778449448175039,1.8202974063838218
19.0,129376.57735702599,142498.7842430661,0.947467920870722,9.572044048327065,2.083093211659172
20.0,119256.1378153806,148838.12278126768,0.9465035838380192,9.40643120952168,2.4885184309046737
21.0,100386.77129130902,159804.4144232453,0.9450504913166236,9.215785964821087,2.78746857996924
22.0,88093.75735761209,161367.4343935468,0.9430893367785592,8.881373108214596,3.0383785229243325
23.0,70557.8110596189,166765.63707463996,0.9411918871768284,8.680268142094748,3.320203539575023
24.0,56220.29820426663,168169.6264512151,0.9397667790843075,8.542177510476364,3.736705592828399
25.0,41087.42672422899,169770.97319598918,0.9384936890253085,8.419061085612528,4.198170052346487
26.0,26858.144756227175,169972.1131175441,0.9368633858656387,8.286864654057277,4.608988734219753
27.0,14949.376391218455,167579.87232637726,0.9346841247260079,8.11810325637755,4.933028729285139
28.0,1966.8394112717879,166320.31545755625,0.9322138661927205,7.899102516735773,5.246728608008506
29.0,17.898433459099085,154437.75835085666,0.9298051882203859,7.7415124700729745,5.574120825158737
30.0,-588.8134530380413,141883.92031584494,0.9277406348286364,7.626228594012108,5.979711972404861
31.0,-689.2000709137718,129587.05889373811,0.9260003034440247,7.529876146110487,6.412386819254558
32.0,-692.2835176013052,117973.16930605409,0.9243378145741673,7.4398425609853645,6.822043118679219
33.0,-684.0670750630487,107114.04007041838,0.9224520748698259,7.347093036513893,7.222532479481609
34.0,-675.0305282119235,96998.78425610397,0.9201444267668379,7.242590108643976,7.589147831554139
35.0,-665.7186284819347,87604.00018450728,0.9174069637811592,7.116575272226776,7.890892138518854
36.0,-656.1445663428993,78903.94105488432,0.9144051002125629,6.969704520606728,8.167070079684192
37.0,-646.3106801308126,70871.24726814571,0.911363564141237,6.835902734620516,8.437379372299542
38.0,-636.220358801671,63477.27961330969,0.9084999904836455,6.72995649103333,8.735483573717701
39.0,-625.8780500928877,56692.3450397825,0.9059455010276923,6.643891345702968,9.058712426279003
40.0,-615.2890379057606,50485.863776361395,0.9036946034339289,6.5694925659161525,9.345810155577812
41.0,-604.4593872124719,44826.608073996555,0.9016248125269452,6.501056390459965,9.595936043242947
42.0,-593.3962645105738,39683.02951161897,0.899550373473026,6.434501402943856,9.826346263385686
43.0,-582.1079541238681,35023.49995656291,0.8972834445501913,6.366400560549594,10.050718383599879
44.0,-570.6037294084161,30816.50785454841,0.8946871613739397,6.293318471543741,10.279602297443994
45.0,-558.8940448684112,27030.925134696292,0.8917105484202323,6.2115984620751155,10.503470593761094
46.0,-546.9903136711154,23636.16282405463,0.8883956510840164,6.118401403360471,10.694406856270932
47.0,-534.9046791911367,20602.355546753883,0.8848545318073135,6.015660475182741,10.857823640731844
48.0,-522.6505755505989,17900.5882138653,0.8812297325187474,5.913896425621924,11.013680429953551
49.0,-510.24218855741094,15502.981682178823,0.877665805342774,5.823838688371322,11.180790527207149
50.0,-497.69428583898133,13382.891923942536,0.8742875617076873,5.747641143163042,11.362751744004532
51.0,-484.8988872235408,11514.935916057857,0.8711749972330235,5.682651529514405,11.526752506389252
52.0,-467.3600895139201,9875.082341709369,0.868349147254685,5.6256179774485835,11.661703853816123
53.0,-388.3671492539643,8440.720481284125,0.8657756955799306,5.573941599495419,11.779007998191807
54.0,59.136615950586446,7190.694404350232,0.8633780389468956,5.5256959612323335,11.886806070700938
55.0,1707.7534467961289,6105.328140377134,0.8610560398863438,5.47942817706315,11.988461327130228
56.0,5797.64375308014,5166.525058927396,0.8587039006769008,5.433963977206301,12.085397514919306
57.0,13317.656776348518,4361.367605423468,0.8562265470245881,5.388277974372414,12.17855790680298
58.0,24371.585907135926,3721.555669703306,0.8535515119787228,5.34140805981032,12.269300638237556
59.0,37897.534651827875,3479.7328966052814,0.8506361058604208,5.292413172944535,12.36015892391465
60.0,51413.69822221968,4256.296002136282,0.847470797811826,5.2403971610046955,12.454603132025742
61.0,61224.02515693588,6886.153893207465,0.8440765715851459,5.184661703332744,12.553531985141989
62.0,64486.84686724622,11846.227295390536,0.8404983698309945,5.125041745111039,12.651315031072759
63.0,60161.952471979646,18850.258482706173,0.8367963156815049,5.062411060067583,12.741395680246857
64.0,49862.586000842464,26909.89794084913,0.8330359970318271,4.998957379364167,12.82371941000226
65.0,37042.29024402295,34459.133069618416,0.8292820035199124,4.937602725347931,12.902008840170735
66.0,25214.144059750124,39551.476463067236,0.8255935137071689,4.880750195128857,12.977954050956805
67.0,16942.17233910741,41101.131390090166,0.8220207191615905,4.829538282306563,13.047506958939909
68.0,14041.156537329429,39044.1928705247,0.8185999822162813,4.784072844602753,13.104315767536622
69.0,16739.060013614064,34686.86057473405,0.8153450854863298,4.744102336106402,13.147032492753462
70.0,23768.011577565772,29836.401621653586,0.8122286992360195,4.7097169060841075,13.178937450230693
71.0,33572.330917954154,25509.710903766445,0.8091423443991982,4.6821387135623525,13.203355825208194
72.0,44440.786494177875,22258.33533870294,0.8058317757426956,4.664721785345189,13.222031794885796
73.0,54520.58392924866,20641.373322572454,0.8018787089953578,4.663566889746494,13.23554659895518
74.0,62341.1159620792,21074.530107184197,0.7969095113993486,4.686276726740406,13.243756275198717
75.0,67335.51743681935,23466.90078661054,0.7910223658898627,4.739662076853855,13.244944881550115
76.0,69933.21416485516,27214.22791166889,0.7848865269849329,4.830229004587492,13.227794116020853
77.0,70972.14062183739,31564.970331240063,0.7790944202280119,4.961305505143345,13.174371819730075
78.0,71184.98348002975,35940.612555167056,0.7734280107808189,5.1086197250172996,13.109036944592908
79.0,71027.84236136496,39894.595567706325,0.7672088461113398,5.230241722917702,13.068591694525848
80.0,70961.98750567804,43104.818250829936,0.7602550896781372,5.318922095957961,13.052007569497778
81.0,71269.87078268545,45211.49682714875,0.7529677398723751,5.384698898068195,13.035023676005792
82.0,73981.70732598424,44265.40312564565,0.7450436484091175,5.445912559870608,13.013774726706895
83.0,81244.22532580944,38153.45289334108,0.7291099429377491,5.608292763856232,12.98815272677462
84.0,81706.79010215474,38356.25211183046,0.7222672322152645,5.66381040815884,12.958626195964266
85.0,81203.70025631634,39146.156944029855,0.7163987182072016,5.715993397934799,12.925498168295503
86.0,80525.65653009652,39777.811927206116,0.7112925780928225,5.766022372486808,12.888476668115123
87.0,79793.70824473906,40184.15789217395,0.706770808499889,5.8143590123119955,12.846601636241092
88.0,79011.58143478041,40412.909203275805,0.7026975899983513,5.860958523464345,12.799417076557397
89.0,78202.70573268653,40498.0435736957,0.6989770286082881,5.905373667645389,12.748074464855852
90.0,77456.19522996116,40473.689773603095,0.6955440229328421,5.947006151039425,12.694522113275823
91.0,76901.37927144008,40392.88665336543,0.6923575124316721,5.985272091587974,12.6402639287018
92.0,75410.92687263069,40697.81340455074,0.6893930707774012,6.019781992786184,12.58610901734528
93.0,73874.32095872296,40929.13228591855,0.6866371429925927,6.050442355224939,12.532478273998985
94.0,72600.06144472002,41022.28106255147,0.6840845859946609,6.077339095986554,12.479619028460046
95.0,71550.448158579,40993.07918404997,0.681735289580068,6.100700746877396,12.427625518398246
96.0,70568.30198204416,40914.31798866162,0.6795920756431006,6.12081511138966,12.376456637911284
97.0,69548.2676475708,40876.50179076583,0.6776605861557463,6.1379487935700965,12.325991324441167
98.0,69263.36837151286,40143.787399750705,0.6759462766178677,6.152389145085626,12.276078665630248
99.0,69095.86876182324,39417.78894128109,0.6744554133783914,6.164382623541927,12.226608798704575
100.0,68845.59533534388,38897.79684892544,0.6731932650711685,6.174137244306871,12.17749596538687
101.0,68544.08564584074,38531.697110181645,0.6721660108783122,6.181785858265758,12.12873556343921
102.0,68277.30170895882,38223.43413643658,0.6713777512235103,6.18746868263473,12.080343160340522
103.0,68071.94884211021,37948.81243477016,0.6708320621068012,6.1912773984822955,12.032375476766259
104.0,67931.20460776388,37709.762770856345,0.6705313131736277,6.19327869549115,11.984906104021565
105.0,67874.7599086947,37491.94653990307,0.6704771019565038,6.193501597626661,11.938017507567507
106.0,67904.0873976248,37300.890642948674,0.670669867702364,6.191957293458367,11.891815424425461
107.0,68014.98938381804,37145.52402529509,0.6711089696504969,6.188630987081177,11.846408921244535
108.0,68204.79103366008,37032.429565780505,0.6717924372061805,6.183470346114703,11.80191190737632
109.0,68474.11809711775,36963.745610209386,0.672717618352342,6.176407707268553,11.758462146440705
110.0,68823.60994949554,36940.9524396866,0.673880307425795,6.167345384627205,11.716203597205244
111.0,69253.78359691214,36965.013470327554,0.6752763177333934,6.1561307726376295,11.67531108594279
112.0,69764.55369698242,37035.141401609064,0.6769007714836528,6.142601479367079,11.635986122538396
113.0,70350.6056162002,37153.548106793845,0.6787468532250542,6.126542181108909,11.598480134280543
114.0,71001.29204281552,37319.65558566993,0.6808091313538764,6.1077149236878485,11.56304936307801
115.0,71688.92174289528,37533.001685944815,0.6830823563570871,6.0858664019593265,11.529944426845924
116.0,72347.1424175142,37788.08846547866,0.685563528921866,6.060704266432076,11.49938681651336
117.0,72963.7072830126,38066.27259517821,0.6882512312498014,6.03199885113562,11.471497898510547
118.0,73677.63541065031,38343.664452351004,0.6911491068082318,5.999609003705597,11.446274974207759
119.0,75367.29169996222,38329.81140282592,0.6942671133692617,5.96357000694817,11.423580146111389
120.0,76964.39799621045,38394.058753355544,0.6976251432598969,5.924126834619997,11.403054469282656
121.0,78343.91175905445,38549.37938353159,0.7012576081346559,5.881736922229423,11.383985885483549
122.0,79644.0269383482,38767.78764320849,0.7052197781373136,5.83696846172115,11.365371412012198
123.0,80882.80860107315,39034.348916257564,0.7095953544094812,5.790315325051836,11.346594917872233
124.0,81893.31709423265,39431.64299459658,0.7145061586626414,5.7419910987015435,11.328093423297911
125.0,81928.19563481864,40472.961444067456,0.720119669790053,5.691784551657028,11.310929825304532
126.0,81413.19631100677,41612.58215335228,0.7266502715132417,5.638902863110205,11.295955407538662
127.0,70679.17945685567,52393.32529647327,0.749351355001553,5.399963066424038,11.283643098751957
128.0,67588.65762957804,54730.40009944433,0.7569321353739161,5.3396348897306956,11.274167210887043
129.0,65424.12608956966,55226.63981691188,0.7642195864964164,5.26254528602697,11.268088667103605
130.0,62428.07694097824,55461.43302251334,0.7708860788660548,5.157100807744964,11.272210529026033
131.0,58125.99648773177,55356.42241752326,0.776833491437653,5.020522357306715,11.300160254070573
132.0,52100.83649621957,54843.73471620484,0.7826267782809125,4.881972009494806,11.334177849108192
133.0,44836.227212981576,53974.35862349501,0.7887689161931168,4.777364336455394,11.354039441764986
134.0,37274.53983145081,52733.84166326124,0.794941159069133,4.711304054425799,11.364587562577912
135.0,29765.631029540582,51104.22422298152,0.8003836603131751,4.677875988355934,11.375465633494416
136.0,23016.760717541205,48764.75314288084,0.8047312626772556,4.670768356361924,11.388301852972102
137.0,17733.872210723413,45441.45923361497,0.8082246035528349,4.6826022681309745,11.4031196498104
138.0,13841.411932144678,41484.69207886155,0.8113230655299714,4.706483587088217,11.419671552850238
139.0,10799.69491385814,37486.763903129024,0.8143635459286047,4.738012538044792,11.437400268203966
140.0,8514.521039226462,33545.28599009418,0.8175096336905396,4.775218627122401,11.45516359046015
141.0,6837.895911106955,29775.484585303824,0.8208156105544405,4.817585271947873,11.471335072588445
142.0,5578.794305981219,26303.496711884156,0.8242805988799832,4.865186286218815,11.485110950955335
143.0,4599.061031222865,23190.304070552058,0.8278753651686083,4.918003454898768,11.497998352925881
144.0,3836.9392600300243,20425.16404709344,0.8315538120986188,4.975338773434013,11.512322956113518
145.0,3238.6205613935826,17990.016682550275,0.8352595186999169,5.035437435039587,11.528658591643493
146.0,2752.8896369094277,15858.575528250178,0.8389294802140814,5.095805777088255,11.546133106913503
147.0,2338.146153294993,13997.716654238275,0.842497602186553,5.1541554312774815,11.56460059487457
148.0,1968.1439852213716,12375.770826561486,0.8458994476408346,5.20918556168453,11.586003538546747
149.0,1626.9843284014787,10967.36522777107,0.8490797557846386,5.260624749770474,11.612188575150206
150.0,1308.3988603930923,9745.975184105511,0.8520009942319019,5.308870295555203,11.64262884622409
151.0,1018.8658257979631,8677.894886997972,0.8546516828970805,5.3546129585519395,11.675618200032472
152.0,771.0568135644305,7728.960227519154,0.8570509770447485,5.398640701184911,11.709918021890195
153.0,575.3744779039897,6872.0895499265225,0.8592490178308978,5.441755860436215,11.744888890011634
154.0,471.3385150554951,6053.462757730804,0.8613239486379658,5.484779952151139,11.780222748041883
155.0,412.66413640681617,5305.851349265972,0.8633743132311497,5.528580535030087,11.815670046373592
156.0,311.5973442520576,4704.580543917937,0.8655077947742793,5.574149605741556,11.850970005497247
157.0,223.34245764619152,4182.675871027037,0.8678259851955912,5.622695282871644,11.885603300175568
158.0,160.99487827028014,3715.803007055132,0.8704091739806473,5.675780285095406,11.918139881261261
159.0,117.81773071562179,3300.419135996693,0.8732984739231067,5.735459304284503,11.945312306011063
160.0,89.95270308097825,2932.8766004246218,0.8764834972477732,5.804289093035839,11.965201725901409
161.0,90.2435374055699,2609.008176507997,0.879897766470246,5.884633829689052,11.985322669892328
162.0,203.91175729860686,2324.4009971011933,0.8834272692474168,5.976162762084382,12.012022099926396
163.0,713.6074469237969,2074.6769070845776,0.8869308498742968,6.072407958397385,12.04131794141711
164.0,2227.9481566004324,1855.6896175912636,0.8902606166113839,6.163667062166039,12.067316373717533
165.0,5645.810402355612,1663.6157684028678,0.8932826787455824,6.245101710015497,12.088118965398337
166.0,11876.058920524722,1495.1974256338465,0.8959094535770862,6.317405739896293,12.110899242659558
167.0,21454.126005550603,1350.4621844475287,0.8981306279460963,6.383296746641733,12.139269282045278
168.0,34204.260400548716,1252.9060009019263,0.9000238490081134,6.445628242899634,12.17068118899114
169.0,48797.99596788929,1323.6540524080435,0.9017418919917585,6.507057304582925,12.202721366038496
170.0,62289.25627704092,1928.6112328534828,0.903478486301187,6.570276305586913,12.233608247515567
171.0,70673.73053704883,3748.041589549088,0.9054215240187152,6.638460886090009,12.260508939751896
172.0,71519.80812452082,7621.118029874946,0.9077001356839641,6.715899383058444,12.279538628694109
173.0,65596.68046680675,14190.823894431951,0.9103382650124063,6.808512767688513,12.29700721402103
174.0,56160.21857984297,22408.601279831368,0.913233694130263,6.9221972931112585,12.325453642755342
175.0,51863.47591869789,24804.149033307986,0.9161862159328922,7.052441209444508,12.358690982122685
176.0,41844.946304029385,32275.61437922714,0.9189612571356489,7.17609053289829,12.390020432045908
177.0,27595.128471604225,43396.55919432432,0.9213455561427167,7.280954471125893,12.411864090947383
178.0,15397.963406679239,52166.289613505665,0.9232328168891201,7.3711608301134595,12.429357813140811
179.0,8930.533219993398,55798.4400668357,0.9246931219326161,7.453783308581279,12.450856860572356
180.0,9007.298659347252,54771.90380415206,0.9259602832858587,7.535261347580978,12.473052203229827
181.0,14244.673490366276,51805.49652945082,0.9273448423464896,7.62225330192711,12.490030515842427
182.0,23501.336256834584,48627.515821926885,0.9291015660906368,7.723788012868457,12.501242458427154
183.0,35416.74080770312,46109.03960752244,0.9312891326941805,7.853813949111619,12.523243141068091
184.0,49926.10978260074,43245.041308562526,0.9336980920663535,8.024397032071375,12.551955541566695
185.0,64857.49485693382,41046.71704141711,0.9359613678905822,8.1927788781536,12.57850878949575
186.0,79758.24088960087,39145.447077371624,0.9377153124416717,8.32624416499764,12.59239111609629
187.0,93848.60706590336,37728.963092469225,0.9388478987355864,8.439502044883573,12.595215575993285
188.0,106162.1222781446,37479.41552485699,0.9396599120464366,8.548834944530148,12.596449640247188
189.0,115442.07179190734,39567.75194060116,0.9406917056710639,8.670805039540152,12.592843353456129
190.0,120810.76110339756,44935.729835411395,0.9423080905058068,8.831792379420332,12.60110118553101
191.0,132158.99977424848,43428.10390886951,0.9442812861697454,9.07173024420498,12.615862112842242
192.0,133616.92016567226,50729.90981786754,0.9459593530932964,9.279052699228448,12.624781964095904
193.0,131428.49533574702,61089.9171877962,0.9468283902158077,9.433647565012192,12.612124181687388
194.0,127422.82114877639,72588.4740110627,0.9472549060759979,9.578127157380361,12.590545822142019
195.0,122572.88481615274,84287.5648555524,0.9481634156057885,9.752454227017974,12.575887638591675
196.0,127024.19372901288,86047.46678084428,0.9497643885576569,10.04642806718019,12.5758581958036
197.0,127267.3620044765,91236.53458200181,0.9511183479633613,10.311541767325735,12.569830647618174
198.0,122173.82404156642,101372.25061592914,0.9515067716092613,10.494961163212178,12.538432734799274
199.0,117510.47849185661,110730.69678966659,0.9518601486317136,10.683714414844731,12.504638850497278
200.0,120037.55934278875,112633.36200228822,0.9531183590141868,11.00611059047636,12.49140922174275
201.0,122046.69593045901,114626.60675891466,0.954252180285424,11.334117317641153,12.473907567920978
202.0,117932.73474158207,122610.05927904448,0.9543796313615412,11.542366252098326,12.430319022616844
203.0,114622.64143842473,129716.42659182088,0.9549026726898105,11.78324236780508,12.396670151952076
