Time,J,A,S,tau
0.0,100.0,10.0,0.9271795363245849,18.846479230305277
1.0,99.77761013766865,9.190605919572814,0.9274524292616364,19.69433205047364
2.0,99.5599908838251,8.457846737106337,0.9277214462355744,20.545495499273436
3.0,99.3469284608516,7.794522559647524,0.927986717928461,21.39965096170025
4.0,99.1381941679981,7.19385371434477,0.9282483872955632,22.256651931444864
5.0,98.93356789767333,6.649743821020683,0.9285065965251922,23.116357031564576
6.0,98.73283768604175,6.15669649590887,0.9287614868971893,23.978629764553745
7.0,98.53579929766957,5.709770858419169,0.9290131986626738,24.8433382802725
8.0,98.34225575623755,5.304511075547619,0.9292618709574882,25.710355108494763
9.0,98.15201699921548,4.936907847742578,0.9295076417187932,26.579556964020426
10.0,97.96489942686951,4.603347643222932,0.9297506476416958,27.450824485534376
11.0,97.78072557356106,4.3005747584896135,0.9299910241327229,28.324042046646806
12.0,97.59932373098158,4.025658234512133,0.9302289052903346,29.199097535973834
13.0,97.42052757881,3.7759545109990356,0.9304644239024163,30.07588213985379
14.0,97.24417587921947,3.5490795262056656,0.9306977114433848,30.95429016266101
15.0,97.07011214153593,3.342886250183237,0.9309288980926387,31.834218827489178
16.0,96.89818429882777,3.155439115090549,0.9311581127639623,32.7155680827651
17.0,96.72824441153575,2.9849909051543966,0.9313854831395938,33.59824042432513
18.0,96.56014838477725,2.8299672532610898,0.9316111357107169,34.482140724940635
19.0,96.39375566981657,2.6889484375249353,0.93183519583343,35.36717605303103
20.0,96.22892898594662,2.560652720280818,0.9320577877880232,36.2532555030784
21.0,96.06553406228208,2.443924860199851,0.932279034839984,37.1402900376084
22.0,95.90343937284152,2.3377218355032943,0.9324990593110244,38.02819232425479
23.0,95.74251588173475,2.2411028918579063,0.9327179826536748,38.916876578437765
24.0,95.58263679481828,2.1532191788903052,0.9329359255300145,39.80625840944259
25.0,95.42367731353805,2.0733052174164177,0.9331530078952641,40.69625466731544
26.0,95.26551439882316,2.0006698870291766,0.9333693490828489,41.5867832955071
27.0,95.10802653504801,1.9346891373661557,0.9335850678937418,42.47776318312803
28.0,94.95109350455813,1.8748007351457188,0.9338002826859436,43.36911402335868
29.0,94.79459615457063,1.8204972526263368,0.9340151114697773,44.26075616678418
30.0,94.63841617481084,1.771320484001385,0.9342296720020545,45.15261048108717
31.0,94.4824358772266,1.7268579302881597,0.9344440818821385,46.044598211687884
32.0,94.32653797151113,1.686737512179848,0.9346584586503592,46.936640839646095
33.0,94.170605347992,1.6506236423377507,0.934872919885484,47.82865994385617
34.0,94.01452085680776,1.6182138650255493,0.9350875833048331,48.720577060655785
35.0,93.85816709293165,1.5892364866012223,0.9353025668604367,49.612313547209546
36.0,93.70142617778532,1.5634465095225536,0.9355179888381885,50.50379044235066
37.0,93.54417952595226,1.540625457813802,0.9357339679636972,51.39492831771312
38.0,93.38630763509539,1.5205752647850592,0.9359506234929368,52.285647144031
39.0,93.22768985827075,1.503118044094215,0.9361680753115285,53.17586614581146
40.0,93.06820421634266,1.4880960963182595,0.9363864440113145,54.0655036819888
41.0,92.90772709109095,1.4753688103852967,0.9366058510239818,54.95447704939138
42.0,92.74613300152146,1.4648092199043847,0.936826418705546,55.842702340348524
43.0,92.58329456353995,1.45630363323833,0.9370482703347018,56.730094418271214
44.0,92.41908187129494,1.4497572797861784,0.9372715303763205,57.616566520797974
45.0,92.25336260181938,1.4450773919571298,0.9374963243991898,58.50203032884416
46.0,92.0860017106616,1.442192589550923,0.9377227791877362,59.38639577262253
47.0,91.9168607579938,1.4410314505758526,0.9379510229855196,60.2695706002327
48.0,91.74579861942169,1.441540583712742,0.9381811851689292,61.15146083601484
49.0,91.57266970108681,1.4436651981064703,0.9384133969107383,62.031969637195296
50.0,91.39732555330205,1.447372448738445,0.9386477905127557,62.91099833080145
51.0,91.21961296863314,1.4526119166144265,0.9388845000530648,63.788445195796385
52.0,91.03937332299884,1.4593785536772372,0.9391236615377272,64.66420504888757
53.0,90.8564460364847,1.4676428083091042,0.9393654116654351,65.53817145330387
54.0,90.67066220441279,1.4773861560392914,0.9396098898372854,66.41023265583112
55.0,90.48185029477987,1.4886059452752705,0.9398572362806407,67.28027522695633
56.0,90.28983135626486,1.5012830280791951,0.9401075933556012,68.14818100412577
57.0,90.09442005954736,1.5154381048327206,0.9403611051292977,69.01382776665913
58.0,89.89542764931461,1.5310604892418227,0.9406179165641129,69.87709110649737
59.0,89.6926538924763,1.548165701637594,0.9408781751970485,70.73783932100517
60.0,89.48589589459547,1.5667769485287169,0.9411420291419901,71.59593901638974
61.0,89.27494083087036,1.5868941461617,0.9414096283208097,72.45125048897731
62.0,89.05956706011003,1.6085605612316087,0.9416811240261868,73.30362845259265
63.0,88.839548297911,1.6317917132466428,0.9419566681944523,74.15292466985409
64.0,88.61464489621204,1.6566213408234163,0.9422364141824808,74.99898244592536
65.0,88.38461238028572,1.683081363830823,0.9425205157571314,75.84164202954216
66.0,88.14919232408887,1.7112093902402348,0.9428091273434395,76.680734852083
67.0,87.90812021023353,1.7410517323233843,0.9431024035402099,77.51608849822964
68.0,87.66111729541625,1.7726467963997568,0.9434004987328182,78.34752157068837
69.0,87.40789661218813,1.8060542901421455,0.9437035670059306,79.17484749225966
70.0,87.14815753823534,1.8413148755962658,0.9440117613082055,79.9978710704403
71.0,86.88158822860802,1.878499948821961,0.9443252333719905,80.81639005810422
72.0,86.60786440331086,1.9176543303269487,0.9446441329734909,81.63019436496046
73.0,86.32664695027809,1.95885901582779,0.9449686071017275,82.43906459002355
74.0,86.03758587193039,2.00216546742394,0.9452988001677199,83.2427744658662
75.0,85.74031237005472,2.0476623625995813,0.9456348513733384,84.04108593306134
76.0,85.43444716602721,2.0954236707137324,0.9459768964610686,84.83375433402753
77.0,85.12671013958607,2.2876424358713408,0.9463250647030034,85.62052382824182
78.0,84.8151595696347,2.5559813092192547,0.9466794786840969,86.40112868121648
79.0,84.49664480398863,2.8309979346728,0.9470402529005697,87.17529251131316
80.0,84.17122477907014,3.1129750836448338,0.9474074928353593,87.94272828679578
81.0,83.8390246000532,3.402204986106395,0.9477812929177025,88.70313728688176
82.0,83.50024470810997,3.698988971158864,0.9481617354013391,89.4562092347078
83.0,83.15517048486706,4.003637495523024,0.9485488890835391,90.20162216185705
84.0,82.8041923066079,4.316471084195331,0.9489428063885277,90.9390411787704
85.0,82.44782097129847,4.637819902178328,0.9493435215223207,91.66811843953042
86.0,82.0866934532808,4.968023330560844,0.9497510497906875,92.38849365466594
87.0,81.72160692781232,5.307431262960764,0.9501653826811907,93.09979219938054
88.0,81.35353282139712,5.656403245897093,0.9505864861680065,93.80162553441046
89.0,80.98362184395097,6.015308001893373,0.9510142999294877,94.49359175454761
90.0,80.61325585015399,6.384525152358772,0.9514487292567522,95.1752730039708
91.0,80.24404118158569,6.764442998124359,0.9518896459858478,95.8462373197874
92.0,79.87782625867844,7.155459368834686,0.95233688461643,96.50603794422896
93.0,79.51675522010753,7.55798191613509,0.9527902323178332,97.15421122436075
94.0,79.16322038807104,7.97242592147619,0.9532494346078438,97.79027972259674
95.0,78.8199248029155,8.399216235590735,0.9537141804698542,98.4137487429611
96.0,78.48985376405365,8.838784882457619,0.9541841014943532,99.02410784860956
97.0,78.17624706483748,9.291571447134135,0.9546587708969343,99.62083151107146
98.0,77.88261463528923,9.758022352533382,0.9551376831303124,100.20337609242011
99.0,77.6126350939695,10.238589011861617,0.9556202706356751,100.77118462206627
100.0,77.370132009871,10.733728867534454,0.9561058663830062,101.32368100081138
101.0,77.15895584435755,11.24390170431659,0.9565937292172771,101.86027618772155
102.0,76.98284043027287,11.7695714865644,0.9570830031734934,102.38036293164679
103.0,76.99563890696457,12.160256035765384,0.9573569159848501,102.23520907659608
104.0,77.54639668399163,12.054585632404212,0.9568798266900389,99.70496895951338
105.0,78.13429605872882,11.947639471217036,0.9563460671599859,96.78280550693214
106.0,78.75971375172391,11.839413001603743,0.9557529543124074,93.43650340410451
107.0,79.42272055432643,11.729903121072745,0.9550986518456861,89.6494349095742
108.0,80.12305321143825,11.619108229958822,0.9543825256473013,85.43219394046143
109.0,80.86008659391746,11.507028323290223,0.9536055092397667,80.83524953288206
110.0,81.63281408516758,11.393665041177982,0.9527702694033923,75.95521642033466
111.0,82.43983191711871,11.279021749371333,0.9518811123119092,70.92904646123102
112.0,83.27933279013695,11.163103601543687,0.9509435230900466,65.91284610042014
113.0,84.14910699826534,11.045917606314884,0.94996346189207,61.0530782736375
114.0,85.04655137271646,10.927472695559793,0.9489466278602102,56.46264154980275
115.0,85.9686879744138,10.807779789393871,0.9478978992589643,52.21079324533698
116.0,86.91219200794491,10.686851851935202,0.9468210504437024,48.32653528914557
117.0,87.87342443012847,10.564703966342766,0.9457187113348706,44.808923045411596
118.0,88.8477815777996,10.442048571230028,0.9445924979056125,41.63875270785345
119.0,89.77847028628747,10.372348020585664,0.9434431267125409,38.78725185134772
120.0,90.66971937793939,10.348313769569597,0.9422706120686137,36.222379313689075
121.0,91.49615320082943,10.391390295541555,0.9410744358783963,33.912497580208324
122.0,92.2263800106235,10.528090535885843,0.9398536592921171,31.828138736228162
123.0,92.82299881899173,10.788941619964278,0.9386070202541388,29.942782066183433
124.0,93.24280961657875,11.206678189854527,0.9373330054538486,28.23302160151881
125.0,93.43768388501768,11.81336412995129,0.9360299034571754,26.678425883185078
126.0,93.35664879674239,12.636469067742825,0.9346958436768041,25.26126060665396
127.0,92.9512612797727,13.692961961253783,0.9333288252903179,23.96616789275034
128.0,92.2595636732877,14.909388747275651,0.9319267377254715,22.779848242834525
129.0,91.31426380926507,16.223625614981795,0.9304873746789935,21.69076700697521
130.0,90.11099540173704,17.619039523988018,0.9290084514249807,20.688902705783857
131.0,88.6574843019034,19.076997227419803,0.9274876124983984,19.76552307808715
132.0,86.9729903174739,20.577820082917945,0.9259224345034835,18.912988440311626
133.0,85.0860460777978,22.101692290303777,0.9243104408448579,18.12460045309965
134.0,83.03101414802985,23.629479573027083,0.9226491003187093,17.39445925281638
135.0,80.84436578230562,25.143448994069594,0.9209358415905161,16.717356277568715
136.0,78.55784312331619,26.63134477937826,0.9191680500430299,16.08867072650435
137.0,76.19912343321887,28.08365696323245,0.9173430845418656,15.504297222630173
138.0,73.79674636912645,29.487726390118226,0.9154582815069661,14.9605726580012
139.0,71.38692050296547,30.820711293312208,0.9135109584351266,14.454216212184111
140.0,69.02376078814223,32.03961695673291,0.9114984210163014,13.982282057834567
141.0,66.78313025918499,33.077991243649016,0.909417976510597,13.542118199182553
142.0,64.74119829351419,33.867828890778995,0.9072669431615952,13.131330231948555
143.0,62.94181286362848,34.372308132583626,0.9050426579129367,12.747749948214928
144.0,61.391662695566716,34.59063622625449,0.9027424953489683,12.389410252653688
145.0,60.066178142100846,34.55221360334799,0.9003638690058622,12.05452020201877
146.0,58.92224841548882,34.30398999524749,0.8979042526677854,11.741446935057745
147.0,57.91169279100007,33.8971317085736,0.8953611890630648,11.448697123770684
148.0,56.99084359902825,33.37760365927605,0.8927323080930621,11.174903290675417
149.0,56.12480157713525,32.7821044232464,0.8900153404532706,10.918809573719733
150.0,55.287827358485316,32.137838169915696,0.8872081328981051,10.679260954151875
151.0,54.46191371626513,31.464077817472806,0.8843086675311734,10.455192976219262
152.0,53.63504366106452,30.774008785735607,0.8813150767993668,10.245622656580126
153.0,52.79976774622112,30.076227640863976,0.8782256616355335,10.049640893200612
154.0,51.9519160480941,29.376087457276792,0.8750389093875828,9.866405312988963
155.0,51.0894413188973,28.67689562181784,0.871753513955872,9.695134089544975
156.0,50.211605827626144,27.980759332818018,0.868368400586654,9.535101415222675
157.0,49.31845415548502,27.28913211459843,0.8648827247213725,9.385631027511092
158.0,48.410544220685985,26.603093289869488,0.861295912455478,9.246091384833948
159.0,47.48882079583596,25.923509334277284,0.8576076786718566,9.11589557826583
160.0,46.554491418208436,25.251143498710977,0.8538180008937736,8.994492228085731
161.0,45.60901685655536,24.586699065465393,0.8499272141234583,8.88136655840414
162.0,44.654081614163985,23.930855129388018,0.845935963372009,8.77603687987234
163.0,43.69155159043107,23.284289006156797,0.8418452195005509,8.67804845913734
164.0,42.723508392027554,22.647698704774196,0.8376563645996946,8.586977550115854
165.0,41.752176882672536,22.021804217852484,0.8333710885315004,8.502422672789729
166.0,40.77996142938062,21.40737737272852,0.8289915357886396,8.424007677012547
167.0,39.80936770873539,20.805230724947126,0.824520191780022,8.35137729328777
168.0,38.84301076258608,20.21624284795705,0.8199599668834228,8.28419566053884
169.0,37.88353286355074,19.64135989529116,0.8153141917677371,8.22214732363439
170.0,36.93358317115016,19.081595256556884,0.8105865653864602,8.164931438023203
171.0,35.995717804826505,18.538055387971177,0.8057812729055628,8.112266318163623
172.0,35.07235982324793,18.01190478147672,0.8009028244752562,8.063882150271011
173.0,34.165701427027855,17.50441042063985,0.7959562355934882,8.019525813417829
174.0,33.27762075011419,17.016879268469776,0.7909468415775996,7.978955113705813
175.0,32.40965564009891,16.55070025141682,0.785880446839643,7.9419414597808515
176.0,31.562854225750748,16.10726937205763,0.7807631971625231,7.908266985169842
177.0,30.737828775686427,15.687999230956725,0.7756016184183999,7.8777243570796465
178.0,29.934645219532293,15.294263255395924,0.7704026227606356,7.85011708824151
179.0,29.152870735786124,14.927353077710226,0.7651734345219139,7.825257431143012
180.0,28.39164610489553,14.588447464343895,0.7599216139369687,7.8029666837064475
181.0,27.649662263279936,14.278522516310439,0.7546550305791344,7.783074975782353
182.0,26.925312922316504,13.998338965405514,0.7493818079543102,7.765419704754662
183.0,26.21683459750711,13.748369563476924,0.744110339954537,7.749846188725628
184.0,25.52235121901922,13.528733185126393,0.738849240831593,7.7362070087809744
185.0,24.840080634015095,13.339235051116992,0.7336073070208586,7.724360816047322
186.0,24.16845453329665,13.179240656607652,0.7283935206742961,7.714173599310783
187.0,23.506101902941825,13.047776342729334,0.7232169764276044,7.705516618100248
188.0,22.85215222539287,12.943475944844504,0.7180868882279341,7.6982675626877874
189.0,22.206021062224394,12.86464579116272,0.713012529013228,7.692309384088016
190.0,21.567571865755927,12.809307206977484,0.7080032124729868,7.687530425625754
191.0,20.937083527445363,12.775260604763744,0.7030682586933692,7.6838241632429884
192.0,20.31518298986917,12.760155023247451,0.6982169590238475,7.6810890836086285
193.0,19.702799482070766,12.761539483048185,0.6934568074488577,7.67928578086298
194.0,19.101702952471957,12.776354851452442,0.6887603231780773,7.679499180708145
195.0,18.51276069722973,12.80266020361425,0.6841626347289197,7.680758446923955
196.0,17.936909545586833,12.838557541238844,0.679691325908029,7.682383445560574
197.0,17.375359095579963,12.88202390540664,0.6753566331318771,7.6842582405548665
198.0,16.829235408983777,12.931233361175863,0.6711683655865933,7.686278941669199
199.0,16.29953776198626,12.984578458203513,0.667135870229651,7.688353216112845
200.0,15.787103073771567,13.040675063174684,0.6632680110453881,7.690399571295272
201.0,15.292473087883064,13.098480800297082,0.6595800031866219,7.692143097393854
202.0,14.815321983808701,13.157795897130207,0.6561196028579552,7.692361223823623
203.0,14.356691115780439,13.21707157840908,0.6528485843680261,7.69236122382354
204.0,13.916857749548104,13.275556060333551,0.6497645125717112,7.69236122382354
205.0,13.49581222386131,13.332781889763226,0.646872056783701,7.69236122382354
206.0,13.093355293937229,13.388433869689376,0.6441755374094719,7.69236122382354
207.0,12.709195145661276,13.442287043254428,0.6416790243722044,7.69236122382354
208.0,12.342868303519868,13.494235401938974,0.6393861941838169,7.69236122382354
209.0,11.993875626314153,13.544213796893844,0.6373004795335646,7.69236122382354
210.0,11.661600895137703,13.592216300332108,0.6354249313762528,7.69236122382354
211.0,11.34540317922801,13.638274899032576,0.6337623161937564,7.69236122382354
212.0,11.044528984598946,13.682484207824372,0.6323150625151941,7.69236122382354
213.0,10.758209256691968,13.724953155029894,0.6310853014859849,7.69236122382354
214.0,10.48564219987852,13.765803840353756,0.6300747937434865,7.69236122382354
215.0,10.226010441991907,13.805163718940603,0.6292850354312466,7.69236122382354
216.0,9.978500274813989,13.84315395840466,0.6287171447356441,7.69236122382354
217.0,9.742285941089225,13.879896640581153,0.6283719568091795,7.69236122382354
218.0,9.51656227695334,13.915499636827333,0.6282499691464515,7.69236122382354
219.0,9.300526900981232,13.950064033399933,0.628351344964002,7.69236122382354
220.0,9.093399694714028,13.983676445501244,0.6286759625418903,7.69236122382354
221.0,8.894425068548214,14.016405628636711,0.6292233232267809,7.69236122382354
222.0,8.702866931001086,14.048309572767684,0.6299926641354395,7.69236122382354
223.0,8.518026016900226,14.079422921188524,0.6309828509727101,7.69236122382354
224.0,8.339227913207178,14.109769766425767,0.632192455430493,7.69236122382354
225.0,8.16583573846299,14.139352416604757,0.6336197243386668,7.69236122382354
226.0,7.997249500159341,14.168158206448675,0.6352625574241523,7.69236122382354
227.0,7.8329043352557886,14.196158816493895,0.6371185779173826,7.69236122382354
228.0,7.672281348655796,14.223305500593733,0.6391850297472301,7.69236122382354
229.0,7.514900498787922,14.249539364367967,0.6414588885801881,7.69236122382354
230.0,7.360327481747679,14.274780526745891,0.6439367722917061,7.69236122382354
231.0,7.208177069908273,14.298940258941577,0.6466149935124931,7.69236122382354
232.0,7.058105742003869,14.32191364451973,0.6494895607100789,7.69236122382354
233.0,6.909826796817538,14.343585584064872,0.652556132914982,7.692361223854901
234.0,6.763096920424751,14.363833324258108,0.6558101143208134,7.692361224877833
235.0,6.617642762087552,14.382604953353624,0.6592517949404549,7.692220091817967
236.0,6.47231330470085,14.40072614587755,0.6629363977368985,7.690310903310544
237.0,6.327967934492135,14.417080952714839,0.6667969584086737,7.688265857559455
238.0,6.184629961141709,14.431460096710559,0.6708236890603106,7.6861866773818015
239.0,6.042355824937085,14.443674174006158,0.6750075265083282,7.68415183537698
240.0,5.901271999858956,14.453533089794776,0.6793385004230301,7.682257133367017
241.0,5.761513640046904,14.460841960981803,0.6838063082531693,7.68060508941014
242.0,5.623299052602715,14.465425429467713,0.6884001082120287,7.679310178947001
243.0,5.4872678770095495,14.466738791603301,0.6930842098286266,7.679187122755122
244.0,5.354123057822787,14.464268384003029,0.6978259502119547,7.680988958207375
245.0,5.223538622523306,14.458547902593256,0.7026571450075796,7.683641389084659
246.0,5.095818869782118,14.449503525633064,0.7075675831561714,7.687247591817008
247.0,4.971276221357676,14.437100839397948,0.7125473619704568,7.691904458467535
248.0,4.850229110123372,14.421333796052389,0.7175865586418083,7.697712134188575
249.0,4.7329925593148,14.402235563459204,0.7226752741081917,7.704775047449332
250.0,4.61988336783763,14.379873261030292,0.7278036650805778,7.713201058530178
251.0,4.511187879530187,14.354364131107594,0.7329619860241186,7.723101871348985
