Time,J,A,S,tau,r
0.0,1.0,1.0,0.9470007556509475,10.309278350515463,0.0
1.0,1.4027951284876223,1.99379830770714,0.9476241689054217,10.803637751516545,0.011108531877195746
2.0,2.6724554791162864,2.763588057863583,0.948252636420313,11.313198277941257,0.010843549691226013
3.0,4.520361712590678,3.339844280225001,0.9488841182319028,11.837568982839965,0.010592013439576763
4.0,6.726070790461633,3.7527654797196535,0.949516728574454,12.376368110191972,0.01035085156275633
5.0,9.12334039219734,4.030415840468885,0.9501487345855123,12.929219835109508,0.01011812909594316
6.0,11.589094700825589,4.198422671037224,0.9507786234096687,13.495734251124716,0.00989283804282305
7.0,14.034477133554308,4.2790049398474075,0.9514049727896178,14.075539600273293,0.009674104475518567
8.0,16.39692248790743,4.291193220600434,0.9520263632505058,14.668300332084494,0.009461252716433237
9.0,18.63474457114284,4.2511924333573825,0.9526417821917783,15.27361597133573,0.009253868679893862
10.0,20.72175635255153,4.172199901532472,0.9532500882804636,15.89115166856938,0.00905151007280028
11.0,22.64353471124026,4.0649283008263,0.9538502466489687,16.52057735367023,0.00885381214666209
12.0,24.394461717948527,3.9382085901705395,0.9544413726482788,17.161557656084458,0.008660558079006096
13.0,25.975094007944854,3.7987712099746345,0.9550226944545588,17.813756732521018,0.008471474403138859
14.0,27.3902631315203,3.651898834592303,0.9555934688299917,18.476861104834303,0.008286341743200743
15.0,28.64790789089543,3.501763622346469,0.9561530240235158,19.150565399786533,0.008105022599917053
16.0,29.75760801413465,3.351249120162232,0.9567007898404173,19.83456230533679,0.007927315263400554
17.0,30.729990566252653,3.2027282860064,0.9572362510362703,20.52855663607202,0.007753123038559676
18.0,31.576046437951028,3.057665191949885,0.9577589753801345,21.23225422563954,0.007582295137988378
19.0,32.30676115486364,2.9172237440426705,0.9582686302302267,21.94535761413215,0.0074147442382579585
20.0,32.932781343377194,2.782084716721863,0.9587647842625662,22.66761365282463,0.007250367334289558
21.0,33.46426526124858,2.6526272918701364,0.9592472729733957,23.398723956005966,0.007089074366349567
22.0,33.91072603884632,2.5290617723761377,0.9597158793459796,24.13842603060931,0.006930788213728192
23.0,34.2810428470676,2.411459109005416,0.9601703580076472,24.886475281617855,0.006775450783108272
24.0,34.58336111813483,2.2997086566057106,0.9606107302545279,25.64257933759875,0.006622989082992164
25.0,34.82510524339178,2.1935262627814054,0.9610368091296464,26.406511150278032,0.006473308650514592
26.0,35.01307699542206,2.0929710975744134,0.9614486629667072,27.17799953922756,0.006326416110408884
27.0,35.15343197308902,1.9977064954338744,0.9618463367057537,27.956801482694633,0.006182239434404451
28.0,35.25170743800884,1.90743362368472,0.96222987742805,28.742668933819775,0.0060407182005673314
29.0,35.312919895441816,1.8220051434940863,0.9625994190842337,29.535356732398153,0.005901836489616343
30.0,35.34155643276939,1.7411267558148205,0.9629551301793512,30.334625527452438,0.005765544091067493
31.0,35.34162944671651,1.664543794091967,0.9632971747871499,31.14024868432712,0.00563179888937504
32.0,35.37118702955211,1.5432834870829077,0.9635446183690992,31.762598691321287,0.005484632017018307
33.0,35.26598210639009,1.5284768969534868,0.9636298790339392,32.52531452486501,0.005336643389254157
34.0,34.98201838138989,1.67429507420135,0.9637949749518617,33.325086230581206,0.0052032323331498405
35.0,34.90334700123767,1.5940924409267148,0.9637641473452914,33.71043541840997,0.005031952754383437
36.0,34.49475501764749,1.8117426719092067,0.9638587496991553,34.50831708625306,0.004900596559430482
37.0,34.013812409439204,2.063077892072799,0.9639724087298132,35.32007892473132,0.004775307760692499
38.0,33.871372726525735,1.948470349837427,0.9639391610899456,35.7147043588588,0.0046197569587473515
39.0,33.38205573504504,2.1478893042312808,0.9639903222324067,36.52308759490463,0.004496384853247577
40.0,32.80114678974493,2.3932317001263055,0.9640930175801122,37.35385227516748,0.004381774176577596
41.0,32.59124090413148,2.2463757964715936,0.9640731512030506,37.774563958396485,0.00424333882307746
42.0,32.15270178081423,2.3032751430162905,0.964047899134099,38.56585877592619,0.004122033615604637
43.0,31.514830330959544,2.5228156565929787,0.9641430373888079,39.4131974153628,0.004017043957137843
44.0,31.078471257173224,2.509962058474382,0.9640910824255229,40.187197262355916,0.0038987242012159446
45.0,30.845909328508117,2.2869445516184426,0.9640690211524289,40.637564744993696,0.0037770448339625655
46.0,30.22251080477698,2.4481505732743787,0.9641134716165022,41.48868540064939,0.0036775351099701905
47.0,29.604111093027882,2.565443173670784,0.9641342154122872,42.33790885062026,0.0035788350262444695
48.0,29.36716572191493,2.3060176715854945,0.9641032271744556,42.76697803397981,0.003465281636632029
49.0,28.915351366354955,2.269775614089434,0.9640390009200004,43.58066071724491,0.0033633995639643192
50.0,28.260525404641633,2.415533567088186,0.9640765166755066,44.44708350733178,0.003274535590098188
51.0,27.700543059663673,2.4400956776754823,0.9640376299985915,45.29162384239688,0.003181699856457346
52.0,27.491196958183885,2.1353106137521247,0.9639985701251269,45.7089513889416,0.0030789999646012975
53.0,26.972252149840514,2.158097791746703,0.9639482011408208,46.55592385399547,0.002990634063820879
54.0,26.324361287928888,2.2862419047387994,0.9639636692641904,47.4296344919938,0.0029102983678165975
55.0,25.80122400108858,2.2720826301901766,0.9638964584036913,48.27262003684693,0.0028251280501662332
56.0,25.58520124837589,1.9778515383708632,0.9638583866467957,48.69113751266769,0.0027335648613277
57.0,25.059589350424165,2.016849417639342,0.9638042846471258,49.548457213904335,0.0026548905632746184
58.0,24.428261828173017,2.138744412622792,0.9638018690482972,50.426263900259634,0.0025825447573605957
59.0,23.921009794350365,2.1225005751338557,0.9637233939684571,51.271558633995944,0.0025058575066746786
60.0,23.699670757256392,1.8514516198062183,0.9636865296982315,51.68615748108697,0.002424449013592594
61.0,23.186787391339493,1.8942971658884789,0.963624544207193,52.54670835946029,0.0023540653075197777
62.0,22.573587573669407,2.016224969914759,0.9636092400923112,53.42584489696391,0.0022893299134449374
63.0,22.081170183054294,2.0049339919160394,0.9635236324720542,54.27048333114027,0.0022206505029757004
64.0,21.856799464353628,1.7563310337014335,0.9634886573464858,54.677556933364436,0.0021482993884495323
65.0,21.34973522244435,1.811604231808488,0.9634242311003256,55.53951636863373,0.0020859289785386155
66.0,20.75336987578447,1.935347742668791,0.9633986392077585,56.416737042214386,0.0020283520151981645
67.0,20.295418453983636,1.912026893989363,0.9633019720016804,57.245049335756775,0.0019663025366834152
68.0,20.06113353672149,1.6939755305501487,0.9632714908678657,57.650636823259084,0.0019027704510647008
69.0,19.536181425315707,1.7834381268097717,0.963216383783759,58.515474709602124,0.0018487222226840825
70.0,18.961492919281962,1.9012546934307069,0.96317663148948,59.38551692828098,0.001797552603242384
71.0,18.6094850452283,1.80151447602841,0.9631394471912542,59.86277747125613,0.0017407507792305303
72.0,18.261670029230128,1.718504024407577,0.9630483046450903,60.59649667153521,0.0016861367496750768
73.0,17.706082311781856,1.8427768766619212,0.9630108082312883,61.462573894825084,0.0016403595510865693
74.0,17.204890352839723,1.898824399049508,0.9629347100373784,62.30538207767607,0.0015932189889878137
75.0,16.978745403153365,1.7019322003202526,0.9629072409584403,62.66102513970684,0.0015419440474217238
76.0,16.486799981245838,1.7869363154495546,0.9628450970738304,63.5083673561967,0.0014993836162827292
77.0,15.949293197903028,1.9035451330544169,0.9627919232183426,64.35748106473038,0.0014591122661602584
78.0,15.703129608026897,1.7445003315452012,0.9627692454989005,64.69479021268229,0.0014132203817678979
79.0,15.25853069593549,1.7976923887155924,0.9626943745515775,65.52070786050808,0.001374341407881987
80.0,14.732405162991704,1.9246884935097928,0.9626424549141808,66.35919847741961,0.0013389307328340433
81.0,14.497857098673519,1.7748751108711633,0.9626224625756734,66.67061984898551,0.0012979054474515387
82.0,14.039994352421457,1.8600031861552349,0.9625589439262858,67.49215942856632,0.0012646939853786733
83.0,13.572914350907405,1.9522070146367132,0.9624864074152139,68.29707919371204,0.0012320970486591688
84.0,13.347192920279165,1.815208807560028,0.9624763751649063,68.59326173856621,0.0011967777183048754
85.0,12.853516395411631,1.9600917343757658,0.9624317072770318,69.41208586703408,0.0011696650277678588
86.0,12.604505822395916,1.8750789172441953,0.9624250827266251,69.68439731886298,0.0011375218583738785
87.0,12.198924114780267,1.9537264932776852,0.9623598061010312,70.47231823273549,0.0011116551538147205
88.0,11.873722857004974,1.9692443861808737,0.9623638801707581,70.79412880298679,0.001084823719439397
89.0,11.559126585165329,1.97897612900661,0.9622931538303361,71.49761944719178,0.001059948159597744
90.0,11.219355755894385,2.0363265460366797,0.9622865274076808,71.87387863240974,0.0010363233447264178
91.0,10.941942111694415,2.0375388546339566,0.9622346012760701,72.48617046730362,0.0010143640857909703
92.0,10.706886105917958,2.0305099208217126,0.9622492755516,72.7069532428115,0.0009932451615867987
93.0,10.41494401051404,2.087608760255152,0.962178560972879,73.43305051050048,0.0009756977724157092
94.0,10.276921201789914,2.023028345666077,0.9621792041736443,73.59690282494198,0.0009557555096653296
95.0,9.997077028694855,2.1208062578199707,0.9621059675930119,74.30525904046186,0.0009411619626007145
96.0,9.8713117904341,2.0787053050397515,0.9621239977512515,74.4676481659292,0.0009262449267603375
97.0,9.780285713914935,2.0461053006692462,0.9621290532228473,74.58412553634464,0.0009111827344955155
98.0,9.646318473115146,2.0864278711565327,0.9621452200292757,74.74002868170838,0.0008999546561319253
99.0,9.531940918907233,2.1248916996847353,0.962058829886109,75.35589829452381,0.0008896792665723677
100.0,9.5132684988477,2.0964209061143726,0.9620691007007028,75.42910898103045,0.0008800653287227865
101.0,9.530831494541223,2.071129033314566,0.9620728427942583,75.47045063716114,0.0008712343382392856
102.0,9.577563232538276,2.0549789386884316,0.962074362696288,75.48789443579885,0.0008637997803025092
103.0,9.656221554557671,2.0437500277302436,0.9620733822037391,75.48162870480061,0.0008578477103869953
104.0,9.76962749453667,2.0335367095005696,0.9620685618494813,75.44955829660667,0.0008533048471228536
105.0,9.921489515448018,2.02052582728946,0.9620568708417453,75.38307962404173,0.0008499053598576532
106.0,10.142733316574665,1.977623320158154,0.9621466941260155,74.70714386668912,0.0008477727905693427
107.0,10.40303377640027,1.9394453472633622,0.9621295169363153,74.53405755913724,0.0008465575026052524
108.0,10.656687546042685,1.942360625393361,0.9621016747667976,74.36222176770212,0.0008470238594129403
109.0,10.957363271072573,1.946343088847086,0.9621802787612646,73.52260508373362,0.0008485143204700776
110.0,11.19728770581981,2.0700923397248725,0.9622526315770555,72.63381898849335,0.0008514488957506624
111.0,11.458487193765624,2.254999440646106,0.9622872913088335,71.80450953458784,0.0008551686293447083
112.0,11.766368154588667,2.5024707966262576,0.9623676347641035,70.7016959160647,0.0008602492398321127
113.0,12.23754484703889,2.709551714562406,0.962431151649174,69.57298565978049,0.0008666765552134901
114.0,12.840822864688324,2.9292667823651612,0.9624749631684254,68.42839210648525,0.000874534837367577
115.0,13.6163585443326,3.11933752917267,0.962630874523251,66.52751901360298,0.0008840018600494305
116.0,14.568684230811625,3.279320394226463,0.9627787312573963,64.54489038970776,0.0008948683013268202
117.0,15.729404541419646,3.379604172818561,0.9629177520656549,62.48238205287656,0.0009071366644999313
118.0,17.054584679644613,3.460176573574326,0.9631458651007805,59.712991680376724,0.0009208567554798492
119.0,18.563584282855622,3.510238253408139,0.9632833796870882,57.431160273463334,0.0009360219350775226
120.0,20.233905438414872,3.536618426358241,0.9635021874826858,54.4703347546431,0.0009532848891559067
121.0,22.03618094262787,3.5777463523019684,0.9637003342172976,51.47823204306218,0.000972122918240682
122.0,23.96531383200296,3.6558229544710925,0.9638720083439566,48.483377183739,0.0009926121273440744
123.0,26.052848087149915,3.770002777855705,0.964012335031649,45.5107249056926,0.001014831246707592
124.0,28.332600107272988,3.925931726927298,0.9641162213892196,42.58707220540328,0.0010389309950154973
125.0,30.825061599858998,4.159906152414833,0.9640639018505774,40.39031628264119,0.0010646980794462662
126.0,33.625262885866235,4.434706061334181,0.9640878143587036,37.60005644336385,0.0010930649283599175
127.0,36.77468849479435,4.798510445106954,0.963953381236919,35.53271692636435,0.0011235387165030772
128.0,40.38735873044252,5.229550802549036,0.9637780686728883,33.532523193538744,0.001156783907008944
129.0,44.566042551033796,5.721872263248109,0.9635623638467169,31.598032299954166,0.0011931463029394398
130.0,49.37317989572458,6.346476947529938,0.963197640767521,30.322245605557672,0.001233582073424348
131.0,55.09334290940702,7.0026088696580935,0.9629023836779558,28.521443466011736,0.0012782879495750882
132.0,61.743757429386925,7.775375101541419,0.9624669879362733,27.348727594872084,0.0013274651136505617
133.0,69.49189149760957,8.420561756552827,0.9620922103140221,25.65323737527304,0.0013782854226526014
134.0,78.18196551817553,9.104963919707163,0.9615792814169202,24.560449248686282,0.00143311015891873
135.0,87.73086017393923,10.034734837793529,0.9610426833576544,23.513661083063553,0.0014918500178552699
136.0,98.32347393754016,11.420551580618616,0.9604698995501134,22.49886767045792,0.001553766898352134
137.0,110.49361603517818,13.20296398396751,0.9598548891717363,21.514599130529966,0.0016187028382730038
138.0,124.7311753888531,15.242183785343379,0.9591937597899352,20.56115881545671,0.0016866236719539078
139.0,141.32126408239867,17.424434476448877,0.9585008733557642,19.646083616605743,0.0017582046991692457
140.0,160.19657320709038,19.838705989119028,0.9577666125775471,19.03967389289612,0.001836098034653158
141.0,181.4996796987323,22.295262748760546,0.9570320881385278,18.3799387278071,0.0019180625173990883
142.0,205.38762498285044,24.7137276973593,0.9561663692926496,17.53686895327014,0.001997933194066743
143.0,231.3726026909921,27.753071153864905,0.9553269003706464,16.770461891384674,0.0020838891094417415
144.0,259.15417115622023,31.79123879485108,0.954485458283317,16.399358491410858,0.002178061380107542
145.0,289.7576762178919,36.05053473047608,0.9533981818469266,15.635715334120905,0.002265511155981615
146.0,321.29174245973456,42.41194077678165,0.9525639115723368,15.322444050751423,0.002368804231696184
147.0,355.32670800958454,49.04632981409657,0.9513327210731752,14.613025313063357,0.0024615187525693486
148.0,389.1485054351961,58.11081838369745,0.9504577425879389,14.328305031784076,0.0025710064209195083
149.0,424.42788365158736,66.9121884169702,0.9490440293500728,13.670039123492474,0.002667958188706063
150.0,456.12871154096024,79.27636192655723,0.9481090297795287,13.411314613537336,0.002782439307577865
151.0,484.44369785127003,93.42862498442095,0.94667374569188,12.876751971500129,0.002888259738904462
152.0,505.5792261028575,111.12519528460429,0.9452979557470524,12.549800666016425,0.0030011551923821503
153.0,518.0420645859361,131.9475624973154,0.9442338503932329,12.320496071730375,0.003121616700229973
154.0,522.6261601970559,153.6420631868561,0.9424118714461339,11.805065761011303,0.0032300841694569674
155.0,515.5899432130635,179.03048537867966,0.9409277027380754,11.552175822246538,0.0033514807173533785
156.0,498.44653209864083,206.06681751563787,0.9397757572300086,11.356597144664063,0.003476225008629703
157.0,469.21815309734865,236.59718688804975,0.9378495185392607,11.006184350904165,0.0035952391437568624
158.0,428.7402666542508,269.965394589794,0.9357981140619811,10.661304591299286,0.003715706813759324
159.0,382.72690185790657,301.23719484416154,0.9344376200712885,10.486440861752017,0.0038436136943948724
160.0,332.3300874687287,330.6193841820335,0.9329669581649344,10.311340687119431,0.003972460876687481
161.0,272.8180142025874,363.75890089857205,0.9306650235935618,10.006242259793455,0.00409695232650785
162.0,212.33746876652722,393.2749213773502,0.9282334926695146,9.705737404454558,0.004222593513226456
163.0,165.44683823228746,406.5714619973809,0.9264872583856749,9.545192673205726,0.004353849705202735
164.0,126.41834456484602,411.02793695080385,0.9249992681867137,9.406558553087958,0.0044820261952744364
165.0,93.84241590198886,409.07686104670336,0.9229540176860994,9.239140140983167,0.0046143931133691835
166.0,58.77435121266245,410.20269659035034,0.9201416640086363,8.959406199980444,0.004741892625468943
167.0,36.52277743565873,399.5340733354277,0.9173363935637335,8.723673742385534,0.0048728696931790525
168.0,25.829377339494332,379.52626976954923,0.9151898273786084,8.581776197810717,0.005004585824325917
169.0,19.418327907524407,357.9400416806102,0.9134688286946981,8.465231547843532,0.005130325770921156
170.0,16.60002325294343,335.7344491913983,0.9115299611062959,8.344402472423917,0.005256940153212556
171.0,16.743261094102476,313.78098261220526,0.9088615198230956,8.187019357273304,0.005388566514448027
172.0,17.314018074106524,294.7596421781822,0.9055406457885733,7.952829966860101,0.0055166781330700495
173.0,21.559556070820985,275.5314739934657,0.9022567174679649,7.755254275988958,0.00564690882338035
174.0,28.929064559987207,256.9256854946516,0.8995695277616771,7.627199819046356,0.005774419846314806
175.0,38.41811624373675,240.07504557295397,0.8974402288347338,7.526386196359192,0.005893856796685841
176.0,49.83209956110037,225.17793160841092,0.8954486527192735,7.432390420476479,0.006009824495193938
177.0,63.14283656898436,212.145488292757,0.8930907095390993,7.331248945846612,0.006126910849215658
178.0,77.92880127021255,201.13308192500836,0.8900280362044172,7.205072716549119,0.006248518795582138
179.0,92.53414600981509,193.31735334055648,0.8863025226456556,7.031266284721291,0.00637060709133051
180.0,106.3027408289775,188.62958495445847,0.8823800095484658,6.8487308871597525,0.006490751115210176
181.0,120.57499799153129,185.03694205798638,0.8788067314935809,6.718160858495392,0.0066088219646884975
182.0,132.8278598882328,184.26462379254025,0.8758243517903541,6.6222963887400015,0.00671808282168613
183.0,141.5438742447286,186.940576068413,0.8733359663520309,6.542546634990868,0.00682028090618733
184.0,146.33731460509773,192.6524469537363,0.8710509325562885,6.468956820556646,0.006918561011112988
185.0,147.45591783609723,200.5648349778934,0.8686104986939742,6.395101256902248,0.007015027916873215
186.0,145.5122507733245,209.74010775056183,0.8657071965671123,6.31479029301861,0.007111621106675008
187.0,141.13229711455605,219.4882346979119,0.8621768129934525,6.2199239119637895,0.007210359959131198
188.0,134.560011551243,229.70734708882972,0.8580561284896817,6.10124005363121,0.007310909430062566
189.0,126.13445710794807,240.33094948300428,0.8535902008883146,5.96382424952139,0.007409749357029094
190.0,118.55424880804985,249.05323355532042,0.8491252869781204,5.840714478292835,0.007505641086874398
191.0,112.51106712914117,255.6251222094718,0.8449428247666086,5.74655305536239,0.007595572018599483
192.0,107.52486827009369,260.90765048559206,0.841166615219465,5.6735096430638325,0.007677814453697644
193.0,103.55942748775304,265.2451495429167,0.8377814772535648,5.6132668069431855,0.00775399373507014
194.0,100.7125065980878,268.77433157917267,0.8346962305485136,5.560526318237524,0.007825864981313461
195.0,99.07301230200828,271.56667101443566,0.8317806085918759,5.512087620246748,0.007894450675500219
196.0,98.5436454676307,273.80667429901104,0.8288692673674177,5.466226141545521,0.007960293670823524
197.0,98.93903970869317,275.703096345079,0.8257903808953841,5.422094417549648,0.008023708488333961
