Time,J,A,S,tau
0.0,100.0,10.0,0.872069564565255,19.43062225404969
1.0,100.46161700051668,12.842850711317922,0.8735396751706349,19.588112889953035
2.0,99.52724335244179,15.62932037307564,0.874995428208028,19.743046443899157
3.0,97.61504846033517,18.36043968519986,0.8764359285267831,19.895344847131987
4.0,95.0591690066486,21.037531572804998,0.8778605313501595,20.04496038641635
5.0,92.0937282012557,23.66188301351192,0.8792685788644271,20.19184585476351
6.0,88.87270852934365,26.234745961695715,0.8806594002233435,20.33595456196977
7.0,85.49378537268872,28.75733798961166,0.8820323115442108,20.477240346406568
8.0,82.01765818996768,31.230843586457286,0.8833866159609568,20.615657585530897
9.0,78.4815233020248,33.65641428027924,0.8847216036387071,20.751161209002184
10.0,74.90806158138896,36.03516988772136,0.8860365519038172,20.88370670804246
11.0,71.31104136745033,38.368199033400714,0.8873307253102041,21.013250148641323
12.0,67.69882908176166,40.656559590097146,0.888603375702327,21.139748186566663
13.0,64.07656128831573,42.901280827381356,0.8898537424278938,21.263158077348823
14.0,60.447443250874954,45.10336335752311,0.8910810530314691,21.38343766012425
15.0,56.813432971972915,47.26377282103363,0.8922845215760714,21.500545469053847
16.0,53.1759012703927,49.38346329205397,0.8934633524370236,21.614440559177087
17.0,49.53570441417529,51.4633341666356,0.8946167351184735,21.725082811685944
18.0,45.89354463597522,53.504294643436694,0.8957438525855967,21.832432494151625
19.0,42.24991394920255,55.50719158585004,0.896843870300446,21.936450948887508
20.0,38.60526879210596,57.47285907595315,0.8979159494682012,22.037099783485143
21.0,34.96001012334388,59.402131508844356,0.898959237647456,22.134341562596145
22.0,31.314517991628247,61.29576542361138,0.8999728705438368,22.228139688147017
23.0,27.246412592879995,63.57272227915608,0.8997232737278608,22.190377815849022
24.0,24.362777771937594,64.633226555738,0.8990508731626828,22.10925706353835
25.0,22.550969523007936,64.61701801411932,0.8983661261363491,22.027575881811035
26.0,21.422847544678678,63.93038136623403,0.8976690840615579,21.945371248860944
27.0,20.71246323380975,62.85020885096104,0.8969598043033837,21.862679962212507
28.0,20.250957642849094,61.55159248173096,0.8962383503584976,21.779538612405627
29.0,19.93545067035026,60.14073267953407,0.8955047920356596,21.695983557632847
30.0,19.704731780449723,58.680420344858604,0.8947592056273198,21.6120508997123
31.0,19.522919634959294,57.207100431033375,0.8940016740846287,21.527776460908033
32.0,19.36917153626382,55.741597009230055,0.8932322871974754,21.44319576143269
33.0,19.231422603268236,54.295631143659435,0.8924511417288954,21.35834399999176
34.0,19.102738925824745,52.87561661368678,0.8916583416245051,21.27325603171927
35.0,18.979137095252373,51.484929032892424,0.8908539981431097,21.187966350675477
36.0,18.858347009158667,50.12519442941712,0.8900382300430969,21.102509070344475
37.0,18.73908618133836,48.79704443210819,0.8892111635221309,21.01691791758413
38.0,18.62067644461695,47.50052545204626,0.8883729327310924,20.931226199548693
39.0,18.50278035144693,46.235365396073135,0.8875236799197247,20.845466782653013
40.0,18.385275573598438,45.00112119016083,0.8866635543737796,20.75967215467365
41.0,18.26818697867616,43.797225702576625,0.8857927141660493,20.673874300494784
42.0,18.151690913091922,42.62309534517567,0.8849113288811712,20.588104588604846
43.0,18.035982999062313,41.47811795662168,0.8840195699402573,20.502394270089194
44.0,17.921386902833106,40.36163498719685,0.8831176222420625,20.416773807171865
45.0,17.80829619306664,39.273048716769665,0.8822056784399366,20.33127325128146
46.0,17.69716922143659,38.211723258838184,0.881283937592622,20.245922250009414
47.0,17.588614495961483,37.177051883699036,0.8803526109209139,20.16074976810691
48.0,17.483298635241244,36.16842052486786,0.8794119149973989,20.075784437515605
49.0,17.382069481519537,35.18524953082735,0.8784620789744952,19.99105417129894
50.0,17.285853498845167,34.226962175669605,0.8775033375681083,19.90658654388688
51.0,17.195767999598413,33.29300337876842,0.8765359368532838,19.82240846133677
52.0,17.113067206104926,32.38282991875901,0.875560130573132,19.738546367668977
53.0,17.03920859243584,31.495928221105057,0.8745761823139903,19.655026136378954
54.0,16.975832926743447,30.63179820383862,0.8735843644777521,19.57187310201764
55.0,16.92478165666217,29.78996475068414,0.8725849582233074,19.489112078246478
56.0,16.88813165553763,28.96998332865057,0.8715782542274777,19.406767312598742
57.0,16.868184073029585,28.17143763517963,0.8705645521604018,19.324862505177816
58.0,16.867466565856084,27.393946263175586,0.8695441603309503,19.243420836299354
59.0,16.888749041556828,26.637168718375815,0.8685173962204407,19.16246492868123
60.0,16.93503716310804,25.900812011216896,0.867484586253549,19.08201685995393
61.0,17.009557205710824,25.184636950189883,0.8664460656095555,19.002098170067995
62.0,17.115739527372426,24.488466599026587,0.8654021781380042,18.922729864163188
63.0,17.25719440832326,23.81219584625835,0.8643532762835671,18.843932414287508
64.0,17.437680187599547,23.155803942661656,0.8632997211159527,18.765725754533662
65.0,17.6610425637546,22.519364560333496,0.862241882086938,18.688129288519555
66.0,17.931151321856575,21.90305833005923,0.8611801368367318,18.61116189817143
67.0,18.251822028343916,21.30718618616732,0.8601148710491737,18.53484194787937
68.0,18.6267235439503,20.73218522610266,0.8590464783596993,18.459187285823315
69.0,19.05924914973931,20.178645442867136,0.8579753602415241,18.38421524292371
70.0,19.552370389274735,19.647322064088673,0.8569019256688537,18.309942646064833
71.0,20.108482896520147,19.139150352886272,0.855826590909652,18.236385825268425
72.0,20.729223412699582,18.655258107467013,0.8547497792767547,18.16356062046505
73.0,21.415292686722736,18.196988255543612,0.853671921132134,18.091482378353476
74.0,22.166128431944273,17.765910944020263,0.8525934536288181,18.02016594730625
75.0,22.97986784466258,17.36381098693734,0.8515148198869493,17.94962573461825
76.0,23.852944187903514,16.992722058085118,0.8504364694537795,17.879875655813134
77.0,24.779909245166333,16.65490954894863,0.8493588575647285,17.81092917154988
78.0,25.7532606692844,16.35287708287805,0.8482824450482475,17.742799286442484
79.0,26.763276520398723,16.08934989307858,0.8472076978974308,17.675498562454564
80.0,27.79788725733573,15.867261171641449,0.8461350870410398,17.609039119651218
81.0,28.842665788247313,15.689722789022284,0.8450650879761613,17.543432647229082
82.0,29.88089553341193,15.559986929366868,0.8439981804405707,17.478690410156606
83.0,30.893740635510447,15.481391487931184,0.8429348480208652,17.414823259315767
84.0,31.860563239306963,15.457294500949677,0.8418755778322,17.3518416364612
85.0,32.75939494958099,15.49098917305855,0.8408208601363713,17.289755583438733
86.0,33.56753921564673,15.585600162458334,0.8397711879521564,17.22857475090374
87.0,34.26231485209865,15.743960662774214,0.8387270566669071,17.168308406475223
88.0,34.82191595797578,15.968468511306208,0.837688963638883,17.10896544263407
89.0,35.22637869178969,16.260920812810184,0.8366574077986106,17.05055438411331
90.0,35.4585557516117,16.622334028817807,0.8356328892302074,16.99308339731541
91.0,35.50505141049491,17.052749092463525,0.8346159087526229,16.936560298469264
92.0,35.35703649502809,17.551030051486556,0.8336069674968263,16.880992562146577
93.0,35.01090560020141,18.114656268973075,0.8326065664814501,16.826387327546605
94.0,34.468619968634776,18.739531574951712,0.8316152061634885,16.772751406996424
95.0,33.73765952766814,19.419858982440772,0.8306333860248496,16.720091299452317
96.0,32.83088484285527,20.14798221234531,0.8296616040927294,16.668413191081786
97.0,31.765919846386563,20.91436442904063,0.828700356530113,16.617722968293393
98.0,30.564423648545514,21.707603918612588,0.8277501371691467,16.568026223625907
99.0,29.25118000966745,22.514566689061198,0.8268114370759938,16.519328264636524
100.0,27.85313890108344,23.32061997184332,0.8258847440900015,16.471634120768197
101.0,26.39843550044186,24.109997260690655,0.8249705423794657,16.424948551839833
102.0,24.915452434391206,24.86627905169924,0.8240693120088994,16.37927605641832
103.0,23.43191834575208,25.572987377748305,0.8231815284578404,16.334620877416477
104.0,21.97407316919726,26.214270924302053,0.8223076622164461,16.29098701170175
105.0,20.56587747753215,26.775651845230957,0.8214481783114632,16.2483782160272
106.0,19.22830671183136,27.244765489879114,0.8206035358789922,16.20679801464724
107.0,17.978772249215773,27.612029002706265,0.8197741877459203,16.16624970714747
108.0,16.830662316213935,27.871193706066045,0.8189605799596155,16.126736373981302
109.0,15.79315105914036,28.019644825927834,0.8181631514102449,16.088260884837652
110.0,14.871222463160539,28.058473132521435,0.8173823333880431,16.05082590464878
111.0,14.065979282720592,27.992249000995503,0.8166185491784839,16.01443390033854
112.0,13.375160259091507,27.828547462367588,0.8158722135693772,15.979087144681719
113.0,12.79398322119976,27.57722716710225,0.8151437326367629,15.94478772802221
114.0,12.315919196104563,27.249666278187085,0.8144335032139952,15.911537560212292
115.0,11.933560754812188,26.85794980920784,0.813741912544776,15.879338377521828
116.0,11.639388384879483,26.414150061438715,0.8130693379245866,15.848191748931471
117.0,11.426370092515892,25.929752306676985,0.8124161463225161,15.818099081198644
118.0,11.288381660102965,25.415261603108455,0.8117826940514766,15.78906162475734
119.0,11.22043968286382,24.879983716960975,0.8111693264332525,15.761080479124848
120.0,11.21877520240245,24.33195208378467,0.8105763774301141,15.734156597441764
121.0,11.28077351440776,23.777977364728574,0.8100041693491254,15.708290791648942
122.0,11.40482624706377,23.223769575271152,0.8094530125454443,15.683483737680092
123.0,11.590128122477342,22.674100831743075,0.8089232051268467,15.659735979630899
124.0,11.83643853193581,22.132981600137388,0.8084150327117386,15.637047935143528
125.0,12.143842803186542,21.60383122843389,0.80792876806704,15.615419897839063
126.0,12.512487795921624,21.08963668781857,0.807464670972933,15.594852043573264
127.0,12.942336341037171,20.593087132934848,0.8070229877704996,15.575344431796884
128.0,13.432917415589605,20.116689862597052,0.8066039514587956,15.556897012609168
129.0,13.98310091226857,19.662855671158482,0.8062077814047226,15.539509629140843
130.0,14.590871835331097,19.23396817135292,0.8058346829301208,15.52318201888802
131.0,15.253090338018037,18.832430436997036,0.8054848470912493,15.50791381756425
132.0,15.965330363683563,18.46068815347946,0.8051584510758286,15.493704566387013
133.0,16.721695088457594,18.121245076631528,0.8048556574890955,15.480553710310868
134.0,17.51470718138756,17.816659889318526,0.8045766143911355,15.468460601943674
135.0,18.33522949692078,17.54953013214224,0.80432145527988,15.457424505040814
136.0,19.172434661784184,17.322467364066608,0.8040902988664319,15.447444596136842
137.0,20.01387291782616,17.138062430644904,0.8038832490516722,15.43851996696198
138.0,20.84559700245445,16.998840440002304,0.803700394841282,15.430649626573967
139.0,21.652391016333628,16.90720642162378,0.8035418102755386,15.423832503056207
140.0,22.41808807457027,16.865380751618652,0.8034075544147623,15.4180674454237
141.0,23.125979473347847,16.87532408431634,0.80329767132202,15.413353225233942
142.0,23.759310654469786,16.93865126572843,0.803212190058882,15.409688538008403
143.0,24.30184907659997,17.056535027521672,0.8031511246971925,15.407072004499007
144.0,24.738500525720898,17.229600140617936,0.8031144743452753,15.405502171854003
145.0,25.0559559774918,17.45781035074673,0.8031022231667678,15.40497751435923
146.0,25.24330601099758,17.740354659233116,0.8031143404704977,15.405496434428219
147.0,25.292593905585218,18.075535176841004,0.8031507807870318,15.407057263335762
148.0,25.199274472706104,18.460663604403983,0.8032114839199772,15.409658261373604
149.0,24.962514246152985,18.891975330943627,0.8032963750431684,15.413297618219294
150.0,24.585286176118064,19.364580456165783,0.8034053649184291,15.41797345359006
151.0,24.07432718779492,19.87243337518597,0.8035383499098739,15.423683816314371
152.0,23.439864882793028,20.40835527646709,0.8036952122331049,15.43042668630121
153.0,22.69520542227652,20.964108206922827,0.8038758200468975,15.438199972305572
154.0,21.85617992809421,21.530521449054515,0.8040800276581149,15.447001512564343
155.0,20.940504994514978,22.09767736196398,0.8043076757168609,15.45682907395469
156.0,19.96710870047047,22.655151378441648,0.8045585914239061,15.467680351672554
157.0,18.955447070749244,23.19230482804081,0.8048325886868472,15.479552967993945
158.0,17.924848484485505,23.698620631677297,0.8051294684127795,15.492444471733588
159.0,16.893921681570284,24.164063097162146,0.805449018774603,15.506352337710114
160.0,15.880014159110836,24.5794534422074,0.8057910153618691,15.52127396474178
161.0,14.898777214666728,24.936817109820947,0.8061552215487856,15.537206675076742
162.0,13.963806462888021,25.229706496186825,0.8065413887037197,15.554147712831544
163.0,13.086399692134158,25.453442367595347,0.8069492564967986,15.572094242382667
164.0,12.27543499750561,25.605270700974053,0.8073785532258448,15.591043347393926
165.0,11.537347193951202,25.68442050417657,0.8078289960553344,15.610992028316005
166.0,10.876252605973196,25.69203365853448,0.8083002913978962,15.631937201324611
167.0,10.294165597048867,25.630997892255014,0.8087921352499325,15.653875696649635
168.0,9.791264742232894,25.505709317504696,0.8093042133086922,15.676804253976316
169.0,9.36631409747766,25.321717413281725,0.8098362016133377,15.700719523870955
170.0,9.017012757990996,25.08539634696154,0.8103877667985036,15.725618064368952
171.0,8.740381331081402,24.80360294520854,0.8109585663688483,15.751496338666007
172.0,8.53309705563094,24.483350941997198,0.8115482491105873,15.778350712449807
173.0,8.391780294017526,24.131547079328524,0.8121564554523828,15.806177451704785
174.0,8.313210085194592,23.754786355097522,0.8127828178365353,15.834972720202591
175.0,8.294468630036352,23.359211336989944,0.8134269610948528,15.864732576914083
176.0,8.333018740716634,22.95043115317766,0.8140885028286641,15.895452973345872
177.0,8.426723052242153,22.533491049331655,0.8147670537939979,15.927129750839725
178.0,8.573815871548904,22.112880879530884,0.8154622182887089,15.959758637850367
179.0,8.772839257623591,21.692572004744672,0.8161735945357502,15.993335246741946
180.0,9.022552844011477,21.27607125846412,0.8169007750961093,16.02785507168675
181.0,9.321831812096761,20.86648043929127,0.8176433471950872,16.06331348365257
182.0,9.66954325775743,20.466564847164243,0.818400893200435,16.099705729790774
183.0,10.064425943287892,20.078812621484808,0.8191729909563614,16.137026928371274
184.0,10.504975972944894,19.705493773864198,0.8199592142606186,16.175272068741933
185.0,10.989333426000945,19.348704881471356,0.8207591331474225,16.214436004295624
186.0,11.515152159305446,19.010409429645218,0.8215723142911251,16.254513448651398
187.0,12.079512315524301,18.692472172949067,0.8223983215178197,16.295498978658927
188.0,12.678824743128574,18.39667924434621,0.8232367160691656,16.33738702508337
189.0,13.308764892634503,18.12475466176684,0.8240870570301448,16.380171871111635
190.0,13.96422263961481,17.878368095720877,0.824948901711453,16.423847649405374
191.0,14.639260003886163,17.659134889535444,0.8258218060203556,16.468408337956053
192.0,15.327124028204217,17.468612435514267,0.8267053248389691,16.51384775696146
193.0,16.020273213015855,17.30828963128002,0.8275990123922725,16.56015956532088
194.0,16.710442372665458,17.179571799831756,0.8285024226119669,16.607337257142223
195.0,17.38874353108836,17.083761119315163,0.8294151094947859,16.655374158232434
196.0,18.045803476050356,17.02203288282234,0.830336627454843,16.70426342257418
197.0,18.67193723922632,16.99540768544529,0.831266531669614,16.75399802879178
198.0,19.257354149989546,17.004720280784174,0.8322043784191699,16.804570776609346
199.0,19.792391846798985,17.05058513938782,0.8331497254182922,16.855974283304015
200.0,20.267770764365597,17.133359420701847,0.834102132141119,16.908200980157197
201.0,20.67485975046345,17.253103999222855,0.835061160137991,16.961243108906615
202.0,21.005941130835858,17.40954388108165,0.8360263733441807,17.015092718201977
203.0,21.254462794046173,17.60202888612078,0.836997338380163,17.069741660068814
204.0,21.415258474992235,17.82949640339582,0.8379736248349229,17.125181586662443
205.0,21.484740483768956,18.090439019662416,0.8389548055527047,17.18140394672333
206.0,21.46104072260425,18.38287518675167,0.839940456920174,17.238399981433993
207.0,21.34410495779206,18.704322222847487,0.8409301591853692,17.29616071821671
208.0,21.135640225359055,19.051805094409072,0.8419234965561613,17.35467697472163
209.0,20.839117081544607,19.421848091844446,0.8429200575665837,17.413939350534573
210.0,20.459645237968488,19.81048861853548,0.8439194352789572,17.473938222932972
211.0,20.003810420764953,20.21331392488112,0.844921227540546,17.534663744379973
212.0,19.479453036427298,20.625513895272498,0.8459250371233178,17.596105841102002
213.0,18.89544308848601,21.0419431660307,0.8469304719963139,17.65825420748696
214.0,18.26141836308309,21.457206143656094,0.847937145496277,17.721098303589397
215.0,17.587522003171415,21.865755791322616,0.8489446765126263,17.784627351796104
216.0,16.88414386764734,22.26200581520045,0.8499526896623283,17.848830333549063
217.0,16.161674446161754,22.640452535696816,0.8509608154524405,17.913695986292986
218.0,15.430279881716201,22.995804017608332,0.8519686904254395,17.97921280012978
219.0,14.69969792692224,23.32310796892952,0.852975957308622,18.04536901494746
220.0,13.979064578946009,23.617876072546814,0.8539822651363113,18.112152617517925
221.0,13.276769912739756,23.876198255146498,0.8549872693731058,18.17955133828535
222.0,12.600342680490956,24.09484202129292,0.8559906320438669,18.247552647815187
223.0,11.956374165349901,24.271326754795187,0.8569920218187224,18.316143754515164
224.0,11.350475822986418,24.403973123522608,0.8579911140975983,18.38531160195609
225.0,10.787272663600106,24.491923168020847,0.8589875910844825,18.455042866156134
226.0,10.270422025177277,24.53513421342576,0.8599811418875938,18.525323952056002
227.0,9.802675753360775,24.534338375501164,0.860971462554104,18.596140991322716
228.0,9.385960438103373,24.490976724601637,0.8619582561294464,18.667479839921135
229.0,9.021484149086541,24.407111674795118,0.8629412326631304,18.739326076798292
230.0,8.709837634670755,24.28533329306714,0.8639201094204917,18.811664995512913
231.0,8.45115085264383,24.128635079658885,0.8648946106851184,18.88448160812209
232.0,8.2452060347882,23.94030401918123,0.8658644677872854,18.957760643717847
233.0,8.09154978367808,23.72381504206232,0.8668294191873549,19.03148654386708
234.0,7.989608575603655,23.482727812357727,0.8677892105926351,19.105643454849186
235.0,7.938787517623451,23.22059628385193,0.8687435947679913,19.18021523192476
236.0,7.938536045830589,22.940899319845663,0.8696923315037893,19.25518543885018
237.0,7.9883997695748095,22.64698536108695,0.8706351876353242,19.33053734467576
238.0,8.08806016910608,22.342027038608816,0.8715719371676841,19.406253915185026
239.0,8.237347730010878,22.02899939466954,0.8725023610744296,19.48231781636627
240.0,8.436232549541456,21.710670210506596,0.8734262472116854,19.55871141554374
241.0,8.684806610591139,21.3895979115567,0.8743433902898844,19.635416779237822
242.0,8.98325466741261,21.06813455381209,0.8752535919751954,19.712415665002563
243.0,9.33180457755465,20.74844311152354,0.8761566606944704,19.789689523818293
244.0,9.730670752049408,20.432516005847585,0.8770524115666395,19.867219499610577
245.0,10.180001537991844,20.122198567177797,0.8779406661663566,19.944986437165994
246.0,10.679806639538553,19.819203085955806,0.87882125290063,20.022970859113382
247.0,11.229875633335208,19.525137432683916,0.8796940065237777,20.101152981090166
248.0,11.829720149807827,19.241526093514057,0.8805587679449245,20.17951271836036
