Time,J,A,S,tau,r
0.0,1.0,1.0,0.6680680041000276,17.543859649122805,0.0
1.0,3.588093119546253,3.606819075229369,0.6670604007874894,17.409489628145565,3.350277024087098
2.0,7.628354867256236,6.1318402395171345,0.6660391521641884,17.272687114040792,3.3513165346090275
3.0,11.048339849448194,8.577363453158517,0.6650045053830873,17.133483988367132,3.352290907361187
4.0,13.290128783495948,10.945646457771604,0.6639566310531558,16.99190701301578,3.3532067634603644
5.0,14.363367136235967,13.238871722655956,0.6628957743396299,16.847989365087493,3.354061835467847
6.0,14.457899990495397,15.459167810517085,0.6618221555633924,16.70176204662826,3.3548566415366246
7.0,13.792525675222196,17.60860267031435,0.6607360059557014,16.553257563424363,3.3555909443889496
8.0,12.562010736069677,19.68918411977432,0.6596375804889699,16.402510464447698,3.3562640418761363
9.0,10.923870982418759,21.702870225013438,0.6585271036055128,16.24955330573793,3.3568763484604487
10.0,8.999637136066289,23.651558202225683,0.6574048386267852,16.094422406035203,3.357427146810008
11.0,6.880842188909561,25.53709435572711,0.6562710494276248,15.937153963135863,3.3579161548225396
12.0,4.635540930637604,27.361274382012166,0.6551260036891716,15.77778447825138,3.358343242141173
13.0,2.3139359901049983,29.125842680072534,0.6539699785437736,15.616351916337385,3.358708119687985
14.0,-0.047083419925071625,30.832495701594194,0.6528032507063988,15.452894648841667,3.359010617823883
15.0,-2.42048288932555,32.482875724590386,0.6516261112732546,15.287455743194098,3.3592498230835632
16.0,-5.0557503565279065,34.34477025937372,0.6515194149154622,15.278850605663749,3.3147705034855126
17.0,-9.217825560582098,37.671052885970816,0.6513376696079901,15.24991250968859,3.271542891655203
18.0,-13.165902967850739,40.737328909835625,0.6511483085697864,15.219683329468012,3.233261930582287
19.0,-16.332513554392147,43.006484176226,0.6509516488159887,15.188054125142763,3.199005872517834
20.0,-18.669281069747075,44.4492973034788,0.6507485287621475,15.155005756665185,3.1680370307121746
21.0,-20.292445563520875,45.19294460738479,0.6505403110686334,15.120640733947038,3.1397879764129533
22.0,-21.348930312283027,45.39084037050223,0.6503288785142746,15.085225285955687,3.1138484711669334
23.0,-21.970215337980683,45.17856359004706,0.6501165293602061,15.049210383705427,3.089937442274544
24.0,-22.260860526413353,44.663420080089594,0.6499057370348749,15.013201846959449,3.06786225521592
25.0,-22.300293615244854,43.926816139241254,0.6496989191415171,14.977876658938964,3.0474778448985047
26.0,-22.149497829552764,43.03128607346786,0.6494982349762496,14.94385568064358,3.0286584377333674
27.0,-21.856873004818098,42.02657853034903,0.6493054401791062,14.911605857761232,3.011275146701001
28.0,-21.461108068925288,40.95273045775098,0.649121924230186,14.881400542280236,2.9951812444351726
29.0,-20.991417128292685,39.84025128481788,0.6489485015861363,14.853338969804632,2.9802380266611563
30.0,-20.46811362573887,38.71089591311788,0.6487854802362425,14.827388494198997,2.96629308933414
31.0,-19.900631079993257,37.57582193941225,0.6486329324779512,14.803453451497209,2.9532120773604857
32.0,-19.279367390705993,36.42742914359193,0.6484904791500595,14.781371833899577,2.94087126615165
33.0,-18.620750885802273,35.284754318516235,0.6483577238533315,14.760987111127504,2.9291708336423525
34.0,-17.93775240211765,34.16340048777489,0.648234190455296,14.742150240335933,2.9180320315377983
35.0,-17.23507428279745,33.07085383952481,0.648119232154954,14.724700489467503,2.9073926289007375
36.0,-16.513087882814215,32.010350037771914,0.6480123389163007,14.70850917794341,2.897208260465262
37.0,-15.769917362958306,30.983184302890912,0.6479128893565449,14.693453917310817,2.88744261581775
38.0,-15.002771326798218,29.989846670578167,0.6478204062625386,14.679442282221482,2.8780700757829094
39.0,-14.20832914349034,29.030469441206616,0.6477343663642364,14.666385156814002,2.869066816147991
40.0,-13.383068072726507,28.105078864856857,0.6476543173702083,14.654207379933604,2.8604144582889504
41.0,-12.523462469715861,27.21370612637506,0.6475798646906352,14.642841443685418,2.852093736561066
42.0,-11.626019500144796,26.356442753181444,0.6475106283484524,14.632237091362974,2.844090465708346
43.0,-10.687599141849491,25.53351831955985,0.6474463197146745,14.6223507213355,2.8363885935312747
44.0,-9.705416488010004,24.74530536875889,0.6473866303462349,14.61314338340471,2.82897449799265
45.0,-8.677267459316338,23.99233487186471,0.6473313366993986,14.604583513147379,2.821833978748093
46.0,-7.60162990702331,23.27534675569902,0.6472802143114538,14.596644437328626,2.8149541912480736
47.0,-6.478125245543238,22.595464657354587,0.6472330917083521,14.589303458452418,2.808322059005838
48.0,-5.307465769485267,21.954052839154947,0.6471898084374035,14.582541383550792,2.8019254289853923
49.0,-4.091507493940391,21.352548996696616,0.6471502300087701,14.576342454212982,2.7957526424314323
50.0,-2.833425080117211,20.79249237259573,0.6471142462273681,14.570693953961225,2.7897927129064977
51.0,-1.5378668757906802,20.275536914438735,0.6470817642325339,14.565584790045143,2.7840349755448806
52.0,-0.21107982475539377,19.803446606091185,0.6470527075152708,14.561006694016317,2.77846958464041
53.0,1.1390223858519408,19.378084061863603,0.6470270102949368,14.556952651306782,2.7730872045668526
54.0,2.5028145999835845,19.001383583113867,0.6470046210895469,14.553417063162694,2.7678789602420375
55.0,3.8690123679508934,18.675315006303236,0.646985499768435,14.550395354486113,2.762836379393725
56.0,5.224782886679438,18.401828142290007,0.6469696122105506,14.547884015284891,2.7579515469163063
57.0,6.555913751867337,18.182812050042912,0.6469569358871665,14.545880316654939,2.7532169154301354
58.0,7.847111841636119,18.020019267730127,0.6469474475093602,14.544381731778063,2.7486253737539847
59.0,9.082308495831075,17.914986773571336,0.6469411316262836,14.543386901052518,2.7441703177553327
60.0,10.245108972664525,17.868972768131925,0.6469379722760821,14.542894195182445,2.7398455311232808
61.0,11.31923355160541,17.882845329946615,0.6469379707858144,14.542903811138165,2.7356452159403006
62.0,12.28916860824692,17.956958149934216,0.6469411149038972,14.543414840009376,2.731563731446121
63.0,13.1406321106436,18.091089870442094,0.6469474044720473,14.544426156783517,2.7275955767158386
64.0,13.861291441536077,18.284247573544487,0.6469568411604052,14.545940090340046,2.7237362907099936
65.0,14.441136696427273,18.534714521419545,0.6469694305800525,14.547954439160732,2.7199803542918333
66.0,14.873098365766136,18.839837293609754,0.6469851868368205,14.550471755266951,2.7163235748596173
67.0,15.153393764143232,19.196040266171906,0.6470041256536766,14.553493753634402,2.7127616039930205
68.0,15.28176048856881,19.598753581883862,0.6470262754944601,14.557023985491076,2.7092903342036614
69.0,15.261515210811954,20.042429688934696,0.647051663353372,14.56106492737598,2.705905693432519
70.0,15.099552329866977,20.520545362488836,0.6470803262800028,14.56562090384825,2.702603625803337
71.0,14.805987733179204,21.02568141571616,0.647112321504019,14.570697986982061,2.699380415350967
72.0,14.393873270105496,21.549601273658215,0.6471477188214433,14.576304035172024,2.6962321134300664
73.0,13.878652793147745,22.083454269153286,0.6471865952503142,14.58244797081531,2.693155011928696
74.0,13.277539447484667,22.617930545554657,0.6472290536242484,14.589140756746529,2.690145123607806
75.0,12.60887814183606,23.143512645940994,0.6472752249071538,14.59639663708966,2.6871983741413983
76.0,11.89160645895292,23.650668908992103,0.647325246565115,14.604233028227158,2.6843110019867606
77.0,11.14450616778046,24.13024103934561,0.6473792875312256,14.612670080800068,2.6814788650077586
78.0,10.38571764580617,24.573642020528215,0.6474375415985306,14.621731597225844,2.6786975486304634
79.0,9.632231286176848,24.97315369109929,0.6475002457834176,14.63144822009152,2.6759626984158076
80.0,8.899469406270887,25.322202401586395,0.6475676682004033,14.641854196035442,2.673269537747361
81.0,8.201060218473215,25.61550770430297,0.6476401061872912,14.652990603742278,2.6706132826500855
82.0,7.548599277918518,25.849251132837715,0.6477179054505151,14.664906765565224,2.6679889184014662
83.0,6.951598329178268,26.02111279206822,0.6478014505771948,14.67766073218398,2.6653915345669326
84.0,6.417504503179245,26.13032787573708,0.6478911617906993,14.691318603033219,2.662816151257286
85.0,5.951738288086498,26.177587274170715,0.6479875108080949,14.705960333844773,2.6602582543000426
86.0,5.55793814343027,26.164930199404616,0.6480909976243062,14.721676959855225,2.657714257436172
87.0,5.238124841979755,26.095554640667157,0.6482021558284677,14.738574270304929,2.6551819453468837
88.0,4.992971101290714,25.973635713015472,0.6483215373936335,14.756772055729103,2.65266103626817
89.0,4.82206107488334,25.80405424674148,0.6484497009768487,14.776404357869886,2.650153953802763
90.0,4.724210540282138,25.592130845009944,0.6485871743247568,14.79761605052983,2.6476663043443036
91.0,4.69778791003768,25.343327659041424,0.6487344022775087,14.820557550795662,2.645207265559603
92.0,4.740969076691601,25.06297689590222,0.6488917092721334,14.845371111045855,2.642788207253282
93.0,4.85203769836042,24.756010353730066,0.6490591946349616,14.872169319403044,2.6404209966803887
94.0,5.029432681576198,24.426845900429953,0.6492366433046994,14.901003802023647,2.6381154032351133
95.0,5.271514950740245,24.079645689773454,0.6494234324340213,14.931824604516786,2.635876234931748
96.0,5.57575444077471,23.719061705166144,0.6496184623899451,14.96443521740836,2.633701156600119
97.0,5.937880749668155,23.35104735003488,0.6498201704265999,14.998464591251151,2.6315793569593415
98.0,6.3517403375974535,22.98296594910444,0.6500265832967148,15.033383051793919,2.629494364028712
99.0,6.810563280123794,22.62235130303708,0.6502354247917311,15.068571192687171,2.6274274388797734
100.0,7.3087659824109075,22.27503254082221,0.6504442800001435,15.103427191258612,2.6253632197681327
101.0,7.842748960120654,21.94426643229522,0.6506508276126028,15.137460517432439,2.6232941696715986
102.0,8.410118348926837,21.63151093964221,0.6508530426704316,15.170339780795274,2.621224842997702
103.0,9.008287517687355,21.337766226050082,0.6510493688342062,15.201894822590859,2.6191705684478856
104.0,9.63379559333286,21.06425361608364,0.6512387371761211,15.232087821305447,2.6171541461826746
105.0,10.282248959512257,20.81249894402625,0.6514205445632494,15.260976299565922,2.6151992324678224
106.0,10.948557927612754,20.58408747894826,0.6515945973547023,15.288674540392325,2.6133237406423246
107.0,11.627151057398995,20.380537160329563,0.6517610285939365,15.315330635846642,2.6115383269613064
108.0,12.312138405013322,20.20313202957091,0.6519202473017238,15.341105876888458,2.609845533539351
109.0,12.99737788036374,20.052872112755367,0.6520728981145538,15.36616450158715,2.608241255749258
110.0,13.676468328178915,19.93060122392838,0.6522198196395179,15.39066790850372,2.6067168335409328
111.0,14.342779261012218,19.837011205766064,0.6523620185418323,15.414778956443252,2.6052616845146637
112.0,14.98929926304874,19.772889630335193,0.6525006555939589,15.438654786237962,2.6038636346307586
113.0,15.608730597092544,19.739121293977245,0.6526370295111625,15.4624547820484,2.602510462740342
114.0,16.193579695761507,19.736704082428147,0.6527725813590103,15.486342021368266,2.60118985604069
115.0,16.736349913916243,19.766689231847966,0.6529088908675156,15.510488096294722,2.5998893190400554
116.0,17.22974070904022,19.83008603744201,0.6530476820068394,15.535076630582536,2.598595695754332
117.0,17.667088736238888,19.927588924260192,0.6531908131640892,15.560312833426357,2.597295234301724
118.0,18.042517471063366,20.0594762900157,0.6533403022328624,15.586430485421038,2.595972949200239
119.0,18.35143374179525,20.225335384054148,0.6534983103278789,15.613700711013411,2.5946124212738235
120.0,18.590688779314004,20.423919396969907,0.6536671322710502,15.642447196099686,2.5931971440763273
121.0,18.759074928047994,20.65293381269346,0.653849163581298,15.673058175277424,2.591712150518736
122.0,18.857314558685406,20.909002498868052,0.6540468607451314,15.70600360875223,2.5901489221300933
123.0,18.888461854114247,21.18757104103532,0.6542625641611064,15.741841464658572,2.5885129575108987
124.0,18.858165274820433,21.482587714323888,0.6544982804287236,15.781206055663892,2.586831057457975
125.0,18.776504748402836,21.784669442980224,0.6547552159804533,15.824743204241711,2.5851533652667866
126.0,18.660271408030113,22.07867484518794,0.6550330496107563,15.872927950088728,2.583538352933045
127.0,18.52977039299287,22.346432191355127,0.6553289973233154,15.925723226142107,2.582022684664468
128.0,18.393467587203293,22.5819691794671,0.6556372991630322,15.982120685346676,2.5805967929645717
129.0,18.23509844312602,22.80410240732937,0.655950013143024,16.039942834199863,2.579210473355747
130.0,18.027273235305138,23.043286806661946,0.6562584853832393,16.096491908362328,2.5777985594572743
131.0,17.75833733140587,23.314310466218327,0.6565546148459915,16.149717325002168,2.576319329960252
132.0,17.440645046116146,23.60791921614135,0.6568326067895891,16.198736213659192,2.574778232389295
133.0,17.094759467209872,23.906441069668656,0.6570897299442636,16.243577532471775,2.573223334597238
134.0,16.736928331181225,24.196493959902515,0.6573257757810164,16.28474592515608,2.5717133532370364
135.0,16.37887200110828,24.469631525478047,0.6575421358658875,16.32289816714527,2.570288316203376
136.0,16.030100500593,24.719950757090697,0.657741167485344,16.358687399707183,2.5689612791735166
137.0,15.69883751412863,24.943205870655873,0.6579257420796988,16.392702586502455,2.5677245729776086
138.0,15.390908796570075,25.137563248402056,0.6580990417989129,16.425464226014824,2.5665595549757128
139.0,15.1102413451164,25.30307542617909,0.6582644410235742,16.4574395865273,2.565443621866874
140.0,14.85952416316856,25.440809081589187,0.6584254392048031,16.489061307301057,2.564353719621206
141.0,14.6401699276376,25.552793884113722,0.6585856335079445,16.520744531160872,2.563266795880122
142.0,14.452780667577132,25.64153076261566,0.6587487276983953,16.552916323793184,2.5621601319432274
143.0,14.2975484415838,25.70962023327471,0.6589185269419617,16.58603686865497,2.5610106890757294
144.0,14.174739059247752,25.759234119421997,0.6590989355901526,16.620627681232584,2.5597955928228355
145.0,14.085298554439145,25.791694063526197,0.6592939241390908,16.65730514168202,2.5584951401626497
146.0,14.03087276926856,25.807411461329504,0.6595074370738307,16.69681639119348,2.557100345462834
147.0,14.014302817189954,25.805810158298883,0.6597431301515534,16.740062045761643,2.5556252058423072
148.0,14.040865960963519,25.784117604970092,0.6600039062041507,16.788075589199007,2.554118128940955
149.0,14.123051808301517,25.732664988344947,0.6602908368362504,16.841860156249677,2.5526563373911344
150.0,14.284421142571263,25.630512101524427,0.660601481043365,16.90192780206081,2.5513053197928315
151.0,14.541297695511698,25.463097685092812,0.6609282466417461,16.96743811197774,2.5500685134478847
152.0,14.865260459850223,25.259656965896916,0.6612598595208868,17.035340345299797,2.5488817042185095
153.0,15.196813557799427,25.080146478698435,0.6615846798131175,17.101215059787577,2.5476558190829124
154.0,15.508361218985728,24.95246529297253,0.661891524905546,17.161907780015298,2.546329427533685
155.0,15.816657810320013,24.859308482527087,0.6621728030166057,17.216493430112994,2.544905332543138
156.0,16.14051326231485,24.78035230512666,0.6624262042308169,17.26545237559217,2.543442498612458
157.0,16.485763701465572,24.707985251464585,0.6626530434997077,17.30978427640578,2.5420080824639526
158.0,16.851994104602195,24.640906036672042,0.6628565392703772,17.350537995595666,2.540641290803214
159.0,17.237276252524087,24.579575332184135,0.6630407249573308,17.388640016315694,2.539349605879181
160.0,17.63938978913843,24.52483573353343,0.6632099990443279,17.424873581632806,2.5381200267149953
161.0,18.055867022467357,24.477686600550594,0.6633688702363293,17.459907432040527,2.5369307761788
162.0,18.48303724303967,24.440216244494977,0.6635218331520205,17.49433024468478,2.5357576838271285
163.0,18.916768987712235,24.41479555232005,0.6636733458104118,17.52869085496452,2.5345768365570387
164.0,19.35337771262393,24.268603958751534,0.6638278139569759,17.563536598757192,2.5333315096883546
165.0,19.824905130391425,23.8858724941685,0.6639896284224188,17.599443859795638,2.53196793153115
166.0,20.35983310120151,23.34058382038971,0.6641631451472569,17.637065012499047,2.530483161391661
167.0,20.97550493246746,22.70918661703449,0.6643525814518688,17.677167529581133,2.528885392344499
168.0,21.685736801188224,22.026500773234787,0.6645618699428861,17.720670088764454,2.527192957754436
169.0,22.50499599302058,21.312750757660503,0.6647942205188214,17.76864705180612,2.5254519282254364
170.0,23.45367003666937,20.577585893807065,0.6650512199294674,17.82222017095113,2.523733998732138
171.0,24.568693247658945,19.80678155008837,0.6653310662961177,17.88219710667106,2.522103278624299
172.0,25.89028220119579,18.975608999799277,0.6656264359057289,17.948290129636646,2.52056880064525
173.0,27.39844797071557,18.112580218103734,0.6659260366399155,18.017893364982168,2.5190786974061945
174.0,29.016063991571567,17.299144171593174,0.6662204053089411,18.086089842152248,2.5175541984214864
175.0,30.68513197892323,16.592105694229755,0.6664996479605977,18.148889225241753,2.5159287407033477
176.0,32.40971760990011,15.981942311914256,0.6667548774114644,18.205057597053628,2.5141813140122062
177.0,34.21810339295571,15.434482576960134,0.6669826025223826,18.255047518947407,2.5123454164549757
178.0,36.12315183701124,14.930964224717082,0.6671836870653556,18.29991723777192,2.510479345445024
179.0,38.12469230674023,14.46466625449395,0.6673611564843953,18.340788659890674,2.5086291154515727
180.0,40.217451246355466,14.032080365741994,0.6675188953852089,18.37864490875371,2.5068147784504005
181.0,42.39470459246687,13.631518312105056,0.6676610434264267,18.4143013504426,2.5050362169681684
182.0,44.64971219035763,13.260476059423109,0.6677916796571455,18.4484290378352,2.5032819500179224
183.0,46.96169036447443,12.928975909669044,0.6679148297893813,18.481595759719657,2.5015365237830673
184.0,49.29488270978597,12.655280323187343,0.6680342469716322,18.514304325965323,2.499783602779683
185.0,51.61378425827187,12.451568924410882,0.6681535771281548,18.547020917202765,2.4980075877251364
186.0,53.88622811951261,12.323135892216083,0.6682761976383207,18.580213706830307,2.4961946020013155
187.0,56.0818764989783,12.272967454261138,0.6684055023221139,18.61436389965919,2.494334121436159
188.0,58.1723333233017,12.301014230841218,0.6685444903304048,18.650010691218544,2.492421030351793
189.0,60.13219532773906,12.404790560176249,0.6686960247479667,18.687764785989568,2.490460433047086
190.0,61.94144165258345,12.57684982041287,0.6688625864705393,18.728317339451152,2.4884723220192986
191.0,63.58962303936746,12.80263028720632,0.6690458349152048,18.772437046596323,2.4864933201859665
192.0,65.08245624572136,13.052778057102065,0.6692461006369443,18.820879681304483,2.484566391075266
193.0,66.43706061008388,13.28975215971263,0.6694611578938285,18.8741854381878,2.4827206925227827
194.0,67.64685031834941,13.501221169909996,0.6696847014802019,18.932299901029122,2.4809531606683217
195.0,68.65961590342657,13.723709530010137,0.6699081541842317,18.993791215349155,2.4792302806699844
196.0,69.42452229545994,13.995955262370515,0.6701271345261611,19.055149944564167,2.477506270534066
197.0,69.91213626294368,14.34161908819046,0.6703390278421174,19.112651246733456,2.4757387730147293
198.0,70.10989133706795,14.772973612296921,0.6705376336635471,19.16469623633761,2.473899597621668
199.0,70.02688682558625,15.282431226212351,0.6707177084564483,19.211296290949004,2.4719834807710814
200.0,69.69283908691096,15.844188708655984,0.6708777182576381,19.253064384683285,2.4700082763016264
201.0,69.14067934831043,16.43156275860606,0.6710185802110307,19.29078630051103,2.4680028164397587
