Time,J,A,S,tau
0.0,100.0,10.0,0.9297723905885642,20.641463881674497
1.0,99.97520790897383,9.0376429361368,0.9295647243359099,21.639621368162093
2.0,99.95095730765587,8.167828151017078,0.9293612104499742,22.638081558629132
3.0,99.92730840334261,7.381901772182517,0.9291616585134717,23.636655544132086
4.0,99.9042182789804,6.671758196334901,0.9289658493914685,24.635330800697915
5.0,99.88164690456959,6.030072797605491,0.9287735697689274,25.63409626427022
6.0,99.85955682940867,5.450232200103992,0.9285846120769361,26.63294213745385
7.0,99.83791292042761,4.926265912618113,0.9283987743945163,27.631859727602873
8.0,99.8166821133602,4.4527771035361035,0.9282158602641573,28.630841299099806
9.0,99.79583320373284,4.024896242873073,0.9280356785064103,29.6298799513524
10.0,99.77533665634914,3.6382218870534415,0.9278580429992365,30.628969511121543
11.0,99.75516442885433,3.2887803271376947,0.9276827724164574,31.62810443674497
12.0,99.73528982353717,2.9729805189157408,0.9275096899877157,32.62727973906964
13.0,99.71568734025507,2.687579449812931,0.927338623199156,33.62649090720022
14.0,99.69633255610862,2.4296472596617926,0.9271694035352757,34.6257338486452
15.0,99.67720200206954,2.1965368515644657,0.9270018661615937,35.625004831586516
16.0,99.65827306267649,1.9858575514356185,0.9268358496551151,36.624300438716574
17.0,99.63952387113832,1.7954484234318668,0.9266711956805669,37.6236175218613
18.0,99.6209332231821,1.6233584916122323,0.9265077487129122,38.62295316548515
19.0,99.60248048652034,1.4678235784085119,0.9263453557149173,39.622304650478334
20.0,99.58414552443735,1.3272513013824334,0.9261838658533782,40.6216694243648
21.0,99.56590861617174,1.200201336862806,0.9260231301823321,41.621045071726314
22.0,99.54775038695708,1.0853738211812922,0.9258630013541764,42.62042928890774
23.0,99.52965173627165,0.9815928076183782,0.9257033333099676,43.61981985900464
24.0,99.51159377184341,0.8877971086806528,0.9255439809866329,44.61921462936864
25.0,99.49355774298552,0.8030266284015792,0.9253848000137437,45.61861148939551
26.0,99.47552497658492,0.7264149718963195,0.9252256464181946,46.618008349447244
27.0,99.45747681289436,0.6571783007645942,0.92506637632551,47.61740311986399
28.0,99.43939454181239,0.5946092408129411,0.9249068456636103,48.61679369008535
29.0,99.4212593385463,0.5380679070600403,0.9247469098660183,49.61617790738036
30.0,99.40305219859445,0.4869767840301216,0.9245864235766079,50.61555355499314
31.0,99.3847538706297,0.4408135856331077,0.9244252403519923,51.614918329043
32.0,99.36634478852406,0.3991068822680571,0.9242632123694491,52.614269814446786
33.0,99.34780499862275,0.3614304907397628,0.92410019012629,53.613605458280205
34.0,99.32911408689792,0.32739969127619956,0.9239360221535178,54.61292254203215
35.0,99.31025109747426,0.2966668777105786,0.9237705547111564,55.61221814942529
36.0,99.29119445253157,0.2689182546139266,0.9236036315106622,56.61148913321072
37.0,99.2719218584828,0.24387051438333318,0.9234350934071444,57.61073207499736
38.0,99.25241021550453,0.22126793664922806,0.9232647781342451,58.60994324425143
39.0,99.23263550713212,0.20087989239826662,0.9230925199970804,59.609118547050294
40.0,99.21257269515566,0.18249829895204997,0.9229181496242816,60.608253474119216
41.0,99.19219558759413,0.1659357648658752,0.9227414936697156,61.60734303458498
42.0,99.1714767130163,0.15102338909689192,0.9225623745880192,62.60638168864575
43.0,99.15038716069867,0.13760937925723477,0.9223806103584781,63.60536326124338
44.0,99.12889642621727,0.1255571911493637,0.9221960142938347,64.60428085323754
45.0,99.1069722158024,0.11474449437942694,0.9220083948059643,65.6031267282672
46.0,99.08458025213648,0.10506163652349543,0.9218175552638037,66.60189219391978
47.0,99.0616840323259,0.09641087068631013,0.9216232938283672,67.60056745274838
48.0,99.03824457983843,0.08870510592485989,0.921425403386629,68.59914144212566
49.0,99.01422013738987,0.08186738688923796,0.9212236714862402,69.59760163476192
50.0,98.98956585377597,0.0758299011768179,0.9210178803984825,70.59593382589537
51.0,98.96423338017557,0.07053358865491159,0.9208078071900851,71.59412185960046
52.0,98.93817047437486,0.06592747693138135,0.9205932239802237,72.59214734691906
53.0,98.91132047749313,0.061968374091325065,0.9203738982337515,73.58998929647234
54.0,98.8836217659171,0.058620565000371036,0.9201495932589657,74.58762371367997
55.0,98.8550071119833,0.05585559091280473,0.9199200688636904,75.5850231276495
56.0,98.82540293810523,0.05365215198710039,0.9196850822140799,76.58215603227325
57.0,98.79472847091773,0.05199608548380986,0.9194443889491136,77.5789862419833
58.0,98.76289472933911,0.05088076315769754,0.9191977445960178,78.5754721148959
59.0,98.72980329431961,0.05030734414422154,0.9189449064095755,79.57156559931006
60.0,98.69534525466891,0.050284568039158796,0.9186856354766219,80.5672113774208
61.0,98.65939938051336,0.0508300292867315,0.9184196995493673,81.56234544143601
62.0,98.6218305797648,0.05197047782206137,0.9181468762249637,82.55689383164129
63.0,98.58248769341463,0.05374293073754932,0.9178669570627132,83.55077086478363
64.0,98.54120109599727,0.056195920705466994,0.917579752475847,84.54387717462018
65.0,98.49778002427783,0.05939068590405099,0.9172850974450429,85.53609750933984
66.0,98.45200928568018,0.06340288576529347,0.9169828585639168,86.52729801593003
67.0,98.40364550526313,0.0683248095992428,0.9166729423654172,87.51732312038045
68.0,98.35241289022122,0.0742673416127472,0.9163553050159577,88.50599198166464
69.0,98.29799821906188,0.08136295281818452,0.9160299638941822,89.49309428635497
70.0,98.24088309505876,0.09109471111573877,0.9156970112849439,90.47838533930546
71.0,98.18546868807984,0.11044257035054007,0.9153566298436976,91.46158062090953
72.0,98.1273524061399,0.1325562744239457,0.9150091109873921,92.44234932520793
73.0,98.06636654507054,0.15787140477277234,0.9146548756669074,93.42030714477016
74.0,98.0023445276325,0.1868929951246931,0.9142944981124296,94.39500806234082
75.0,97.93512622060595,0.22020571950974696,0.9139287324509044,95.3659351966745
76.0,97.86456531266246,0.2584850542929437,0.9135585420625298,96.33249074212247
77.0,97.79053932173598,0.3025094264502497,0.9131851316725047,97.29398498048509
78.0,97.71296287189183,0.35317310034069255,0.9128099815348663,98.249624572956
79.0,97.63180500824232,0.41149933256238636,0.9124348824654092,99.19850053503343
80.0,97.54711144057417,0.47865344484577776,0.9120619707012704,100.13957618775571
81.0,97.45903253369534,0.5559550996395637,0.9116937606132334,101.0716757033899
82.0,97.36785776488465,0.6448885294644543,0.9113331718981266,101.99347433748203
83.0,97.27405728634454,0.7471096571991723,0.9109835482308414,102.90349127166776
84.0,97.17833055799373,0.864448467549507,0.9106486628430139,103.80008651044822
85.0,97.0816613576575,0.9989048088658379,0.9103327059693461,104.68146343842841
86.0,96.98537725345436,1.1526358209449816,0.9100402490628108,105.54567863662396
87.0,96.89120986615873,1.3279328787836033,0.9097761799841045,106.39066084235529
88.0,96.8013503315017,1.5271868461388451,0.9095456055978159,107.21424013833426
89.0,96.71849164973781,1.75284062209919,0.9093537189583571,108.01418831056114
90.0,96.64584748334548,2.0073292880236653,0.9092056317532923,108.78827013707674
91.0,96.58713352109298,2.293009819118905,0.909106177438912,109.53430395188771
92.0,96.54649942598788,2.6120830486237887,0.9090596920669068,110.25022908600039
93.0,96.52839618617793,2.966513670851663,0.9090697893305554,110.93417519099555
94.0,96.53736895090515,3.357952774377317,0.9091391413714686,111.58452941924699
95.0,96.57777361996294,3.787672937991911,0.9092692942633672,112.19999276331926
96.0,96.65342087150238,4.256517399270464,0.9094605212672962,112.7796239836506
97.0,96.76718009285848,4.7648755185830165,0.9097117495927337,113.3228607286931
98.0,96.92044792425789,5.312652435049458,0.9100204627713762,113.8295445868791
99.0,97.1128516294385,5.899330297554711,0.9103828737531299,114.29986829046908
100.0,97.34180461984384,6.523978871998671,0.9107939409837379,114.734364767288
101.0,97.60218665929602,7.185310686332043,0.9112475123572467,115.1338579015241
102.0,97.8862189768585,7.8817535184819745,0.9117365208063307,115.49939832787284
103.0,98.1835367602325,8.61152159685499,0.9122531763080379,115.83220060261318
104.0,98.48138248457954,9.372679880168805,0.9127891378203411,116.13358614807287
105.0,98.76495393744965,10.163206052247713,0.9133356759005309,116.40492774473468
106.0,99.01798732373547,10.981047413258088,0.9138838263876894,116.64759896037766
107.0,99.2234612611526,11.824164097609529,0.9144245080633229,116.8629361029182
108.0,99.36430398942412,12.690560722068057,0.9149486065283389,117.05220989111658
109.0,99.42417011562065,13.578311682298567,0.9154470377172123,117.21660224566855
110.0,99.3881978353815,14.485576501233467,0.9159107875713033,117.35719187510915
111.0,99.24359591684001,15.41060484842031,0.9163309273057918,117.4749497757319
112.0,98.9800940113414,16.351737691857547,0.9166986152559482,117.5707375869677
113.0,98.59027442447449,17.30740514513318,0.9170050888091958,117.6453085778679
114.0,98.06982011483075,18.27612296378269,0.9172416475234307,117.6993087533827
115.0,97.41725063806182,19.25647809947541,0.9173996263653461,117.73329030165148
116.0,96.63374240787952,20.247120802592566,0.9174703746401894,117.74771825473174
117.0,95.72304086419217,21.246760675611696,0.917445223915374,117.74296939911599
118.0,94.96581432898748,21.981132095850082,0.9332812201255508,42.83207642103712
119.0,94.17206210253906,22.665673454233158,0.9373346780932328,31.574742153825344
120.0,92.91288946077466,23.71790643666545,0.937593683132304,28.02493217714758
121.0,91.30870087136792,25.011471248119108,0.9368615419443691,25.947240441607565
122.0,89.42490409051665,26.482847654331817,0.9356128844431116,24.501551596850522
123.0,87.32346471632499,28.076767202052018,0.9340248407069552,23.40246455850071
124.0,85.0681241253532,29.738759124599916,0.9321840119453658,22.51891819521882
125.0,82.72312136506581,31.414522371862883,0.930139470219192,21.780160952796837
126.0,80.35032699819422,33.05143081329684,0.9279217624482115,21.14392688972578
127.0,78.00624283499937,34.60081155896335,0.9255511950017938,20.583155043520915
128.0,75.73945565496084,36.020308909747065,0.9230419389019648,20.079637675797915
129.0,73.58881426575488,37.27586327956248,0.9204042680593362,19.62066128279286
130.0,71.58232007767337,38.34311213677088,0.9176458563556362,19.19710805565535
131.0,69.73697142305086,39.20785693244922,0.9147726034292363,18.802282544127863
132.0,68.05930985097001,39.86576479526685,0.9117891574210245,18.431186406722393
133.0,66.54668061075925,40.32128830604039,0.9086992749000808,18.080033651682875
134.0,65.18896280383721,40.58605133572899,0.9055060733643966,17.745925227622884
135.0,63.970379161115126,40.67711934027964,0.9022122195918771,17.426606655788866
136.0,62.85321584683192,40.63327038524387,0.8988200572340493,17.120315041282616
137.0,61.82788134507431,40.46494137256819,0.8953317177876334,16.82565912022366
138.0,60.89725664235968,40.17015724805493,0.8917492013524678,16.541529199767833
139.0,60.04732023369391,39.763845720099425,0.888074439427767,16.267031281480474
140.0,59.256746187484275,39.26817185196428,0.8843093459585514,16.001438827409554
141.0,58.50343119961086,38.7059939498591,0.8804558589299276,15.74415507084078
142.0,57.76856227969948,38.09681319895873,0.8765159742567467,15.494684513166622
143.0,57.038123447941,37.455301862074506,0.8724917730503043,15.25261088536288
144.0,56.30263556590676,36.791601206200795,0.8683854438244716,15.017580297672938
145.0,55.55612920104588,36.11238105725578,0.8641993012587238,14.789288182127235
146.0,54.795047250237126,35.42196172035286,0.8599357989287614,14.567468964456703
147.0,54.017390786355406,34.72318404296223,0.855597541372958,14.35188814723606
148.0,53.22216518063949,34.01798132218796,0.8511873038518096,14.142337243458583
149.0,52.40896237857478,33.30780070584746,0.8467080109337302,13.938626662752467
150.0,51.577808784919426,32.59375911985179,0.8421627781574871,13.740584141415642
151.0,50.7290250993391,31.87680924647141,0.8375548832580771,13.548050789357545
152.0,49.86309792869785,31.15783664569389,0.8328877918212464,13.360878685951972
153.0,48.98071304750388,30.43767648079453,0.8281651224351532,13.178929135335416
154.0,48.08270521511711,29.717128300075295,0.8233907122410971,13.00207216420033
155.0,47.170065513470774,28.996970729249067,0.818568495963684,12.830182879269076
156.0,46.24395181123652,28.277970774841805,0.8137026635238852,12.663144357464187
157.0,45.305633390729106,27.560890923741706,0.8087974633202157,12.500842450024182
158.0,44.35656889346829,26.846501918393912,0.8038574017592768,12.343169928320277
159.0,43.39829936059628,26.13557411123279,0.7988870301247661,12.190021416863521
160.0,42.43257277264002,25.428895794314325,0.7938911244090492,12.041297253832346
161.0,41.461213749850344,24.72725985261531,0.7888745298700328,11.896899732999902
162.0,40.48623240856177,24.031476621341216,0.7838422372582367,11.756735242260952
163.0,39.50972962648884,23.342366267531617,0.778799319776294,11.620712437425663
164.0,38.53396744370371,22.660774718460488,0.7737509800352855,11.488743621720698
165.0,37.56127892535209,21.987557749317773,0.7687024688233591,11.360742987263311
166.0,36.594127419481424,21.32360767970344,0.7636591464646085,11.23662811287798
167.0,35.63500807958996,20.66982929262285,0.7586263962057046,11.116318341025577
168.0,34.68649396579891,20.027175662930905,0.7536096846143012,10.999736091089998
169.0,33.75112291216881,19.396617388181273,0.7486144784344879,10.886805567378094
170.0,32.83143924235574,18.77918356678685,0.7436462988206578,10.777453712714294
171.0,31.929849089637827,18.17592733492657,0.7387106448118022,10.671609360242693
172.0,31.048680717011596,17.587965655798797,0.7338130410377506,10.569203736578032
173.0,30.18998623033591,17.016444405176923,0.7289589670818433,10.470170100742022
174.0,29.35565234351943,16.462572361612988,0.7241539017583136,10.374443814626519
175.0,28.547153786757132,15.927583578616575,0.7194032581857428,10.281962321635458
176.0,27.765640959097315,15.412746660502345,0.7147124093025531,10.192664917847576
177.0,27.011826393099977,14.919360778875282,0.7100866602390634,10.106493087329921
178.0,26.28592667692619,14.448713093022008,0.7055312360681011,10.02339008985565
179.0,25.587736959683415,14.00208857021229,0.7010512860817982,9.94330108239736
180.0,24.916493755520147,13.580712541836814,0.6966518488174922,9.866173213662766
181.0,24.270985587272982,13.185735572210534,0.692337867621026,9.791955265473854
182.0,23.64961067817043,12.818200735608746,0.688114166584075,9.720597965024727
183.0,23.050330237367117,12.478974127810025,0.6839854400529936,9.652053766511466
184.0,22.470891127190757,12.168752664621918,0.6799562644659514,9.586276748497033
185.0,21.90886246091726,11.887966510412857,0.6760310603316922,9.52322286907452
186.0,21.36169975950853,11.636781024201719,0.672214114020691,9.46284959978448
187.0,20.82701519755538,11.415063664244826,0.6685095591430426,9.405116100586449
188.0,20.302530943580134,11.222317454790458,0.6649213614348278,9.349983211915829
189.0,19.78623470708243,11.0577407054865,0.6614533425658298,9.297413201817085
190.0,19.27657535542177,10.920159477912938,0.6581091385291028,9.24737005767524
191.0,18.7723089451725,10.80809076196867,0.6548922282523022,9.199819180476577
192.0,18.272666947093185,10.719753629682673,0.6518059144072536,9.154727500305436
193.0,17.77735283474577,10.653121093478994,0.6488533231915287,9.112063420391937
194.0,17.286489410312107,10.605972748364795,0.6460374008249697,9.071796807066836
195.0,16.800572270913836,10.575964199238653,0.6433609153669748,9.033898938452193
196.0,16.320414556560955,10.560693374282534,0.6408264556367991,8.998342478858163
197.0,15.847082891567492,10.557766773818246,0.6384364283205821,8.965101463827915
198.0,15.381809729361224,10.564865360434306,0.6361930547215267,8.934151299232699
199.0,14.9259089146157,10.57980003197181,0.6340983749611695,8.9054687139363
200.0,14.480713651909545,10.600554737493715,0.6321542484050564,8.879031730832258
201.0,14.047514794256314,10.625321121772425,0.6303623530511421,8.854819648296822
202.0,13.62750302663113,10.652526214492687,0.6287241819121743,8.832813042084513
203.0,13.221723720496222,10.680840932050852,0.6272410478534809,8.812993734158702
204.0,12.831054605098947,10.70917867273324,0.6259140857177051,8.795344756535274
205.0,12.456187369857785,10.736687984328167,0.6247442547674442,8.779850332230845
206.0,12.097618174319825,10.762743508661888,0.6237323303517174,8.766495869297788
207.0,11.755634706067147,10.786930288994354,0.6228789075950868,8.75526800287238
208.0,11.430364580167817,10.808991116171956,0.6221844339971832,8.746154342280954
209.0,11.121716375997014,10.828860091614686,0.6216491276231121,8.739143920121782
210.0,10.82949542082879,10.846557506560647,0.6212730948881671,8.734226486856866
211.0,10.553318486132314,10.862243738341729,0.6210562206238763,8.73139328243349
212.0,10.292724544959702,10.876132389163576,0.620998265072821,8.73063625892779
213.0,10.047125710835079,10.888513169853518,0.6210987749280906,8.731948775757385
214.0,9.815885042316694,10.899699502632798,0.6213571671478424,8.73532490869951
215.0,9.598291240177048,10.910033874127064,0.6217726667113608,8.74076001526439
216.0,9.393600361731819,10.919862338629523,0.6223443582369645,8.748250312124854
217.0,9.201051056231922,10.929523717960885,0.6230711389185586,8.757793080316748
218.0,9.019866362883228,10.939343111996967,0.623951758724896,8.769386590689628
219.0,8.849279726780345,10.949623800256873,0.6249848072099896,8.783029998481727
220.0,8.688536834294935,10.960639683308873,0.6261687011375413,8.798723536211746
221.0,8.5369000567006,10.97263861672522,0.6275017223645449,8.816468253388981
222.0,8.393671350600297,10.985832266349638,0.628981973604038,8.836266197845225
223.0,8.258174386159643,11.000402810812412,0.630607418879243,8.858120319967307
224.0,8.12977810380925,11.016500657838295,0.6323758679261262,8.882034399901507
225.0,8.007889555329804,11.034243465552777,0.6342849694246674,8.908013209191838
226.0,7.8919513249797,11.053723966751626,0.6363322437965782,8.936062270426673
227.0,7.781458977861182,11.075005117339549,0.6385150445300647,8.966188039086154
228.0,7.67593892173034,11.098128342097668,0.6408305969465317,8.998397788085846
229.0,7.574967193432871,11.12311359747146,0.6432759831250873,9.032699566817003
230.0,7.478158578031588,11.149961363431977,0.6458481398847381,9.069102328284746
231.0,7.385162232948789,11.178658401412136,0.6485438891306822,9.107615707046293
232.0,7.29567849187083,11.209175954678212,0.6513598969988114,9.14825023004848
233.0,7.209428828811606,11.24147684573877,0.6542927318353413,9.191017085749712
234.0,7.126187469239561,11.275513725604343,0.657338812878249,9.235928303311702
235.0,7.045743462385121,11.311234514839406,0.6604944715631024,9.282996550751978
236.0,6.967938160699116,11.348581825295083,0.663755894965599,9.332235341080295
237.0,6.892620685403147,11.387496479535148,0.6671192043371585,9.383658692632425
238.0,6.819690734762487,11.42791854308341,0.6705803715327723,9.437281606727534
239.0,6.749057219752593,11.469787845740175,0.6741353278745679,9.493119355057125
240.0,6.6806587189207285,11.513047381916964,0.6777798717609363,9.551188262082063
241.0,6.61447105535947,11.557643758333205,0.6815097336321967,9.611505135767763
242.0,6.550460431110301,11.603522865034666,0.6853206053981244,9.67408704777488
243.0,6.488637172916441,11.65064214921857,0.6892080509175743,9.738952329933678
244.0,6.429037834917716,11.698964549269384,0.6931676071875789,9.806119661331687
245.0,6.371695873651739,11.748452936135317,0.6971947955016539,9.87560780960466
246.0,6.316655126568729,11.799079504075117,0.7012850398924296,9.947436548043619
247.0,6.2639940551716595,11.850828464566977,0.7054337543448469,10.021626272689408
248.0,6.21379019672201,11.903684266633798,0.7096363405331337,10.098197439583446
249.0,6.1661288915689205,11.957641201822339,0.7138881518723945,10.177171275365072
250.0,6.121121583210431,12.012706278418522,0.7181845720749706,10.258569582050768
