Time,J,A,S,tau,r
0.0,1.0,1.0,0.9999509236153988,9.090909090909092,0.0
1.0,2.475795771740179,5.5086057374560795,0.9961632846366423,8.98348730866918,0.05541541655592037
2.0,6.486618241279719,9.912533239728576,0.9923019166276533,8.873070908780365,0.055383630436818834
3.0,9.965685580894364,14.213275986648231,0.9883670150170759,8.759703286219619,0.05534936367087611
4.0,12.184939797401542,18.41231166553885,0.9843591655139056,8.643426909270534,0.055312632385364734
5.0,13.140672509916705,22.51109559711972,0.9802786975387998,8.524284956224836,0.055273436724671755
6.0,13.020005152982558,26.511049798813325,0.9761260569200985,8.402324058088114,0.05523175058819835
7.0,12.03190460526361,30.413581909071567,0.9719018904997914,8.277589977245738,0.05518757326189099
8.0,10.359637061129261,34.22007312448065,0.9676069504308411,8.150130883289311,0.05514089452543242
9.0,7.970807539155629,38.110266042292494,0.9669050622046635,8.221416895559031,0.05249269094175603
10.0,1.2549433266853813,45.511143323280905,0.9661996703181889,8.196998203390002,0.05040382628851696
11.0,-5.738316244978009,52.497341880634664,0.9654919921107888,8.170599120173796,0.04869082871450347
12.0,-11.836999285845417,58.15205297214924,0.9647827482961899,8.141398367639752,0.04725736814782261
13.0,-16.85996631395592,62.46459887318554,0.9640726923755933,8.107212078119465,0.04603972536681911
14.0,-20.946851417878474,65.67711643473665,0.9633625260059054,8.061908798181891,0.04499758635378477
15.0,-24.309038563291484,68.06427245230469,0.9626528792560712,7.9969470023855544,0.04410381624762589
16.0,-26.865951211624793,69.58745413901485,0.961944409370878,7.935969980589466,0.04331707553015736
17.0,-28.64917599023664,70.30838159007139,0.9612381725088273,7.895607856042145,0.04260976844242101
18.0,-29.617074157724765,70.21086830392326,0.9605350445069117,7.865838978135604,0.041975478288624544
19.0,-30.05179413917607,69.60232020455507,0.9598353764080466,7.841215161428241,0.04140609705248874
20.0,-30.185706633572927,68.73059947028334,0.9591403079117651,7.819697585013638,0.04089244585675923
21.0,-30.13775614119495,67.72355150069542,0.9584505027227073,7.800426027347897,0.04042602591022292
22.0,-29.970156860999676,66.64867424746689,0.9577671474481536,7.782950380373111,0.03999957744798332
23.0,-29.717895556636613,65.54426268292809,0.9570923821493371,7.766993640358591,0.03960716933609269
24.0,-29.40194752998005,64.43367623180839,0.9564246420232662,7.752364910479743,0.03924405457281822
25.0,-29.036341316480794,63.332301668148304,0.9557661634909541,7.7388878789345785,0.03890650805671243
26.0,-28.633106331265605,62.25302581953419,0.9551179035991738,7.726431903699421,0.038591529043299544
27.0,-28.2038649692198,61.20755139750872,0.9544817473551974,7.714890141064814,0.038296699715946625
28.0,-27.755852666253485,60.20274457132548,0.9538576620472019,7.704148347725823,0.03802004030583167
29.0,-27.2936901112652,59.24248524189782,0.9532463224306339,7.694151645812348,0.03775982431631692
30.0,-26.82112655426868,58.32925664794072,0.9526505144226557,7.684818242619951,0.03751464997272851
31.0,-26.341054109167768,57.46454221249152,0.9520701591149231,7.6760963938831726,0.03728324549451963
32.0,-25.856115015611273,56.64931597014436,0.9515068712380654,7.667945276822359,0.037064497041187784
33.0,-25.36909105812956,55.88432373376794,0.9509621139912989,7.660306313958942,0.036857427075990136
34.0,-24.882357410494222,55.16977700667363,0.9504367157963922,7.653159257549731,0.03666114417366158
35.0,-24.398232730330314,54.505588268056584,0.9499310962647403,7.6464668191054095,0.036474849588699426
36.0,-23.91890805003947,53.8913332695954,0.9494468319583282,7.640203773563019,0.036297821749071785
37.0,-23.446520337575063,53.32631678879947,0.9489859256340348,7.634349491740156,0.03612940273438992
38.0,-22.98275249518447,52.8094490434719,0.9485468828983346,7.62888469199091,0.03596899253952466
39.0,-22.529397317340933,52.33953776018079,0.9481315867811424,7.62379177083937,0.03581604737093942
40.0,-22.08801965822281,51.91508833105471,0.9477408696585795,7.61905121537276,0.03567007572381431
41.0,-21.659879088465917,51.53434614998857,0.9473740945841674,7.614653011019549,0.03553061899571695
42.0,-21.246053898451294,51.195366318805455,0.9470321085851254,7.610589328994446,0.03539725657493514
43.0,-20.847410429422617,50.8960138201236,0.9467149222612673,7.606841597729382,0.035269611243808945
44.0,-20.46454778123881,50.63400308459572,0.9464228316362367,7.603404082079359,0.03514732628565647
45.0,-20.09775280433728,50.40681664271382,0.9461546578128788,7.6002720553859655,0.03503008114699365
46.0,-19.747213635998367,50.21196276166826,0.9459113873419095,7.597439748592302,0.03491757758886734
47.0,-19.41281346685207,50.046798739551015,0.9456924152112232,7.594901458847796,0.03480954548737323
48.0,-19.09434325177776,49.90874976950185,0.9454979424072449,7.59265279855628,0.03470572860318594
49.0,-18.791288526330323,49.79516778904274,0.9453274405239397,7.590690495395972,0.034605893278138476
50.0,-18.503138111623592,49.703478492774,0.9451808506534388,7.589010450823058,0.03450982277363713
51.0,-18.229200086138516,49.631183505252444,0.9450581361041419,7.587608336429207,0.03441731578367184
52.0,-17.968682284461465,49.575844288917516,0.9449588746638743,7.586483828685476,0.034328188400148694
53.0,-17.720774700387302,49.535164511300046,0.9448828723480557,7.585632466708104,0.0342422705119468
54.0,-17.484566566806546,49.50698418587971,0.9448301583690253,7.585054694137313,0.034159398549218956
55.0,-17.259147496994586,49.48928310774147,0.9448005287836488,7.584751026169294,0.03407942250258835
56.0,-17.04362359879482,49.48020507609643,0.9447938638628509,7.584721226030435,0.03400220314237517
57.0,-16.837162713661737,49.47809211739486,0.9448102733458793,7.584962152537778,0.033927610159727145
58.0,-16.638911519143015,49.48140813779838,0.944849730025411,7.585476970894608,0.03385552180097134
59.0,-16.448103612406655,49.48881505623656,0.944912382168068,7.586264028975052,0.033785823487020736
60.0,-16.26403247206322,49.49914902521685,0.9449982416872676,7.587326080044458,0.033718408028825766
61.0,-16.08604699797882,49.51138804037954,0.9451075335233264,7.5886645491490885,0.03365317468712165
62.0,-15.91359667289497,49.52468279855956,0.9452404811909081,7.590279457154522,0.03359002758010372
63.0,-15.746169603492287,49.53831173284819,0.945397207829538,7.592173189771071,0.033528878642549186
64.0,-15.583282548914713,49.551686004455576,0.9455778602105037,7.594351826559161,0.03346963783504189
65.0,-15.424655120688753,49.56435891925832,0.9457828141982856,7.596815107843585,0.03341222972110773
66.0,-15.2699492691523,49.57596338205169,0.9460121597680041,7.5995709903873445,0.033356573847209275
67.0,-15.118943747797038,49.58627248357666,0.9462661175619669,7.6026225466515855,0.033302596154739836
68.0,-14.971482553816072,49.595105865816755,0.946544872149343,7.60597553659178,0.03325022582221992
69.0,-14.827417434099777,49.602374568439615,0.9468485043098823,7.609635541705568,0.033199392885139976
70.0,-14.686676173095359,49.608029979970794,0.947177106734446,7.613613822863189,0.03315003148402347
71.0,-14.54920960497732,49.61210018507116,0.9475307663014582,7.61791762313908,0.03310207622850218
72.0,-14.415020334764069,49.614640109664414,0.9479092002556349,7.622555739435595,0.03305546252434007
73.0,-14.284047344058902,49.615690042745406,0.9483124037119159,7.62754234699044,0.03301012627315868
74.0,-14.156283540311557,49.61532448628124,0.9487391299905416,7.632891096494115,0.032966003520011215
75.0,-14.031728704827863,49.61365723919335,0.9491893524547396,7.638616878501063,0.032923030022048445
76.0,-13.910375824957974,49.61074424906954,0.9496625644594342,7.644738627488746,0.032881140718525076
77.0,-13.792126972478826,49.60661983994301,0.9501573297504312,7.651282138440966,0.03284026519386125
78.0,-13.676918769661055,49.60133822796697,0.9506729165168875,7.658266435729876,0.03280033734853136
79.0,-13.564702911182788,49.594936521218806,0.9512083610209645,7.665721433790947,0.03276128218157383
80.0,-13.45535577465768,49.58745030802205,0.9517623924931751,7.673676776741191,0.03272302879063877
81.0,-13.348763095780743,49.57888275721784,0.9523341103877995,7.682176882674006,0.03268549434757853
82.0,-13.244766516977897,49.56923708182735,0.9529222281548027,7.691270696281392,0.032648595497984774
83.0,-13.143296704537848,49.55857116996226,0.9535255208914464,7.700995788994398,0.03261225682222824
84.0,-13.044151728495645,49.546866873816015,0.9541427669136466,7.7114273776094775,0.03257639089486764
85.0,-12.94725094033846,49.534186778430225,0.9547727062105493,7.7226325304670995,0.03254092530140841
86.0,-12.852467316235082,49.520589266238595,0.9554143034667232,7.7346961739390645,0.032505795562874445
87.0,-12.759707574352936,49.506148558780346,0.9560668661363307,7.747723831435554,0.03247095606459106
88.0,-12.668835777099218,49.49090997956926,0.9567287343115887,7.761834222416893,0.03243639867140651
89.0,-12.579756725537797,49.47497729410822,0.9573995636732275,7.7771738664452,0.032402159475764525
90.0,-12.49230683638694,49.45839727980602,0.9580780053616414,7.793925409870504,0.032368326835343866
91.0,-12.406286148660183,49.441171292698904,0.9587632495850454,7.8123193892972544,0.032335046278179125
92.0,-12.32132739367634,49.42317212881034,0.9594544660776083,7.832686316190547,0.03230250287798225
93.0,-12.236411520004776,49.40369076154938,0.9601508155689683,7.8555884995999214,0.032270860185472275
94.0,-12.148449404366934,49.380045829257554,0.9608514815444782,7.882215101264347,0.03224012810432481
95.0,-12.047507859605386,49.34291254834622,0.9615558267743392,7.915417300221464,0.03220999353407513
96.0,-11.902958486186476,49.26239869791965,0.962262955051718,7.9617946136871955,0.032179550580650314
97.0,-11.691609571972167,49.11580613196979,0.9629720198998777,8.023712289793515,0.032148347176736855
98.0,-11.520041753046009,49.00984440264208,0.963682260144183,8.0774764552509,0.03211867828714081
99.0,-11.404952130238362,48.961481121852025,0.9643927999128257,8.116552817342493,0.032090895911015514
100.0,-11.30892190872515,48.93302543519647,0.9651030365102408,8.148199413232831,0.03206390292302416
101.0,-11.218605135714236,48.91072729264056,0.9658120875718451,8.176092958818701,0.03203720613038985
102.0,-11.130561130158915,48.89097837293887,0.9665192654808205,8.20162082336525,0.03201086513390331
103.0,-11.04418477949036,48.87311919616112,0.9672238462998388,8.225352614987731,0.03198520829483306
104.0,-10.959683699260168,48.85738531263554,0.9679249932326149,8.247588474075776,0.03196061626947152
105.0,-10.877742212515495,48.84445058955501,0.9686218079147104,8.268546245815859,0.03193739204298967
106.0,-10.798997666379336,48.83488139813149,0.9693132074623966,8.288399356472913,0.03191570584841921
107.0,-10.7232069035861,48.8284173518903,0.969997779221869,8.307311806564584,0.031895596878381366
108.0,-10.649441481762933,48.82416357236904,0.9706733344867928,8.32542280043053,0.0318770083564783
109.0,-10.576530882319336,48.82105405488938,0.9713365010100051,8.342848352620996,0.03185981879614814
110.0,-10.503166520960615,48.81796703051474,0.9719829558329556,8.359702716112569,0.031843884747423716
111.0,-10.427816400146623,48.813583434489296,0.9726065784333602,8.376076849190543,0.031829055256150464
112.0,-10.348624628795035,48.806590903092044,0.9732004090334359,8.392077765414186,0.031815178701097
113.0,-10.26398231510093,48.79575290783068,0.9737565477317659,8.407776101825203,0.03180212694940347
114.0,-10.172639652592313,48.78031512118887,0.974267949009685,8.423244793382379,0.03178978633235037
115.0,-10.073950090045317,48.76019298515791,0.97473007479214,8.43855301627028,0.031778055792333317
116.0,-9.968030402451348,48.736059372981,0.9751425311563935,8.453766983266934,0.031766847125954165
117.0,-9.855693387298189,48.70924439196358,0.9755104335992908,8.468952894650663,0.03175608442929235
118.0,-9.738278599343678,48.68157884934899,0.9758447962108551,8.484174110913562,0.03174569707077574
119.0,-9.617561403348235,48.6552224743701,0.9761614438126212,8.499505618668076,0.03173562342972578
120.0,-9.495583022235122,48.632529621762124,0.9764787676672565,8.515011752600437,0.03172579690193695
121.0,-9.374621851630243,48.61596949265462,0.9768147884682495,8.530774490344038,0.03171615116779279
122.0,-9.257072566239245,48.60802142827516,0.9771839117049672,8.546879712221894,0.03170660993847536
123.0,-9.145129457391226,48.61079979021903,0.9775945673362423,8.563420797747215,0.031697087761338734
124.0,-9.039500717667487,48.62483459948386,0.978048245661199,8.580510102959618,0.03168748162721444
125.0,-8.941999848583839,48.651662144338935,0.9785400775193271,8.598278930708569,0.03167766712094511
126.0,-8.853130187112733,48.691401255306225,0.9790608464113625,8.61688168383976,0.03166748802384942
127.0,-8.77195172051576,48.74274669011283,0.9795996056285079,8.636507734428028,0.031656750693657795
128.0,-8.696976602937267,48.803867182389745,0.9801457867562318,8.657393390570476,0.031645226299490965
129.0,-8.626724576734006,48.873054817540755,0.9806912038362791,8.679837408814175,0.0316326666088602
130.0,-8.560114876437435,48.949124014653265,0.9812300897186204,8.704211166684114,0.031618855383328565
131.0,-8.496468728374515,49.031369133694064,0.9817593025343689,8.731006401258067,0.03160370837838005
132.0,-8.43522531591534,49.119261500482864,0.9822773427313971,8.760883550131906,0.03158743401736033
133.0,-8.375470680745998,49.21207329197918,0.982783498482107,8.79479697805321,0.03157066489042306
134.0,-8.313879231042035,49.30695354666607,0.9832776367979077,8.834668495203134,0.03155431846795065
135.0,-8.222758531156357,49.378714651016665,0.9837597827690446,8.888720139585985,0.03153850284513304
136.0,-7.69382867060149,49.02681919763461,0.9842302508698703,9.025709663047268,0.03151771474806592
137.0,-7.349580529902869,48.87058986316968,0.9846889132511935,9.13041761506456,0.03149947665940013
138.0,-7.234288319202546,48.956871967704686,0.9851358829695405,9.180796188559144,0.03148449525495412
139.0,-7.130513032518578,49.06101513220127,0.9855712187119878,9.220685540025954,0.031469360933579035
140.0,-7.027058223958507,49.17033222080896,0.9859948850824746,9.255261250399954,0.031454673980958005
141.0,-6.9227379721603,49.28339077930146,0.9864067671671278,9.286059966182957,0.031441311002197235
142.0,-6.817212028074903,49.399892059328636,0.9868059229606923,9.313979692424102,0.03142969300240927
143.0,-6.710100378409889,49.519557764430395,0.9871901738588542,9.339660022369545,0.03141981489531497
144.0,-6.6009497738625855,49.64205195619256,0.9875557875626768,9.363599656473534,0.031411451095852284
145.0,-6.4908508265378515,49.7686045328498,0.9878968194928989,9.38618483496832,0.03140430140459222
146.0,-6.38969230653865,49.90878280531559,0.9882063840944135,9.407725939182416,0.031398080181096175
147.0,-6.293716645109988,50.05844707908182,0.9884784450299132,9.42847142316275,0.03139254839680325
148.0,-6.193820636278201,50.208649914802955,0.9887108102879691,9.448628037380244,0.03138750843524852
149.0,-6.088970044138883,50.35881681633223,0.9889073344749975,9.468380118147653,0.03138280236326101
150.0,-5.980607721658205,50.51076755463886,0.9890784470331546,9.487888123616262,0.0313782979553961
151.0,-5.871123605423878,50.667081576133995,0.9892390946473346,9.507312695337282,0.0313738856551596
152.0,-5.763253247055378,50.83048453690618,0.9894052149721253,9.526802678026993,0.03136945649340166
153.0,-5.659478096155579,51.00324542349723,0.9895894820944828,9.54651464478998,0.03136489831202835
154.0,-5.561732369229575,51.18689801235256,0.9897984437521207,9.566615545072919,0.0313600909772603
155.0,-5.470825950534563,51.38171678447909,0.9900319958417323,9.587287813122765,0.03135489275608986
156.0,-5.3851140189864894,51.585557891944326,0.9902847766715648,9.608744640552056,0.031349137363682784
157.0,-5.3035205139731705,51.79694854912969,0.9905489758611432,9.6312383703016,0.03134262567051973
158.0,-5.225615065729965,52.01516146616522,0.9908169498533453,9.655076276733757,0.03133514126997701
159.0,-5.15072211839145,52.23934759027378,0.9910830362590268,9.680663280468432,0.03132648402237213
160.0,-5.078715328639012,52.46926710009574,0.9913434067299687,9.70847809622188,0.03131655770575368
161.0,-5.009312022852359,52.704560557740294,0.9915965165065571,9.739196065161947,0.03130551463165479
162.0,-4.942062949879257,52.94479038630109,0.9918417001131451,9.773808556932346,0.031293897309877944
163.0,-4.874497509728378,53.18782434903643,0.9920790018749607,9.81436371169371,0.03128255038953041
164.0,-4.774487176565789,53.404937448250664,0.9923084654320099,9.871598748598068,0.03127151090874764
165.0,-3.638310782768457,52.60983771237719,0.9925303318228507,10.09591855733029,0.0312519740381514
166.0,-3.425676133986818,52.75836516303186,0.992744832649423,10.172778301931796,0.031240424694058366
167.0,-3.300124235660958,53.005320140640876,0.9929520560316907,10.216904921849741,0.031229947474735852
168.0,-3.1784889025326164,53.25956705516837,0.9931522789149205,10.253281907072594,0.031219391158541776
169.0,-3.057481275165271,53.517012430512395,0.9933455119567095,10.285050311692148,0.031209452829948494
170.0,-2.9366497006998,53.77705657443903,0.9935314050300976,10.313456342872184,0.03120063675345886
171.0,-2.8157596424967335,54.03938979043023,0.993709345229142,10.33929666449323,0.03119307968214125
172.0,-2.6946124565932648,54.303789765445124,0.9938777109950252,10.36314462064312,0.031186674370661503
173.0,-2.5728469032775343,54.569898442559214,0.9940341908731266,10.385434866684092,0.03118121625746184
174.0,-2.4502994083206207,54.837576784485435,0.9941760319473119,10.406499531984434,0.03117649127491577
175.0,-2.330059544891479,55.10985028767951,0.9943010484204352,10.426607511683184,0.031172309430290736
176.0,-2.2439381301939423,55.41726827526968,0.994408552283235,10.445963002315123,0.031168505607982358
177.0,-2.167110264210891,55.73384109603485,0.9945001546727174,10.464748141951215,0.03116495179371628
178.0,-2.0920221474316536,56.05181594498884,0.9945798030969183,10.483113960137128,0.031161539203019582
179.0,-2.018781272053021,56.37129395902036,0.9946530591033859,10.501199907563306,0.03115818020665902
180.0,-1.948241920726642,56.69303815538894,0.9947259531421321,10.51912568915416,0.031154792675463942
181.0,-1.8811993251070578,57.01766867178104,0.9948034532623697,10.537012856555197,0.031151303528408118
182.0,-1.8182149487289336,57.345519735560906,0.9948885617356127,10.554975595447695,0.03114763932674762
183.0,-1.7595217344616816,57.67654272857817,0.9949821605111883,10.573133928808733,0.03114372302336665
184.0,-1.705130767188519,58.01047535608488,0.9950831940253054,10.591611721040282,0.031139473589718556
185.0,-1.6545437413544857,58.346578766692446,0.9951894144671528,10.610544434056925,0.031134806203053558
186.0,-1.6075845273743081,58.68447562468009,0.9952982209189934,10.630082029054675,0.031129635135339815
187.0,-1.5627671239235854,59.02255603250815,0.9954071961508593,10.650398956055696,0.031123884924507246
188.0,-1.5197018773452153,59.36037089487439,0.9955146083327598,10.671698214067023,0.031117506602447532
189.0,-1.4783959120089587,59.697884330135594,0.9956193192652794,10.694223807169756,0.031110507466693617
190.0,-1.4388998148020136,60.035094323916205,0.9957207248599274,10.718273442678191,0.03110299011659465
191.0,-1.4011161741852158,60.37185942393118,0.9958186038851038,10.74425066793161,0.031095179947454834
192.0,-1.364732128132999,60.70785132077777,0.9959129337120801,10.772805923426002,0.031087409346314373
193.0,-1.3281414180302646,61.04166721460254,0.9960037540017499,10.805578166784287,0.031079980287715078
194.0,-1.2737301251529753,61.357808671664635,0.9960911530898293,10.850795854549473,0.031072616135580353
195.0,0.146203791723746,60.331889038479055,0.9961752398281412,11.101185750015082,0.031057179833960044
196.0,0.34360529094113346,60.54514714135005,0.9962561205601439,11.17567324510522,0.03104879190181139
197.0,0.4357472285062175,60.87079466222029,0.9963339031590671,11.211660248673592,0.03104202573750147
198.0,0.522994288233227,61.19893203350212,0.9964086668948267,11.240532870663653,0.0310352253970852
