Time,J,A,S,tau
0.0,100.0,10.0,0.9269611150820456,20.1362068203235
1.0,99.96620805802709,9.038001568787562,0.9267035698874813,21.132114538382627
2.0,99.93358468793586,8.168500539917794,0.9264524768113886,22.128508536693296
3.0,99.90219622872903,7.382851060265687,0.9262076560025949,23.12526426587841
4.0,99.87194624813954,6.672952221222673,0.9259688517445278,24.12233722919912
5.0,99.84274740225017,6.031478870670266,0.9257358076196274,25.11968883719764
6.0,99.81452035376188,5.451824138891064,0.9255082682541371,26.11728559128131
7.0,99.78719278435538,4.928013839282942,0.9252859806951511,27.11509835276277
8.0,99.76069857240385,4.454658727732014,0.9250686954804848,28.113101739402516
9.0,99.73497706582488,4.026886029558621,0.9248561674519359,29.11127360067227
10.0,99.70997245014189,3.640298872731966,0.9246481563474255,30.109594569520105
11.0,99.6856332097182,3.290922497723187,0.9244444272360128,31.108047684889947
12.0,99.66191163727213,2.975169003689239,0.9242447507755007,32.106618057548104
13.0,99.63876343079558,2.6897958649446387,0.9240489033960317,33.10529259730991
14.0,99.61614730937971,2.4318747926906243,0.9238566673279328,34.10405976317766
15.0,99.59402470749505,2.198760364835164,0.9236678306186261,35.10290936481182
16.0,99.5723594716788,1.9880622471465275,0.9234821870077042,36.10183237533342
17.0,99.55111762436182,1.7976219292581812,0.9232995358323619,37.100820785341156
18.0,99.53026712284456,1.62548801410994,0.9231196818064332,38.09986746252436
19.0,99.50977767248611,1.4698989779468876,0.9229424348492884,39.09896604281783
20.0,99.48962053409667,1.3292616820048435,0.9227676098099422,40.09811082505845
21.0,99.46976837222007,1.20213831102727,0.9225950262421979,41.09729668850965
22.0,99.45019510001174,1.0872281653404785,0.922424508101571,42.09651901359975
23.0,99.4308757527679,0.9833574517136443,0.922255883482704,43.09577361835889
24.0,99.41178636150923,0.8894641972415677,0.9220889843063256,44.0950566983837
25.0,99.3929038449451,0.8045900022309759,0.9219236460308833,45.09436477696402
26.0,99.37420590467725,0.7278677868844037,0.9217597073390296,46.09369465904082
27.0,99.35567093081984,0.6585149160755952,0.921597009832754,47.09304339129265
28.0,99.33727791306644,0.5958234305079991,0.9214353977234624,48.09240822608333
29.0,99.31900635652985,0.5391541573381143,0.921274717517982,49.091786588774355
30.0,99.30083620395092,0.487929063622612,0.9211148177127194,50.09117604857259
31.0,99.28274775917899,0.44162610342461234,0.9209555484763744,51.09057429099223
32.0,99.26472161660678,0.39977334520117797,0.9207967613465653,52.08997909317583
33.0,99.24673859020989,0.3619443959032576,0.9206383089136695,53.08938829984636
34.0,99.22877964692465,0.32775398209847334,0.9204800445174386,54.08879980114116
35.0,99.21082583937758,0.29685385585030305,0.9203218219349315,55.08821151062917
36.0,99.1928582404329,0.2689295286652932,0.9201634950748376,56.08762134401003
37.0,99.17485787769466,0.2436966367434386,0.920004917670838,57.08702719784908
38.0,99.15680566689085,0.22089851554153073,0.9198459429725698,58.086426927690404
39.0,99.13868234594878,0.2003030562167822,0.9196864234439963,59.08581832609519
40.0,99.12046840520712,0.18170085862879887,0.9195262104517422,60.085199098797425
41.0,99.10214401844857,0.16490258207447167,0.9193651539667446,61.08456684044446
42.0,99.08368896804689,0.14973749489995838,0.9192031022524969,62.08391900736597
43.0,99.06508256983999,0.13605129209180905,0.9190399015678413,63.08325288910903
44.0,99.04630359119004,0.12370492019396326,0.9188753958593318,64.08256557618094
45.0,99.02733016596275,0.1125728174879709,0.9187094264636507,65.08185392501288
46.0,99.00813970307873,0.10254193461572873,0.918541831809926,66.08111451865136
47.0,98.98870878708189,0.0935103462449807,0.9183724471220716,67.08034362213033
48.0,98.96901307402877,0.0853864162173281,0.9182011041386121,68.07953713347234
49.0,98.94902717212375,0.0780877292607828,0.9180276308184968,69.07869052554295
50.0,98.92872452062137,0.07154036863707477,0.9178518510880376,70.07779878379174
51.0,98.90807724371082,0.06567812025737707,0.9176735845587561,71.07685632943566
52.0,98.88705600686255,0.060441828835700255,0.9174926463152953,72.0758569392302
53.0,98.86562983417791,0.05577886699283533,0.9173088466572857,73.0747936426019
54.0,98.84376593159597,0.05164260472707963,0.9171219909403889,74.07365861551952
55.0,98.82142946707904,0.04799190906648188,0.9169318793930217,75.07244304746709
56.0,98.79858333312112,0.04479088646449038,0.9167383069986903,76.07113699191045
57.0,98.77518788818408,0.04200847461613369,0.9165410634456226,77.06972919783996
58.0,98.7512006377835,0.039618236078765245,0.9163399330904389,78.0682069000938
59.0,98.72657589915966,0.03759818882656197,0.9161346950493195,79.06655558949663
60.0,98.70126442116862,0.03593060214713007,0.9159251233763551,80.06475874679847
61.0,98.67521292363682,0.0346019715624851,0.9157109873232248,81.0627975170275
62.0,98.64836359575794,0.03360298044766625,0.915492051770087,82.06065034404779
63.0,98.62065358186243,0.0329284214418476,0.9152680778343574,83.05829258365533
64.0,98.5920139390256,0.03257830546113868,0.915038823545652,84.05569576014113
65.0,98.5623695134213,0.03255643098524617,0.9148040451092383,85.05282739130067
66.0,98.53163749672206,0.03287171147138164,0.9145634980537946,86.04964994274289
67.0,98.49972664773773,0.03353841910792736,0.9143169389634246,87.04612018237626
68.0,98.46653599834175,0.03457663098106436,0.9140641275846182,88.04218816334837
69.0,98.4319535042273,0.03601296290783355,0.9138048294074875,89.03779613515678
70.0,98.39585440362971,0.03788118540723391,0.91353881887017,90.03287721359803
71.0,98.3580993511437,0.0402233729292023,0.9132658832400677,91.02735385062178
72.0,98.31853225289535,0.04309087357008534,0.9129858273079874,92.02113604402666
73.0,98.27697767702591,0.046545824203208165,0.912698479134512,93.01411918551202
74.0,98.23323795840693,0.05066258294273101,0.9124036968172767,94.00618162761627
75.0,98.18708976149782,0.05552977746566452,0.912101376647123,94.99718178501332
76.0,98.13828003176005,0.06125252239362139,0.9117914629370771,95.9869547013896
77.0,98.08652148036475,0.06795493307407376,0.911473959357984,96.97530818999482
78.0,98.03148721592392,0.0757832869497046,0.9111489425277951,97.96201823400052
79.0,97.97590683256928,0.0896634600063827,0.9108165779908687,98.94682364776344
80.0,97.9196845789298,0.10927783072151073,0.9104771382835555,99.92942013592739
81.0,97.8606686042204,0.1317524439454239,0.9101310245962078,100.90945316974347
82.0,97.79868464278927,0.15754505572882369,0.9097787908540094,101.8865101719736
83.0,97.73356045915683,0.18718727780321998,0.9094211714702661,102.86011152822299
84.0,97.66513191929943,0.22129533229632006,0.909059112014082,103.8297007118587
85.0,97.5932514269778,0.26058191664834723,0.908693803194468,104.7946333558927
86.0,97.51779932183823,0.3058689657811709,0.9083267175804693,105.75416545414483
87.0,97.43869903029308,0.35810086965209575,0.9079596478105803,106.70744107772286
88.0,97.35593688425332,0.41835803824377404,0.9075947458481404,107.65347968790675
89.0,97.2695874391531,0.4878698660424114,0.9072345605639222,108.5911638895985
90.0,97.1798452963971,0.568026255338603,0.9068820710972298,109.51922836768604
91.0,97.08706416391415,0.6603865594975494,0.9065407125490147,110.43625102198506
92.0,96.99180365222789,0.7666844000829802,0.9062143893679142,111.3406476855567
93.0,96.89488364442414,0.8888265955123369,0.9059074710931854,112.2306720115219
94.0,96.79744473121518,1.0288840980835494,0.9056247641240377,113.10442243512377
95.0,96.70101246853285,1.1890730539024341,0.9053714537650368,113.95985791536057
96.0,96.6075604819566,1.3717242056539527,0.9051530110811344,114.79482408816617
97.0,96.51956490907055,1.5792394014513529,0.90497506077685,115.60709098585006
98.0,96.44004105747898,1.8140350970461903,0.9048432096191985,116.39440244849446
99.0,96.37254858085277,2.078474111918529,0.9047628390134502,117.15453615754788
100.0,96.32115289896247,2.3747879692980964,0.9047388685429183,117.88537217171945
101.0,96.29032443102923,2.704996339795552,0.9047755104461529,118.58496427000094
102.0,96.28476820053896,3.07082543304439,0.9048760192600657,119.25161217061346
103.0,96.30917134774178,3.473639003491421,0.9050424795308146,119.88392273750928
104.0,96.36787394464517,3.9143815858253683,0.9052756287653915,120.48086007303544
105.0,96.46447693052576,4.393545651323141,0.9055747523091382,121.04177433007239
106.0,96.60137795726268,4.911151165710373,0.905937611609853,121.5664190122984
107.0,96.77931173969274,5.466767526313036,0.9063605041670809,122.0549305795271
108.0,96.99698410336045,6.059555807951039,0.9068383843821854,122.50779019670641
109.0,97.25069262187688,6.688310251639865,0.907364976668868,122.92578528139428
110.0,97.53408371736617,7.35152781855402,0.9079329778138099,123.30994611010469
111.0,97.83812027190541,8.047480023757034,0.9085342651250293,123.66148086786193
112.0,98.15119929407787,8.774282698914321,0.909160099120794,123.98171227706122
113.0,98.45945881464633,9.529960366307309,0.9098013104336486,124.27201915735586
114.0,98.74725595323861,10.31250206184725,0.9104484615908506,124.53378569230823
115.0,98.99778683457373,11.119906870521632,0.9110919784681853,124.76835994330247
116.0,99.1938064691904,11.950218717827147,0.9117222499450439,124.97702199199088
117.0,99.31840076647217,12.801551031122221,0.9123296972640537,125.16096108342316
118.0,99.35573849329508,13.672101578296195,0.9129048155322058,125.32126163780221
119.0,99.29173935398512,14.56015931946424,0.9134381921393008,125.45889647216967
120.0,99.11466417941934,15.464106748911277,0.9139205088481739,125.57472353502231
121.0,98.81544693573366,16.38241422044867,0.9143425278545034,125.66949074969195
122.0,98.38795889358178,17.313635373881382,0.9146950728494437,125.74383917190072
123.0,97.82911151175334,18.256398699296017,0.914969001024645,125.798308342304
124.0,97.13859063126631,19.209394362926258,0.915155171782917,125.83334846283984
125.0,96.31859497880957,20.17136527844312,0.9152444209488824,125.84932876654504
126.0,95.5500052135315,20.96548137791961,0.9305778046426939,49.616430447911654
127.0,94.93432287071275,21.517555849010478,0.936914484721584,32.009401745586
128.0,93.80540144774764,22.48409790715546,0.9373086152227524,28.12821523552456
129.0,92.31911508791367,23.700405422537248,0.9365818931840459,25.947445528231786
130.0,90.53743484783848,25.104572049884865,0.9352979490697465,24.455608927481943
131.0,88.5182242970917,26.644369268315074,0.9336546424853237,23.331788191710043
132.0,86.32233547140555,28.26793255650093,0.9317458491922683,22.433276849625
133.0,84.0127285963737,29.922596365056677,0.9296237528702744,21.684517618958278
134.0,81.65156686842299,31.556187309129513,0.9273203894166322,21.040953202027318
135.0,79.29699581768799,33.11926694376585,0.9248568092705722,20.474328053115972
136.0,77.00029841660033,34.56760535716686,0.9222475448691718,19.965778183853775
137.0,74.80369489330974,35.86443688735615,0.9195030134079828,19.502226880968056
138.0,72.73899333519154,36.982090952667484,0.9166309204931763,19.074333056293565
139.0,70.82700426510162,37.90289831058997,0.9136371134650658,18.675284229039764
140.0,69.077873143692,38.619151571200106,0.9105261453387914,18.30001459264958
141.0,67.49207379380904,39.132325205918754,0.9073016483342948,17.944705736448967
142.0,66.06199060071276,39.451638867627615,0.9039665989826539,17.606446000864743
143.0,64.77358874470319,39.59248659144269,0.9005235148191063,17.282981062146092
144.0,63.588224677197786,39.59462237117494,0.8969745878409859,16.97255447647438
145.0,62.49773969863383,39.46707520476727,0.893321800367099,16.673785263594347
146.0,61.507215337011175,39.205708981636214,0.8895670093412014,16.38557474106175
147.0,60.603394761973604,38.824733560370305,0.8857120125558628,16.107040771779772
148.0,59.76457777068635,38.34673668097505,0.8817586018062467,15.837467661849711
149.0,58.96743800528266,37.79584487644757,0.8777086070053688,15.576268399433541
150.0,58.19162184255959,37.19314044906942,0.8735639316552649,15.322955782044284
151.0,57.421695667041426,36.55475058952369,0.8693265817405846,15.077120426200997
152.0,56.64708762179459,35.8919467788522,0.864998688718647,14.838413815525298
153.0,55.861097172797514,35.2121717637992,0.8605825298372904,14.606535509384601
154.0,55.05972370004381,34.52023956668568,0.8560805443233469,14.381223046136876
155.0,54.24071422994877,33.819308089604895,0.8514953419216024,14.162243878607695
156.0,53.402923243026436,33.11153088615454,0.8468297147708086,13.949389459197128
157.0,52.54593819383646,32.398455168741634,0.8420866618876934,13.742471799548142
158.0,51.66978221193652,31.68130752599444,0.837269340060104,13.541316594026616
159.0,50.774833794552464,30.961104915764473,0.8323811605234103,13.345764897173199
160.0,49.86166306104164,30.238803723999343,0.827425665252432,13.155665944458327
161.0,48.93106734270319,29.515294347640186,0.8224066799466653,12.970880509946033
162.0,47.98400681536332,28.791435270876107,0.8173281296182203,12.791274195825896
163.0,47.021662862869114,28.068054979458765,0.8121942331052908,12.616721681381964
164.0,46.045350774315324,27.345972481723575,0.8070092952046515,12.447100872234557
165.0,45.056603476609205,26.626008069117624,0.801777905588065,12.282296880116132
166.0,44.05707011152619,25.90898237259527,0.7965047281109459,12.122197194623402
167.0,43.04862390029052,25.195734638391805,0.7911946906111337,11.966695222779446
168.0,42.03324096056034,24.487107794848598,0.7858527864784601,11.815686314836276
169.0,41.013124967074994,23.783973308878068,0.7804842410235684,11.669070827069254
170.0,39.99057510903532,23.087211226379527,0.7750943508635898,11.52675103221607
171.0,38.96808084943585,22.39773217610251,0.7696885757434779,11.388633041378684
172.0,37.94823090019995,21.71646445704633,0.7642724544715422,11.254625248581144
173.0,36.933750249437274,21.04437516615037,0.7588516599310936,11.124639280552831
174.0,35.92742576586907,20.382458557038294,0.7534319216251274,10.998589125936892
175.0,34.932107887207074,19.731751174820484,0.7480190601351488,10.87639137382223
176.0,33.950639553446564,19.09333614535072,0.7426189453493024,10.757965279176572
177.0,32.98582002394059,18.4683353247127,0.7372374868875847,10.64323214678849
178.0,32.04034786347454,17.8579392345773,0.73188063679247,10.53211608993209
179.0,31.11672511361775,17.26337333336315,0.7265543417036028,10.424543092919725
180.0,30.21725364163334,16.685938568790874,0.7212645711207469,10.320441700744109
181.0,29.343849306387263,16.12697090569831,0.7160172568483368,10.219742518093087
182.0,28.498127646650556,15.587864719575368,0.7108183242820338,10.122378259927341
183.0,27.68115626151166,15.07004476970487,0.7056736384613133,10.028283973769504
184.0,26.89357821192814,14.57495430099983,0.7005890229588561,9.937396496340412
185.0,26.135446578852516,14.104035672427129,0.695570225747482,9.849654911607292
186.0,25.40623833467653,13.658689036569658,0.6906229112195605,9.765000235811142
187.0,24.70491398535901,13.24025433509352,0.6857526589235956,9.68337537854271
188.0,24.029926273297306,12.849961375940348,0.6809649405622497,9.604725297616737
189.0,23.379247980551035,12.488870623612607,0.6762651095381618,9.528996790375668
190.0,22.750531539315663,12.157852410434526,0.6716584032564076,9.456138442418846
191.0,22.141225549320314,11.8575116445945,0.6671499186463414,9.386100774219988
192.0,21.54863818219154,11.588139639028515,0.6627446083240082,9.31883605256897
193.0,20.97014024734998,11.349705154203658,0.6584472835731114,9.254298233779227
194.0,20.40333646395471,11.141783325796332,0.6542625893251925,9.192443102522109
195.0,19.846080644887806,10.963552243718276,0.6501950066216294,9.133228100711309
196.0,19.296642920517183,10.813817711137935,0.6462488560101143,9.07661226679651
197.0,18.753844734556,10.690988052828633,0.6424282713013176,9.022556379969753
198.0,18.216931716361945,10.593140911558624,0.6387372149708652,8.971022743431043
199.0,17.685690895319226,10.518064220405021,0.6351794643531786,8.921975260039618
200.0,17.160393314862638,10.463328823702769,0.6317586121589774,8.875379370184252
201.0,16.641736486519672,10.426364060774128,0.6284780627064058,8.831202033044999
202.0,16.130757752574258,10.404540064383625,0.6253410293667695,8.789411704806595
203.0,15.628739521569669,10.395250275837837,0.6223505346125231,8.749978303314709
204.0,15.137117779338089,10.395985897045238,0.6195094093369911,8.712873181049625
205.0,14.657390777991926,10.404399541749767,0.6168202924867809,8.67806910009833
206.0,14.191035473996582,10.418356704578617,0.6142856310313354,8.64554020780324
207.0,13.739436686814832,10.435973536585387,0.6119076790630344,8.615262017834194
208.0,13.303825566400556,10.455639437095282,0.6096884988445211,8.587211389479668
209.0,12.885241386019613,10.47602293554313,0.6076299635602335,8.561366494382373
210.0,12.484503784600152,10.496070919323087,0.6057337557706416,8.537706809607567
211.0,12.102206987346834,10.51498681725658,0.6040013764822667,8.516213054451102
212.0,11.738713208554408,10.532221067091815,0.6024341326381616,8.496867218025455
213.0,11.394143922309537,10.547445429442856,0.601033144406685,8.479652584290895
214.0,11.068446825304267,10.560493055038615,0.5997993791391892,8.464553442056502
215.0,10.761325332891952,10.571393067946826,0.5987335646982417,8.451555657801762
216.0,10.47240074053627,10.580253037898235,0.5978362840821897,8.440645836209177
217.0,10.201088502576704,10.5873039541925,0.5971079509298949,8.43181200793668
218.0,9.946723753741786,10.59283630839437,0.5965487959623187,8.425043202311661
219.0,9.708537432418243,10.597191976576106,0.5961588609490551,8.420329729217134
220.0,9.485709305998194,10.600733179016313,0.5959380428577012,8.417662802360265
221.0,9.27737700865613,10.603830836172875,0.5958860309270508,8.417034905242236
222.0,9.082643587757605,10.60685307103785,0.5960023814476405,8.418439454123948
223.0,8.900625134105388,10.610147382241841,0.596286448442033,8.421870989793005
224.0,8.730423792643375,10.61404077942722,0.5967374410439941,8.427325079884504
225.0,8.571166290287497,10.618831117894187,0.5973543997905782,8.434798270810168
226.0,8.422008794582698,10.624780843325384,0.5981361872606418,8.444288185693434
227.0,8.282131313645303,10.632120297179458,0.5990815145422704,8.455793405884753
228.0,8.15075852930261,10.641044725874172,0.6001889273536899,8.469313455837689
229.0,8.027155393702179,10.651713595283837,0.6014568001467706,8.484848895831373
230.0,7.910622666144252,10.664256248790297,0.602883358948356,8.502401187550051
231.0,7.800513331888709,10.6787707678739,0.6044666641325316,8.521972712685832
232.0,7.696221439647772,10.695326446338631,0.6062046119261824,8.543566836761684
233.0,7.597180306929187,10.713969094587176,0.6080949528149393,8.567187776733975
234.0,7.5028735744450294,10.73472096134174,0.6101352741471776,8.592840644558292
235.0,7.412824143347386,10.757583856573351,0.612323002929714,8.620531497069777
236.0,7.326592208930591,10.782544120980157,0.6146554301931385,8.650267157376051
237.0,7.24378596306497,10.809571471888244,0.6171296768824948,8.682055380597602
238.0,7.164040754320538,10.838624496073319,0.6197427291528088,8.715904743023005
239.0,7.087040443572317,10.869650865399656,0.6224914210509067,8.751824595097087
240.0,7.012495107070729,10.902590058750121,0.6253724400993071,8.789825196420434
241.0,6.940150952056781,10.937375476281586,0.6283823499361263,8.829917458694597
242.0,6.8697905987911865,10.9739349173272,0.6315175478725602,8.872113273380165
243.0,6.8012221042019085,11.012193509272366,0.634774336595602,8.916425047315679
244.0,6.7342886072705594,11.052074073862713,0.6381488484767975,8.962866228013185
245.0,6.668860086077217,11.09349847044412,0.6416371319265407,9.01145069365749
246.0,6.604828943416218,11.136389638472375,0.6452350879560411,9.062193313013728
247.0,6.542128375585927,11.180671364223771,0.6489385077895452,9.115109534280798
248.0,6.480690010643827,11.226268888662032,0.6527431134633541,9.170215319132732
249.0,6.420498415216519,11.273113839573243,0.6566444506809532,9.227527805218273
250.0,6.361551272853376,11.32113894723399,0.6606380374919035,9.28706429307894
