Time,J,A,S,tau
0.0,100.0,10.0,0.5480388118100188,70.14376843701949
1.0,99.8616598769032,8.949032127584362,0.5472831878944746,71.14335360745429
2.0,99.72482767408177,8.008679763051106,0.5465383178385372,72.14297507663491
3.0,99.58985271218934,7.16750171102143,0.5458033237229204,73.14261833461848
4.0,99.4566294085968,6.414987124777216,0.5450776573641425,74.14228118881002
5.0,99.32505538937929,5.741748022514121,0.5443607850553116,75.1419616664278
6.0,99.19503127727099,5.139395186382587,0.5436521867812896,76.14165798797771
7.0,99.06646049023846,4.600432002378636,0.5429513554457388,77.14136854393395
8.0,98.9392490517464,4.1181591966939814,0.5422577961206394,78.14109187430552
9.0,98.8133054108256,3.686590464242245,0.5415710253145344,79.14082665063162
10.0,98.68854027004978,3.300375018815619,0.54089057025463,80.14057166002395
11.0,98.56486641869765,2.9547290749504747,0.5402159681729117,81.14032579090332
12.0,98.44219857439849,2.64537598308864,0.539546765615028,82.14008802038813
13.0,98.3204532312648,2.3684924174895454,0.5388825177652553,83.13985740303625
14.0,98.1995485142295,2.120660324893681,0.538222787788576,84.13963306075993
15.0,98.07940403642985,1.8988225670475452,0.5375671461763134,85.13941417365044
16.0,97.95994076188019,1.7002451046829872,0.5369151701079765,86.13919997168782
17.0,97.84108087281051,1.5224827482262253,0.5362664428279575,87.13898972718937
18.0,97.72274764112215,1.3633488987127058,0.5356205530358493,88.13878274786985
19.0,97.60486530238805,1.2208873704527075,0.534977094283757,89.13857837037175
20.0,97.48735893246862,1.0933480840929701,0.5343356643819727,90.13837595419594
21.0,97.37015432746452,0.979165373551108,0.5336958648177319,91.1381748759744
22.0,97.25317788606918,0.8769386572757172,0.5330573001833535,92.13797452397935
23.0,97.1363564937969,0.7854148451479148,0.5324195776120483,93.13777429278254
24.0,97.0196174083785,0.703472479642734,0.5317823062184843,94.13757357799665
25.0,96.90288814705369,0.6301080318624734,0.5311450965487391,95.13737177104468
26.0,96.7860963750663,0.5644235044130675,0.5305075600369593,96.13716825387203
27.0,96.66916979481859,0.5056154116156707,0.5298693084669102,97.1369623935086
28.0,96.5520360355257,0.45296451817245703,0.52922995343817,98.13675353643633
29.0,96.43462254340062,0.4058270888045078,0.5285891058380807,99.13654100268356
30.0,96.31685647195941,0.36362697167044383,0.5279463753184029,100.13632407954773
31.0,96.19866457176589,0.32584859238039693,0.5273013697743497,101.13610201483183
32.0,96.07997307968644,0.292030425119458,0.5266536948272633,102.13587400952296
33.0,95.96070760747412,0.2617593304699193,0.5260029533111874,103.13563920980944
34.0,95.84079303052353,0.23466557039485375,0.5253487447682497,104.13539669841181
35.0,95.72015337180787,0.21041836038920939,0.5246906649318629,105.13514548468949
36.0,95.59871168755971,0.1887214699513278,0.5240283052287531,106.13488449394279
37.0,95.47638995111838,0.16930983738622155,0.5233612522850842,107.13461255549768
38.0,95.3531089291389,0.15194639501115365,0.5226890874134216,108.13432838884623
39.0,95.22878806136741,0.13641890259365208,0.5220113861323361,109.13403058864843
40.0,95.10334533548412,0.12253755503693099,0.5213277176829063,110.13371760768068
41.0,94.9766971523424,0.11013266976117757,0.5206376445262927,111.13338773689338
42.0,94.84875819596645,0.09905245136902723,0.5199407218870223,112.13303908375465
43.0,94.71944129443341,0.08916130048217703,0.5192364972854671,113.13266954723025
44.0,94.58865726955028,0.08033812924085017,0.518524510058089,114.1322767885255
45.0,94.45631479167942,0.07247479827625553,0.5178042909363202,115.13185819915934
46.0,94.32232021991196,0.06547492413457444,0.5170753616081774,116.131410863602
47.0,94.1865774297552,0.05925265844614123,0.5163372342825444,117.13093151574333
48.0,94.04898764479499,0.053731610751174996,0.5155894113240099,118.13041649106346
49.0,93.90944924659918,0.04884401466501939,0.5148313848687269,119.12986167010872
50.0,93.76785757072166,0.04452985900190602,0.5140626364668794,120.1292624129726
51.0,93.62410470327535,0.040736161330957435,0.5132826368080056,121.12861348671476
52.0,93.47807924745909,0.03741639170055329,0.5124908454374097,122.12790897917522
53.0,93.32966606842531,0.03452990585986038,0.5116867105170679,123.12714219841149
54.0,93.17874604616996,0.032041468284308934,0.5108696687246692,124.12630556362483
55.0,93.02519575669986,0.02992086158967615,0.5100391450881946,125.12539046729326
56.0,92.86888718306484,0.028142567598115488,0.5091945530514211,126.12438713088518
57.0,92.70968733366699,0.026685478413831357,0.5083352944833851,127.12328442073539
58.0,92.54745787257998,0.02553275873489084,0.507460759913279,128.12206964925667
59.0,92.38205470638738,0.02467157704826607,0.5065703288793784,129.1207283443377
60.0,92.21332746646175,0.024093150214976412,0.5056633703285199,130.11924396342383
61.0,92.04111899821918,0.02379260283955092,0.5047392433230986,131.11759758212503
62.0,91.8664271668598,0.025212581268456942,0.5037972977722275,132.11576750420423
63.0,91.6888863018906,0.02782504112095074,0.5028368758061937,133.11372888994737
64.0,91.50766523555498,0.030736102343864494,0.5018573128972491,134.11145320024846
65.0,91.3226254685653,0.03398679015390524,0.5008579396511527,135.1089076428446
66.0,91.13362738063242,0.03762420309327623,0.4998380838753605,136.1060544858666
67.0,90.94053097194038,0.0417024511059514,0.4987970731097588,137.10285027719735
68.0,90.74319680693762,0.04628374450307894,0.4977342376481314,138.0992449355421
69.0,90.54148722192863,0.05143967277578658,0.496648914157983,139.09518067921516
70.0,90.33526788776132,0.057252683782823145,0.4955404500036719,140.09059078011114
71.0,90.12440976776789,0.06381777358017275,0.4944082083259873,141.08539813393827
72.0,89.90879157262997,0.0712444591334221,0.4932515740334451,142.0795135842874
73.0,89.68830286560221,0.07965909192444953,0.49206996090812316,143.0728339475531
74.0,89.4628479497728,0.08920748317017428,0.4908628198528645,144.06523975649358
75.0,89.23235065845486,0.10005793763236762,0.48962964848976626,145.0565926408793
76.0,88.99676032245813,0.11240479736999642,0.4883700024252535,146.04673225209743
77.0,88.75605923580243,0.1264725129414856,0.48708350833502095,147.03547270322795
78.0,88.51027175234863,0.14252025306973545,0.48576987891401624,148.0225985118303
79.0,88.2594754669067,0.16084723011191626,0.48442893018623345,149.0078598839508
80.0,88.00381506045125,0.18179886724732827,0.4830606016168923,149.99096721346623
81.0,87.74351916186325,0.2057736811237775,0.48166497876782505,150.97158488182563
82.0,87.47892067901992,0.23323108733,0.4802423190367995,151.9493241742218
83.0,87.21048154283983,0.2647003197404281,0.47879308111789276,152.9237351164942
84.0,86.9388227823022,0.30079039579038674,0.4773179581178992,153.8942972444956
85.0,86.66476000213432,0.3422010179857472,0.4758179139594742,154.86040938765427
86.0,86.3893455347051,0.38973469598188987,0.47429422395074733,155.8213781766692
87.0,86.11391858551032,0.44431014741561053,0.47274851981500876,156.77640515904875
88.0,85.84016326993215,0.5069763397596838,0.47118283733306326,157.72457301926855
89.0,85.57017457815675,0.5789273190366375,0.4695996669223392,158.66483075340477
90.0,85.30653323025419,0.6615177557999399,0.46800200707435696,159.59597776255634
91.0,85.05238897743583,0.7562783755271012,0.4663934182820001,160.5166474850438
92.0,84.81154782872765,0.8649303247197709,0.46477807432904317,161.4252914145586
93.0,84.58856136130129,0.9893982198416391,0.46316081024781713,162.32016363089525
94.0,84.38881341306627,1.1318207891018217,0.46154716373374693,163.1993066917062
95.0,84.21859290988122,1.294556713689463,0.45994340257967364,164.0605410194711
96.0,84.08513968804733,1.4801848443466286,0.45835653524954034,164.90145859034428
97.0,83.99664893639479,1.6914971794424156,0.4567942997503235,165.71942229303036
98.0,83.96221281386975,1.9314819064207482,0.45526512250877305,166.51157341793316
99.0,83.99166906004957,2.2032946325354206,0.45377804059388105,167.27484937880672
100.0,84.09533210261313,2.510216966535422,0.452342584627344,168.0060125155929
101.0,84.28357571703309,2.855600783939017,0.45096861699535656,168.7016916992381
102.0,84.56624423192973,3.242797682099728,0.4496661230877983,169.3584378305977
103.0,84.9518788704359,3.6750759257280854,0.44844496123033123,169.97279181252924
104.0,85.4467489029345,4.155525172871742,0.44731457277219117,170.5413644949472
105.0,86.05377651051973,4.686957042073756,0.4462836755773884,171.060923059662
106.0,86.77131573243929,5.271799822417387,0.4453599351975826,171.52848407734345
107.0,87.59203054348049,5.912003454265644,0.44454966233657234,171.94140100515634
108.0,88.50191425373033,6.608954522086719,0.44385753719689247,172.2974445920752
109.0,89.47958606168399,7.363404467570784,0.44328636793966975,172.5948738597004
110.0,90.49621307538648,8.175433386752747,0.4428369559140627,172.83247790750934
111.0,91.51598874515662,9.044437755570264,0.4425080310459146,173.00959727508976
112.0,92.49720943495717,9.969135768637452,0.44229623964149745,173.12612964927717
113.0,93.3941627226636,10.9476134499327,0.44219625354099834,173.1825010747917
114.0,94.1594797791166,11.977387131553474,0.4422009332377192,173.17962104312267
115.0,94.74683020094135,13.055484458901146,0.44230154919222964,173.11882052346328
116.0,95.11366667340158,14.178536322371029,0.442488040058527,173.0017791246971
117.0,95.22372213548184,15.342873178564686,0.4427492886868677,172.8304470370129
118.0,95.04898186208725,16.544619780582824,0.4430733986657517,172.60696690155655
119.0,94.57098720394464,17.779783732343862,0.44344795496470024,172.3336003295848
120.0,93.7812483238872,19.044333942460494,0.4438602626503229,172.0126613060678
121.0,92.6809738658095,20.33426786639464,0.44429755124444265,171.64645956658995
122.0,91.28001989839842,21.645665047993045,0.4447471460960299,171.23725416583125
123.0,89.59539668302304,22.974728660261924,0.4451966041162916,170.78721758567224
124.0,87.64948131047247,24.317815252267966,0.44563381731881,170.29840954448088
125.0,85.46815940662772,25.671454218948153,0.44604708755007916,169.77275946199134
126.0,83.07907594698717,27.0323585810773,0.4464251767300363,169.2120562922655
127.0,80.51012670506171,28.397428712364093,0.44675733713055243,168.61794437806378
128.0,77.78826708785866,29.76375057634254,0.4470333260574188,167.99192403145202
129.0,74.93866368218066,31.128589883899867,0.44724340890268044,167.33535566676647
130.0,71.98417232099847,32.48938339049865,0.4473783540089006,166.64946647000514
131.0,68.94509806540209,33.84372834815493,0.4474294222168151,165.9353587587174
132.0,65.83917710787881,35.18937095305358,0.447388353464797,165.1940193397272
133.0,62.681717141939096,36.52419442457506,0.44724735229860607,164.42632932989497
134.0,59.48583975529302,37.84620701733643,0.44699907309908665,163.63307415481353
135.0,56.2627746251636,39.15353033405008,0.44663660580302245,162.81495342945098
136.0,53.02215163228591,40.444389572039135,0.44615346742575346,161.97258968704267
137.0,49.772306853231406,41.7171024387276,0.44554358877751277,161.1065378902592
138.0,46.52053763468622,42.97007059796072,0.44480130840340704,160.21729332494377
139.0,43.2733267076509,44.20177167443896,0.443921368530414,159.30529905455973
140.0,40.03652837112814,45.410752596900394,0.4428989103049552,158.37095285617607
141.0,36.815513833033656,46.59562393627182,0.44172948050684574,157.4146129827707
142.0,33.61529449452293,47.755053746228,0.4404090271753798,156.43660445118704
143.0,30.440606038385184,48.88776357892172,0.4389339021244478,155.43722398426675
144.0,27.295970264628878,49.992525243139454,0.4373008657218109,154.41674438702407
145.0,24.185738238156564,51.068158942184475,0.4355070973505072,153.37541836536496
146.0,21.114120742131245,52.113530831978494,0.4335502029921977,152.3134822521805
147.0,18.08520693908887,53.12755138959587,0.4314282174504162,151.2311593484399
148.0,15.10297291691689,54.109174868587495,0.42913961156792607,150.12866264406006
149.0,12.17128448271665,55.057399914329004,0.42668330104458474,149.00619721247853
150.0,8.889612070956211,56.375444414297476,0.5137613575638835,50.00567466081126
151.0,4.677536767049385,58.640532509005055,0.5177773151741898,45.58375768851376
152.0,0.48520223954525854,60.90396425609783,0.517094904365711,43.095546251899755
153.0,0.0,62.807716362865726,0.5143566562424694,41.374637897274596
154.0,0.0,64.17880151945555,0.5104642901959588,40.06327906507832
155.0,0.0,64.95749399397936,0.5058456999723469,39.00424438415825
156.0,0.0,65.15844446433363,0.5007416129461905,38.114691999169274
157.0,0.0,64.84201022584519,0.4953026864389895,37.34582229002541
158.0,0.0,64.09189143982434,0.48963037201054976,36.666645896188946
159.0,0.0,62.99864682935974,0.4837967191277343,36.05639822211291
160.0,0.0,61.64861632254074,0.47785502090044973,35.5005916484588
161.0,0.0,60.117560495332484,0.47184597477270407,34.98879562268081
162.0,0.0,58.46793274338897,0.4658014539356171,34.51331379200394
163.0,0.0,56.74869989657194,0.459746950968466,34.06834912201754
164.0,0.0,54.99664871851197,0.4537032074987526,33.64946082852527
165.0,0.0,53.2383974828396,0.4476873458761576,33.25319684393116
166.0,0.0,51.4925585597872,0.4417136756457461,32.8768386141742
167.0,0.0,49.77171809695788,0.43579427798163867,32.518220651759755
168.0,0.0,48.084112697063254,0.4299394503216342,32.17559785264324
169.0,0.0,46.43490935202498,0.4241580277155965,31.84755094513704
170.0,0.0,44.82718328516879,0.4184576425374542,31.53291359362498
171.0,0.0,43.26260917399691,0.41284492220885494,31.23071797450966
172.0,0.0,41.741937967115575,0.407325643173411,30.940153728008205
173.0,0.0,40.26532121944335,0.4019048569702881,30.660535438751275
174.0,0.0,38.83252806071825,0.3965870028660216,30.391276905852337
175.0,0.0,37.443075452198826,0.3913759484344129,30.131877944790705
176.0,0.0,36.09630676730344,0.3862751212922335,29.881894829443173
177.0,0.0,34.79151109046612,0.3812874475238284,29.640956604137507
178.0,0.0,33.52791548171767,0.3764156346341251,29.408715200805897
179.0,0.0,32.30465654726455,0.3716619128400931,29.184871693747876
180.0,0.0,31.12083878631909,0.3670282586890383,28.969154682451684
181.0,0.0,29.975597288521378,0.3625163829990507,28.76131905950588
182.0,0.0,28.8680572696387,0.358127737166855,28.56114189670799
183.0,0.0,27.79733088987175,0.3538635507606734,28.36841888723269
184.0,0.0,26.76252235056352,0.3497248499866574,28.18296158700272
185.0,0.0,25.762735055867207,0.34571247087253987,28.00459559155258
186.0,0.0,24.79707622631197,0.34182707781802263,27.83315860393455
187.0,0.0,23.86465824784357,0.33806917806956255,27.668498942170498
188.0,0.0,22.964599235155035,0.3344391334971526,27.510474381494653
189.0,0.0,22.09602584244444,0.3309371742549933,27.358951101992794
190.0,0.0,21.258074464533124,0.3275634097457451,27.21380285189947
191.0,0.0,20.449890836082055,0.32431783896835015,27.07491020645865
192.0,0.0,19.670633420084634,0.32120036031307825,26.94216000983836
193.0,0.0,18.91947448706544,0.31821078133667285,26.81544481335117
194.0,0.0,18.195601549646838,0.3153488271154034,26.694662445957352
195.0,0.0,17.498219501697214,0.31261414818133576,26.579715649154057
196.0,0.0,16.826553297233026,0.31000632856695964,26.470511725849516
197.0,0.0,16.179850951018746,0.3075248927631794,26.36696226660248
198.0,0.03169269029494368,15.557386430479502,0.30516931249573837,26.268982892636803
199.0,0.688448038250099,14.95846360396941,0.30293901307182464,26.176493032847755
200.0,1.387199223287121,14.382420600923723,0.30083337926405207,26.08941572703304
201.0,2.1292813478546058,13.828634508609415,0.2988517608313328,26.00767744708921
202.0,2.915571636751116,13.296526717085863,0.29699347754916233,25.93120794423672
203.0,3.74644841057888,12.785567292568956,0.29525782423191727,25.85994008527569
204.0,4.621779149004583,12.29528193487503,0.29364407465870257,25.793809736614147
205.0,5.540886665280036,11.825259662512416,0.292151485085567,25.73275571973225
206.0,6.502580785860278,11.375152504548625,0.29077929896484217,25.676719481263625
207.0,7.50504803261477,10.944680760211886,0.2895267502055776,25.625645215926703
208.0,8.545950102351817,10.533639634663764,0.288393065230561,25.579479674402762
209.0,9.622407024886524,10.141899947303017,0.28737746602358866,25.5381720908652
210.0,10.73101171967407,9.769406746353878,0.2864791728465301,25.501674070225057
211.0,11.8678782788607,9.41618104021783,0.2856974056297813,25.46993954261331
212.0,13.028685674337078,9.08231621057006,0.2850313857515806,25.44292467230689
213.0,14.208730749929977,8.767973293309284,0.2844803374396939,25.420587788454903
214.0,15.402994079333782,8.473374472662302,0.28404348883557107,25.402889316692335
215.0,16.606214909670335,8.198794802382393,0.283720072776503,25.38979171381159
216.0,17.81297329594298,7.944552340559001,0.2835093273053909,25.381259405213633
217.0,19.017776735572024,7.710996960490509,0.2834104959180098,25.377258724903676
218.0,20.215147923000565,7.498498111157917,0.28342282755790893,25.37775785783344
219.0,21.399709635214293,7.307431884627158,0.2835455763693343,25.382726784424552
220.0,22.566260883521483,7.138167677048363,0.2837780012613485,25.392137226128746
221.0,23.709845856455978,6.991054908957924,0.2841193651819374,25.40596259967503
222.0,24.825806942854445,6.8664106045159965,0.2845689340668921,25.424177956121646
223.0,25.90980685943697,6.764505958501645,0.2851259762023202,25.446759945198192
224.0,26.957869588995806,6.685557446931712,0.285789760019104,25.473686753358432
225.0,27.966349294074263,6.629713963247984,0.28655955363585633,25.504938076350157
226.0,28.931936328515224,6.5970487098493376,0.28743462243616374,25.54049508124911
227.0,29.851590659989363,6.587550491974918,0.288414228217571,25.580340352276327
228.0,30.722542172891092,6.601123105166354,0.2894976262304286,25.624457811723705
229.0,31.54225297109253,6.6375737129018315,0.290684063097477,25.672832766148012
230.0,32.30832817452479,6.696607421466453,0.29197277597919513,25.72545185824723
231.0,33.018531719913604,6.777839314551188,0.2933629901207361,25.78230289712098
232.0,33.67086473700565,6.88077611717601,0.2948539121056215,25.843375059033924
233.0,34.26333878355402,7.004826647546041,0.2964447361860479,25.90865865480987
234.0,34.79431648698785,7.149307669698251,0.2981346316266033,25.97814517920378
235.0,35.26224678532189,7.313432184888878,0.29992274849335193,26.051827346026474
236.0,35.665881185629665,7.496329019027835,0.3018082115607756,26.129698958682166
237.0,36.00435295421713,7.697043421869418,0.3037901160977329,26.211754955609152
238.0,36.27716287812064,7.914540962762824,0.30586752688177704,26.297991424602724
239.0,36.48424544512328,8.14772300292423,0.30803947647319,26.388405513281153
240.0,36.62606229450121,8.39543431224345,0.31030496035115407,26.482995460517046
241.0,36.70359553660366,8.656471488038356,0.31266293395621303,26.58176065450782
242.0,36.718340350391614,8.92959928975494,0.3151123122642915,26.684701554402942
243.0,36.67233559968869,9.213562180871618,0.31765196570889404,26.791819715237146
244.0,36.56813647880097,9.507096496458198,0.3202807150433654,26.9031178917516
245.0,36.40873865590114,9.808944245788238,0.3229973317837824,27.01859998742798
246.0,36.197547418380196,10.117863923630454,0.3258005352820022,27.138271079513515
247.0,35.938322261985384,10.432643252726228,0.3286889858954105,27.262137572008637
248.0,35.635082973967194,10.752106633366253,0.33166128519350524,27.390207194044844
249.0,35.29205140287143,11.075120624863043,0.33471597439273854,27.522489032091464
250.0,34.91358415818153,11.400601634861188,0.3378515267372477,27.65899374291378
251.0,34.504106769974335,11.727516296486055,0.34106634593192675,27.799733632465337
252.0,34.06806397047278,12.054879059483925,0.34435876608149624,27.94472270489115
253.0,33.60986467253631,12.381752102535447,0.34772704395632903,28.093976951377492
254.0,33.13385580736858,12.707240786350276,0.35116935430638707,28.247514560126188
255.0,32.64430076207671,13.030485777810897,0.354683791016798,28.405355996578894
256.0,32.14534678802012,13.350657699155555,0.3582683596534968,28.56752438586494
257.0,31.641026684744524,13.666951718274019,0.3619209685214571,28.734045936247878
