Time,J,A,S,tau
0.0,100.0,10.0,0.813705064549316,2.375296912114014
1.0,92.07387305183642,12.100425057506335,0.8097217785622168,2.375296912114014
2.0,84.01025663690778,14.034601205757578,0.8057192376422406,2.375296912114014
3.0,75.8001985274447,16.009549325795728,0.80418772949398,2.375296912114014
4.0,68.30439945112782,17.355296171095066,0.8041275452628699,2.375296912114014
5.0,61.81672436038,18.015942839491697,0.8040702360210015,2.375296912114014
6.0,56.2859320910536,18.156754851627962,0.8040158201528763,2.375296912114014
7.0,51.49705977352791,18.0332928429774,0.8039643151220444,2.375296912114014
8.0,47.27235581964932,17.815298182385888,0.803915737464245,2.375296912114014
9.0,43.4851689158819,17.597887733522636,0.8038701027813293,2.375296912114014
10.0,40.05179743440156,17.42257609040727,0.8038274257347616,2.375296912114014
11.0,36.915944178562654,17.301212314670018,0.803787720039983,2.375296912114014
12.0,34.03957451917036,17.229839835200266,0.8037509984630516,2.375296912114014
13.0,31.39657404453623,17.197554956770777,0.8037172728102976,2.375296912114014
14.0,28.968160966260637,17.191804814951237,0.8036865539307753,2.375296912114014
15.0,26.739523472419748,17.201387622948562,0.8036588517087805,2.375296912114014
16.0,24.697655573168802,17.217821856234785,0.803634175056648,2.375296912114014
17.0,22.830074149445682,17.23555060799508,0.8036125319171636,2.375296912114014
18.0,21.124308180320657,17.25151952455668,0.8035939292589829,2.375296912114014
19.0,19.567893356307167,17.264486905340622,0.8035783730710656,2.375296912114014
20.0,18.148595116959246,17.27432259585441,0.8035658683612608,2.375296912114014
21.0,16.854655708957864,17.281451491287807,0.803556419156471,2.375296912114014
22.0,15.675001966397465,17.286478158611146,0.8035500285011324,2.375296912114014
23.0,14.599371415231712,17.289971123901957,0.8035466984540217,2.375296912114014
24.0,13.618374412382312,17.292367117513535,0.8035464300862782,2.375296912114014
25.0,12.723473593928963,17.293953267712723,0.8035492234839381,2.375296912114014
26.0,11.906932239852301,17.294888313836307,0.8035550777481405,2.375296912114014
27.0,11.161742249260282,17.29523823383104,0.8035639909945225,2.375296912114014
28.0,10.481558411517396,17.295011907455535,0.8035759603511639,2.375296912114014
29.0,9.860623840764395,17.294189806682127,0.8035909819626987,2.375296912114014
30.0,9.29370390926966,17.292743290547783,0.8036090509925432,2.375296912114014
31.0,8.776029789756773,17.290645801096918,0.8036301616244849,2.375296912114014
32.0,8.30325444696113,17.287877988604453,0.8036543070618323,2.375296912114014
33.0,7.8714132493510345,17.284428833998565,0.8036814795324358,2.375296912114014
34.0,7.476888548819992,17.280294714945097,0.8037116702914029,2.375296912114014
35.0,7.116378279394922,17.27547766981537,0.803744869625625,2.375296912114014
36.0,6.786868281428318,17.269983633402774,0.8037810668565888,2.375296912114014
37.0,6.485608089412815,17.263820988146378,0.8038202503439884,2.375296912114014
38.0,6.210089783222679,17.256999524675336,0.8038624074902524,2.375296912114014
39.0,5.958026408232174,17.249529854614654,0.8039075247452411,2.375296912114014
40.0,5.727333873198434,17.241423088664785,0.8039555876129465,2.375296912114014
41.0,5.516111568941893,17.23269079402953,0.8040065806560819,2.375296912114014
42.0,5.322627167534828,17.223344996140487,0.8040604875021907,2.375296912114014
43.0,5.145301039715208,17.213398269756286,0.8041172908512972,2.375296912114014
44.0,4.9826951477709605,17.20286374093651,0.8041769724783564,2.375296912114014
45.0,4.833498520655281,17.19175519133179,0.804239513244922,2.375296912114014
46.0,4.696516431545508,17.180087082034753,0.8043048931044315,2.375296912114014
47.0,4.570659730711363,17.167874585273424,0.8043730911117839,2.375296912114014
48.0,4.454937212573229,17.155133518709295,0.8044440854257056,2.375296912114014
49.0,4.348445478505181,17.141880368935908,0.804517853324129,2.375296912114014
50.0,4.250361310263662,17.128132272326976,0.8045943712102611,2.375296912114014
51.0,4.159934639286007,17.11390700777174,0.8046736146194704,2.375296912114014
52.0,4.076483033618462,17.09922287273451,0.8047555582343068,2.375296912114014
53.0,3.9993853313910828,17.084098704402944,0.8048401758868732,2.375296912114014
54.0,3.9280749824690178,17.06855393689027,0.8049274405733878,2.375296912114014
55.0,3.862037234861491,17.052608449998857,0.805017324455396,2.375296912114014
56.0,3.8008024544152614,17.03628264144392,0.8051097988879592,2.375296912114014
57.0,3.7439426765273085,17.01959737633842,0.8052048344274358,2.375296912114014
58.0,3.6910712940173602,17.002573696294576,0.8053024008205197,2.375296912114014
59.0,3.6418343498297903,16.985233279532697,0.8054024670285183,2.375296912114014
60.0,3.5959089888457596,16.967598197687295,0.8055050012563462,2.375296912114014
61.0,3.5530038444764345,16.94969054443492,0.8056099709540376,2.375296912114014
62.0,3.512853344598998,16.931532934185444,0.8057173427916329,2.375296912114014
63.0,3.4752139250001077,16.913148379179958,0.8058270827381301,2.375296912114014
64.0,3.4398674449774154,16.894559703546673,0.8059391560378079,2.375296912114014
65.0,3.4066140822999365,16.875790320065057,0.8060535271859934,2.375296912114014
66.0,3.375270134237816,16.856863790890504,0.806170160058123,2.375296912114014
67.0,3.345674114063253,16.83780349386587,0.806289017755267,2.375296912114014
68.0,3.317673403272235,16.818633384524343,0.80641006278221,2.375296912114014
69.0,3.291133983383138,16.799377084457205,0.8065332569684723,2.375296912114014
70.0,3.2659307969542666,16.780058672137308,0.8066585614639433,2.375296912114014
71.0,3.2419537592349608,16.760701848866425,0.8067859368709891,2.375296912114014
72.0,3.2190991795698602,16.741330693181958,0.8069153430795054,2.375296912114014
73.0,3.197278222058189,16.721968938439137,0.8070467394813895,2.375296912114014
74.0,3.1764026425605025,16.702640477322166,0.8071800848116079,2.375296912114014
75.0,3.156405209465837,16.683369125103383,0.8073153372298745,2.375296912114014
76.0,3.1372135619842414,16.664178496199682,0.8074524544274181,2.375296912114014
77.0,3.1187620221758463,16.64509196051889,0.8075913935203249,2.375296912114014
78.0,3.100996185945264,16.626132859282503,0.8077321110334116,2.375296912114014
79.0,3.0838699789360975,16.607324578279318,0.8078745630697698,2.375296912114014
80.0,3.0673337032573236,16.588689850011615,0.80801870521209,2.375296912114014
81.0,3.051339886784824,16.570250911628264,0.8081644926043694,2.375296912114014
82.0,3.0358589856884732,16.552030613686462,0.8083118797990392,2.375296912114014
83.0,3.0208610787647516,16.534051441917732,0.8084608210633201,2.375296912114014
84.0,3.006310117248956,16.51633484080932,0.8086112701609001,2.375296912114014
85.0,2.992178948389353,16.49890225669271,0.8087631804540784,2.375296912114014
86.0,2.978442595411927,16.481774699718486,0.8089165049126589,2.375296912114014
87.0,2.965078693144661,16.464972862099966,0.8090711961262207,2.375296912114014
88.0,2.9520671652062354,16.448517048164337,0.8092272063218288,2.375296912114014
89.0,2.939389807781009,16.432427140700174,0.8093844873804171,2.375296912114014
90.0,2.9270304205447815,16.416722603181825,0.8095429908539175,2.375296912114014
91.0,2.9149739023683345,16.40142238195752,0.8097026679807001,2.375296912114014
92.0,2.9032074250896374,16.386545026266532,0.8098634697039068,2.375296912114014
93.0,2.891719932148033,16.372108628655994,0.8100253466845978,2.375296912114014
94.0,2.880499948670145,16.358130606607826,0.8101882493233755,2.375296912114014
95.0,2.8695378817975916,16.34462791771345,0.8103521277733231,2.375296912114014
96.0,2.8588249878342036,16.33161695000339,0.8105169319579137,2.375296912114014
97.0,2.8483535025977087,16.319113550617423,0.8106826115873952,2.375296912114014
98.0,2.8381162618106375,16.30713297349737,0.8108491161756205,2.375296912114014
99.0,2.828106861192173,16.29568989255713,0.8110163950565515,2.375296912114014
100.0,2.8183193673008056,16.284798364969443,0.8111843974012446,2.375296912114014
101.0,2.808748144209945,16.274471802176407,0.8113530722333075,2.375296912114014
102.0,2.79938883880327,16.26472308137756,0.811522368447273,2.375296912114014
103.0,2.7902372302916083,16.255564418457457,0.811692234823655,2.375296912114014
104.0,2.7812899318998583,16.247007421653894,0.8118626200453699,2.375296912114014
105.0,2.772542608935128,16.23906290518413,0.8120334727153917,2.375296912114014
106.0,2.763991854584064,16.231741075990634,0.8122047413720068,2.375296912114014
107.0,2.7556344597152886,16.225051452111334,0.8123763745054513,2.375296912114014
108.0,2.74746748767222,16.219002880345045,0.8125483205740417,2.375296912114014
109.0,2.739488099064794,16.213603508935893,0.812720528020321,2.375296912114014
110.0,2.7316936472421,16.208860792710972,0.8128929452870806,2.375296912114014
111.0,2.7240815727595864,16.204781476775857,0.81306552083329,2.375296912114014
112.0,2.7166494394430014,16.201371596799856,0.813238203149969,2.375296912114014
113.0,2.7093948677524096,16.19863646822133,0.813410940775889,2.375296912114014
114.0,2.7023155537939503,16.19658068534132,0.8135836823132482,2.375296912114014
115.0,2.6954092238053993,16.19520811377987,0.8137563764431457,2.375296912114014
116.0,2.688673643219236,16.1945218893171,0.8139289719410224,2.375296912114014
117.0,2.682106586127121,16.1945244127263,0.8141014176919024,2.375296912114014
118.0,2.675705836240684,16.195217348511576,0.8142736627055678,2.375296912114014
119.0,2.669469170814492,16.196601621991746,0.8144456561315574,2.375296912114014
120.0,2.663394351690019,16.19867741775986,0.8146173472740504,2.375296912114014
121.0,2.657479125326657,16.20144417921054,0.8147886856066123,2.375296912114014
122.0,2.651721201076617,16.204900606459198,0.8149596207867613,2.375296912114014
123.0,2.646118269431948,16.20904465858265,0.8151301026704538,2.375296912114014
124.0,2.6406679648853886,16.213873550769303,0.8153000813263103,2.375296912114014
125.0,2.6353679039784583,16.219383759485243,0.8154695070498319,2.375296912114014
126.0,2.6302156310744462,16.22557101873787,0.8156383303772636,2.375296912114014
127.0,2.6252086766301677,16.23243032824425,0.8158065020995369,2.375296912114014
128.0,2.620344485732808,16.23995594886242,0.815973973275747,2.375296912114014
129.0,2.615620495288444,16.2481414136437,0.8161406952468205,2.375296912114014
130.0,2.6110340472955973,16.25697952272113,0.8163066196485813,2.375296912114014
131.0,2.6065824811861824,16.266462356860846,0.8164716984251481,2.375296912114014
132.0,2.602263036803866,16.276581272420025,0.8166358838415603,2.375296912114014
133.0,2.598072954547457,16.28732691663772,0.8167991284969165,2.375296912114014
134.0,2.594009377414205,16.298689223726807,0.8169613853362223,2.3752969121184164
135.0,2.59004855898274,16.310678656184447,0.8171240988247883,2.3752754752864673
136.0,2.5863316853440583,16.323120574418642,0.8172755415600486,2.3754005931887696
137.0,2.584755149806287,16.334323619331123,0.8172989469551258,2.3773531745681358
138.0,2.5858991335553267,16.34404775724138,0.8171823885714042,2.3813096568326046
139.0,2.5884431481485444,16.353821476575984,0.817030466643188,2.3857662705939786
140.0,2.5914827906396583,16.36445743633278,0.8168789332293324,2.3902074662699655
141.0,2.5945567028098147,16.376245724410744,0.8167278388191669,2.3946317324357906
142.0,2.597443786319914,16.389212453463717,0.8165772346579557,2.399037543347571
143.0,2.600082045329264,16.403238530572025,0.8164271726716248,2.403423360538928
144.0,2.6025012997167463,16.418168465877862,0.8162777057588263,2.407787627961234
145.0,2.6047811767814917,16.433847182706153,0.8161288873192268,2.412128780617859
146.0,2.606956781738873,16.450144200573067,0.8159807715675156,2.4164452392788025
147.0,2.6090942702817053,16.466967048914277,0.8158334135508691,2.420735410623486
148.0,2.61122254599738,16.484238980564925,0.8156868687424533,2.424997694217177
149.0,2.6133645329422417,16.501916468877116,0.8155411936853683,2.429230472478186
150.0,2.6155419199373062,16.519963475296862,0.8153964452710868,2.4334321224378677
151.0,2.6177495417882573,16.5383551769465,0.8152526811783901,2.437601009198788
152.0,2.6199712766917407,16.557070164635203,0.8151099594533595,2.4417354921291805
153.0,2.622202806276113,16.5760901984421,0.8149683392525556,2.4458339159228397
154.0,2.624458787407619,16.59539886141008,0.8148278803018977,2.449894617988592
155.0,2.6267504343235015,16.614979488743096,0.8146886423284186,2.453915935639107
156.0,2.629041000404978,16.63481074745058,0.8145506855862594,2.45789619968668
157.0,2.6313242348450276,16.654870822029583,0.8144140714468804,2.4618337304247824
158.0,2.6336099692498736,16.675138723209265,0.8142788614160983,2.4657268471882743
159.0,2.635899755430599,16.6955928320546,0.81414511703134,2.469573868765475
160.0,2.638165953016663,16.71620837529399,0.8140129004368875,2.4733731108559858
161.0,2.6404091344098015,16.736961506392657,0.8138822743155573,2.4771228895062003
162.0,2.642633688399435,16.757828607268536,0.8137533013683521,2.480821520937611
163.0,2.644833932851399,16.778785703227626,0.8136260443797653,2.4844673180991457
164.0,2.6469944888054684,16.799807728433947,0.8135005664507573,2.4880586035398733
165.0,2.649113787245036,16.82086957181783,0.8133769307364661,2.491593713406408
166.0,2.6511904752881565,16.841946126230535,0.813255200391416,2.4950709839792435
167.0,2.6532232000528846,16.863012284523325,0.8131354385701315,2.498488751538872
168.0,2.655211445199848,16.884043483633157,0.8130177084587468,2.501845353707314
169.0,2.6571513344349356,16.90501558183131,0.8129020728946535,2.5051391550016726
170.0,2.6590318915768036,16.925902468213753,0.8127885942216138,2.5083685413559405
171.0,2.6608418696789182,16.94667792878258,0.8126773347669461,2.511531899174141
172.0,2.6625793406137315,16.967316869546384,0.8125683568843928,2.5146276148216584
173.0,2.664260944383559,16.987796681751355,0.812461722066679,2.517654108102627
174.0,2.6658708346922846,17.008091141308427,0.8123574906727075,2.520609837168495
175.0,2.667390505817646,17.028173715289388,0.8122557230149597,2.5234932616079813
176.0,2.6688083896590076,17.04801859092069,0.812156479218321,2.526302847070337
177.0,2.6701392029562387,17.067602981564214,0.8120598180260675,2.5290371032592494
178.0,2.6713818748014706,17.086903050160338,0.8119657974051927,2.531694563213948
179.0,2.6725330382397763,17.105895072007975,0.811874474431495,2.534273786186173
180.0,2.673589676772454,17.12455535236948,0.811785905164185,2.536773360825646
181.0,2.6745490917205563,17.142860405108475,0.8117001445617876,2.53919190700296
182.0,2.6754087958353145,17.160787034769303,0.811617246400722,2.5415280775507987
183.0,2.6761665416137603,17.17831241537805,0.8115372631925674,2.5437805600401444
184.0,2.6768202436560657,17.195414137056233,0.8114602461025827,2.545948078520142
185.0,2.6773680467965257,17.212070255757098,0.8113862448686572,2.5480293952478217
186.0,2.6778082361254794,17.228259317362017,0.8113153077211277,2.5500233123953553
187.0,2.6781393308282158,17.243960397620043,0.811247481304349,2.551928673715896
188.0,2.678359995916983,17.25915311985113,0.8111828105988166,2.5537443661979804
189.0,2.678469140135679,17.273817692461595,0.8111213388462898,2.5554693216496176
190.0,2.678465836729748,17.287934926931385,0.8110631074753962,2.5571025182753573
191.0,2.678349393015826,17.3014862724003,0.8110081560308469,2.5586429821703347
192.0,2.678119299692791,17.314453837109827,0.8109565221037772,2.560089788793618
193.0,2.677775276055501,17.32682042039594,0.8109082412659429,2.5614420643548987
194.0,2.6773172387208235,17.338569535994303,0.8108633470057882,2.562698987164195
195.0,2.67674532652974,17.349685441094486,0.8108218706684648,2.563859788894762
196.0,2.6760598851576023,17.360153160267682,0.8107838413985422,2.5649237557908426
197.0,2.67526147516324,17.369958511256748,0.8107492860866553,2.5658902297908797
198.0,2.674350869955539,17.37908812860117,0.8107182293196845,2.566758609576849
199.0,2.67332904951024,17.38752948597367,0.8106906933347678,2.5675283515431646
200.0,2.672197209742425,17.39527091886694,0.8106666979776822,2.5681989706729618
201.0,2.6709567439268174,17.402301643404353,0.8106462606648616,2.5687700413399845
202.0,2.669609261590083,17.408611777597798,0.8106293963506079,2.569241197999222
203.0,2.668156559761481,17.414192356655203,0.8106161174976452,2.569612135811234
204.0,2.66660064908183,17.41903535233923,0.8106064340536702,2.5698826111368693
205.0,2.664943717643675,17.4231336848987,0.8106003534308522,2.570052441975894
206.0,2.663188161124381,17.426481239992707,0.8105978804921025,2.57012150825809
207.0,2.6613365431344485,17.429072877515445,0.8105990175398047,2.5700897520904857
208.0,2.6593916247781046,17.430904445420673,0.8106037643120323,2.5699571778401364
209.0,2.657356327154126,17.431972785907828,0.8106121179806786,2.569723852186545
210.0,2.6552337537517223,17.432275745293538,0.810624073157681,2.5693899039948103
211.0,2.653027163099204,17.431812178300465,0.8106396219026165,2.568955524171753
212.0,2.6507399747491944,17.430581952875315,0.8106587537388013,2.568420965332121
213.0,2.6483757630976585,17.42858595363853,0.8106814556703393,2.567786541458143
214.0,2.6459382344479554,17.425826080263352,0.8107077122077426,2.567052627366272
215.0,2.6434312565426215,17.422305251506767,0.8107375053943906,2.566219658170034
216.0,2.640858790566488,17.418027395465906,0.8107708148410446,2.565288128560702
217.0,2.638224974589075,17.412997455954258,0.8108076177617106,2.5642585920717993
218.0,2.6355339910396838,17.407221372723757,0.8108478890160973,2.5631316601945464
219.0,2.632790221561313,17.40070609179927,0.8108916011549597,2.561908001439348
220.0,2.62999796632387,17.393459527500614,0.8109387244682166,2.560588340339368
221.0,2.6271617648565253,17.38549058656755,0.8109892270396979,2.5591734563084145
222.0,2.6242861461172646,17.37680913029308,0.8110430748022499,2.557664182498154
223.0,2.6213758211825704,17.367425981094392,0.8111002316013137,2.5560614044590504
224.0,2.618435489610425,17.357352888302408,0.8111606592546048,2.5543660589078057
225.0,2.61546996180455,17.34660252352457,0.8112243176230078,2.552579132224409
226.0,2.612484099823858,17.335188457931896,0.8112911646757159,2.5507016591038583
227.0,2.60948276828857,17.32312513627286,0.811361156566049,2.5487347209431417
228.0,2.6064709881950208,17.310427873388278,0.811434247703081,2.546679444344743
229.0,2.6034534656851025,17.297112782182996,0.8115103908266839,2.544536999535532
230.0,2.600435097883998,17.283196805929283,0.8115895370827992,2.5423085987954783
231.0,2.5974207745804905,17.268697671805434,0.8116716361037877,2.5399954947531374
232.0,2.5944155373589894,17.253633879332234,0.8117566360953382,2.5375989785062854
233.0,2.5914244202591057,17.238024657680104,0.8118444839131438,2.5351203780165457
234.0,2.5884523772548,17.221889927375926,0.8119351251512414,2.5325610561806253
235.0,2.585503640424177,17.205250208030314,0.812028504212603,2.5299224094000223
236.0,2.5825835428994597,17.18812677759316,0.8121245644010527,2.5272058655650773
237.0,2.5796969132102316,17.170541474508628,0.812223248002784,2.5244128823023613
238.0,2.576848487677571,17.152516712795652,0.8123244963689009,2.5215449451990355
239.0,2.574043045610119,17.13407545209841,0.8124282499996561,2.518603565961313
240.0,2.5712851728125665,17.115241145360237,0.8125344486224456,2.5155902807596715
241.0,2.5685818927004798,17.096037969975274,0.8126430313124796,2.512506646905485
242.0,2.5659597904479434,17.076492633328712,0.8127539366846416,2.5093542363746533
243.0,2.563410958344936,17.05662879684355,0.8128671022853171,2.506134661994325
244.0,2.560917302594703,17.0364691202945,0.8129824654780625,2.5028495437929936
245.0,2.5584650953336716,17.016036716409936,0.8130999636080221,2.499500502176853
246.0,2.5560953285489614,16.99536083728506,0.8132195335048124,2.496089177319364
247.0,2.553813598620984,16.97446804760201,0.8133411115407622,2.492617238353649
248.0,2.551608319819584,16.95338324569528,0.813464634089059,2.4890863567064194
249.0,2.5494701127488746,16.932131557212017,0.8135900375075087,2.4854982041077434
250.0,2.547423722029376,16.91074171327035,0.8137172579581143,2.481854464160142
