Time,J,A,S,tau
0.0,100.0,10.0,0.8548177025747431,2.272727272727273
1.0,90.7216979494551,12.446202473897406,0.8324983898649674,2.272727272727273
2.0,81.33767954038012,14.554509946136402,0.8105749058769779,2.272727272727273
3.0,72.61260405601006,16.002345468515106,0.8044253271012174,2.272727272727273
4.0,65.34014937360031,16.396749409500554,0.8040719784513128,2.272727272727273
5.0,59.306164124294185,16.159652421117542,0.8037351263235756,2.272727272727273
6.0,54.19583975306865,15.671634761477664,0.8034149421281795,2.272727272727273
7.0,49.737237288528895,15.183975004714183,0.8031115891731707,2.272727272727273
8.0,45.75009481870637,14.809192514055063,0.8028252225218513,2.272727272727273
9.0,42.112179204864745,14.580501478042883,0.8025559888579727,2.272727272727273
10.0,38.74780554056407,14.484304996920457,0.8023040263545271,2.272727272727273
11.0,35.61932718925033,14.483044735106523,0.8020694645533397,2.272727272727273
12.0,32.71595145554727,14.532737626482524,0.8018524242570085,2.272727272727273
13.0,30.039763113797953,14.595953410837238,0.8016530174176288,2.272727272727273
14.0,27.593373767217766,14.648672449762755,0.8014713470466492,2.272727272727273
15.0,25.37292417031363,14.68089801992435,0.8013075071148721,2.272727272727273
16.0,23.366692194332643,14.693037969161638,0.8011615824202969,2.272727272727273
17.0,21.55722828797843,14.69090763436716,0.8010336486475077,2.272727272727273
18.0,19.924499281734434,14.681598598241976,0.8009237721595344,2.272727272727273
19.0,18.448695501199854,14.670900090144812,0.8008320100040559,2.272727272727273
20.0,17.111910348836577,14.662348640628718,0.8007584098827362,2.272727272727273
21.0,15.898862825235007,14.657312628530407,0.8007030100540491,2.272727272727273
22.0,14.796874021242894,14.655638637259312,0.8006658393212399,2.272727272727273
23.0,13.795391335919101,14.656399069732013,0.8006469170419089,2.272727272727273
24.0,12.885421079238013,14.65849923501761,0.8006462530620236,2.272727272727273
25.0,12.059031807024558,14.66105309765086,0.8006638477108712,2.272727272727273
26.0,11.308980800513494,14.663524856067443,0.8006996918461996,2.272727272727273
27.0,10.62851737769817,14.66571294450541,0.8007537668228881,2.272727272727273
28.0,10.011325360065104,14.667649327820746,0.8008260444945945,2.272727272727273
29.0,9.451513198690066,14.66948185701524,0.8009164872915558,2.272727272727273
30.0,8.943632997284494,14.671380992181073,0.8010250482292951,2.272727272727273
31.0,8.482710425641242,14.673483019442479,0.8011516709123584,2.272727272727273
32.0,8.064238661883827,14.675869772894035,0.8012962896357503,2.272727272727273
33.0,7.684151592660961,14.678572557807938,0.8014588294368765,2.272727272727273
34.0,7.338787428812592,14.68158803920054,0.8016392061514339,2.272727272727273
35.0,7.024850549988179,14.68489639269765,0.8018373264651066,2.272727272727273
36.0,6.739368804180936,14.688475617777316,0.8020530880249943,2.272727272727273
37.0,6.4796510082425085,14.692309852962229,0.8022863795267887,2.272727272727273
38.0,6.243255587927089,14.696392291423825,0.8025370808198425,2.272727272727273
39.0,6.027968596066419,14.700724428955825,0.8028050629840506,2.272727272727273
40.0,5.831779045051379,14.705313520385431,0.8030901884706828,2.272727272727273
41.0,5.652861952409944,14.710169808658117,0.8033923112121281,2.272727272727273
42.0,5.489560976285963,14.715304367383567,0.8037112767605809,2.272727272727273
43.0,5.3403796233123515,14.720727844681846,0.8040469223925003,2.272727272727273
44.0,5.203961695006166,14.726450054551398,0.8043990772820487,2.272727272727273
45.0,5.079078973112516,14.732480096057413,0.8047675626537517,2.272727272727273
46.0,4.964624299941675,14.7388267425141,0.8051521918915651,2.272727272727273
47.0,4.859594782814195,14.745498846636423,0.8055527707456543,2.272727272727273
48.0,4.763082791174968,14.752505644014567,0.805969097503174,2.272727272727273
49.0,4.674269497521471,14.759856948089285,0.8064009630940583,2.272727272727273
50.0,4.592413607212287,14.767563171177889,0.8068481513686991,2.272727272727273
51.0,4.516843236135915,14.775635278954217,0.807310439240837,2.272727272727273
52.0,4.446956046160758,14.78408481711817,0.8077875968646994,2.272727272727273
53.0,4.382204854502097,14.792923734598318,0.8082793877867848,2.272727272727273
54.0,4.322095412793493,14.802164355370993,0.8087855691595265,2.272727272727273
55.0,4.266179304141362,14.811819262301562,0.8093058921398758,2.272727272727273
56.0,4.214055338408664,14.821901468005603,0.8098401018970476,2.272727272727273
57.0,4.1653630627668825,14.832424363992027,0.8103879376230464,2.272727272727273
58.0,4.1197692627764155,14.843401301098256,0.8109491332948314,2.272727272727273
59.0,4.076980548883108,14.85484624764778,0.8115234175878905,2.272727272727273
60.0,4.0367332164815695,14.866773505304803,0.812110513694444,2.272727272727273
61.0,3.9987774668025096,14.87919693472436,0.8127101405873618,2.272727272727273
62.0,3.962911294669061,14.892132134356222,0.813322011990555,2.272727272727273
63.0,3.928922711964328,14.905592872939303,0.8139458376993719,2.272727272727273
64.0,3.8966549513788653,14.919595672777486,0.8145813230838009,2.272727272727273
65.0,3.86592857985278,14.934154205964845,0.8152281697175819,2.272727272727273
66.0,3.8366265465979543,14.949286058412383,0.8158860753662144,2.272727272727273
67.0,3.8085899572040276,14.965004279031792,0.8165547346130396,2.272727272727273
68.0,3.7817426892919075,14.981328053798666,0.8172338381508714,2.272727272727273
69.0,3.755972888740263,14.998272753425352,0.8179230745902951,2.272727272727273
70.0,3.7311714706366215,15.015853088817545,0.8186221293507153,2.272727272727273
71.0,3.7072476864803607,15.034083847252056,0.8193306853172353,2.272727272727273
72.0,3.6841569422637503,15.05298417366204,0.8200484230977276,2.272727272727273
73.0,3.6618192647764647,15.07256927089952,0.8207750214644928,2.272727272727273
74.0,3.6401726269128516,15.092855455880294,0.8215101572668245,2.272727272727273
75.0,3.619164187386852,15.113858851823215,0.822253505834409,2.272727272727273
76.0,3.598746426565674,15.135595784557262,0.8230047411755774,2.272727272727273
77.0,3.5788769392301556,15.158082566086286,0.823763536212924,2.272727272727273
78.0,3.559518256228176,15.181335558750485,0.824529563015155,2.272727272727273
79.0,3.5406366947520573,15.205371009650104,0.8253024930276783,2.272727272727273
80.0,3.522202930973451,15.230205142787426,0.8260819972957341,2.272727272727273
81.0,3.5041914451744987,15.255854103879598,0.8268677466909845,2.272727272727273
82.0,3.4865783873347946,15.28233372904394,0.8276594121285425,2.272727272727273
83.0,3.469342701146726,15.309659668594138,0.828456664785736,2.272727272727273
84.0,3.452466338651008,15.337847427626155,0.829259176318216,2.272727272727273
85.0,3.4359334484528103,15.366912335073232,0.8300666190678738,2.272727272727273
86.0,3.4197298844746338,15.396869473083425,0.8308786662675707,2.272727272727273
87.0,3.4038426675028997,15.427733608182152,0.8316949922437865,2.272727272727273
88.0,3.3882605313568908,15.459519256191642,0.8325152726261528,2.272727272727273
89.0,3.3729750579323894,15.492240845219229,0.8333391845265595,2.272727272727273
90.0,3.3579785116823415,15.525912446364995,0.8341664067323866,2.272727272727273
91.0,3.3432628510456053,15.56054758532166,0.83499661989371,2.272727272727273
92.0,3.3288217886915614,15.596159493650413,0.8358295067006598,2.272727272727273
93.0,3.3146498319235036,15.632760995256001,0.836664752059325,2.272727272727273
94.0,3.3007422074176613,15.670364513232943,0.8375020432582669,2.272727272727273
95.0,3.2870947620751103,15.70898203628622,0.8383410701351098,2.272727272727273
96.0,3.273703847194216,15.74862508711991,0.8391815252314939,2.272727272727273
97.0,3.2605663533134286,15.789304713703764,0.840023103948006,2.272727272727273
98.0,3.2476792848164364,15.831031411055926,0.8408655046889304,2.272727272727273
99.0,3.2350401349082336,15.87381515706681,0.8417084290088441,2.272727272727273
100.0,3.222646713319309,15.917665368135406,0.8425515817451648,2.272727272727273
101.0,3.2104970920443714,15.962590875778325,0.8433946711458858,2.272727272727273
102.0,3.1985895131572466,16.008599893500957,0.8442374089931577,2.272727272727273
103.0,3.186922350527531,16.055699992673457,0.8450795107195667,2.272727272727273
104.0,3.1754939858503337,16.103898065380445,0.8459206955197588,2.272727272727273
105.0,3.1643027053933173,16.15320028808213,0.846760686460204,2.272727272727273
106.0,3.153347081189037,16.20361215248699,0.8475992105788862,2.272727272727273
107.0,3.1426257001182343,16.255138406890726,0.8484359989734634,2.272727272727273
108.0,3.132137136600447,16.307783030274674,0.8492707868880803,2.272727272727273
109.0,3.1218799178313748,16.36154920442681,0.8501033137938429,2.272727272727273
110.0,3.1118524441246844,16.416439279936515,0.8509333234639783,2.272727272727273
111.0,3.102052874312532,16.472454735746616,0.8517605640471254,2.272727272727273
112.0,3.0924795329644863,16.52959621116555,0.8525847881308329,2.272727272727273
113.0,3.0831306401629885,16.58786344554865,0.8534057527934957,2.272727272727273
114.0,3.0740043066044755,16.647255253973555,0.8542232196544882,2.272727272727273
115.0,3.065098534105055,16.707769502845142,0.855036954920755,2.272727272727273
116.0,3.056411159347841,16.769403077922775,0.8558467294248477,2.272727272727273
117.0,3.047939814379108,16.832151854978285,0.8566523186606521,2.272727272727273
118.0,3.03968195449592,16.896010677759683,0.8574535028146876,2.272727272727273
119.0,3.0316350639377365,16.960973363947303,0.8582500667864728,2.272727272727273
120.0,3.0237964336711873,17.0270326500748,0.8590418002043559,2.272727272727273
121.0,3.0161632243229293,17.094180177693776,0.8598284974362085,2.272727272727273
122.0,3.0087324454830795,17.162406466338773,0.8606099575991019,2.272727272727273
123.0,3.0015009236598322,17.23170088666903,0.8613859845580019,2.272727272727273
124.0,2.99446538828863,17.302051649737372,0.8621563869268648,2.272727272727273
125.0,2.9876223317726005,17.37344576524757,0.8629209780566364,2.272727272727273
126.0,2.980968208151809,17.44586904824065,0.86367957602729,2.272727272727273
127.0,2.9744991711865016,17.51930606091592,0.8644320036265332,2.272727272727273
128.0,2.9682113897010245,17.593740137368677,0.8651780883325977,2.272727272727273
129.0,2.962100756668582,17.669153322543867,0.865917662285395,2.272727272727273
130.0,2.956163191348812,17.74552639719352,0.8666505622585668,2.272727272727273
131.0,2.950394309370354,17.82283881283209,0.8673766296247125,2.272727272727273
132.0,2.944789767502967,17.901068724484873,0.8680957103186325,2.272727272727273
133.0,2.939344910433923,17.980192924533785,0.8688076547962306,2.272727272727273
134.0,2.934055587650164,18.060186457933348,0.8695122990232635,2.2727276265042566
135.0,2.928914345281826,18.141025852661723,0.8702096113705257,2.272726296395671
136.0,2.925367882515086,18.221325476217288,0.8708391792606085,2.273853419184578
137.0,2.9261346505058032,18.298931685901866,0.8713074826914554,2.277886114458559
138.0,2.931331139040494,18.37440468326108,0.8716408757042639,2.2843672756008355
139.0,2.9381132656940663,18.45074927239601,0.8719569655021027,2.291092180589137
140.0,2.945269156754209,18.528869391029342,0.8722689878096258,2.2978078599155207
141.0,2.9520681817283982,18.609076885814535,0.872576875582258,2.30451205607816
142.0,2.958302802509567,18.691173707338702,0.8728805645976039,2.311202468106182
143.0,2.9639779562497655,18.77481952723006,0.8731799932342338,2.3178767549256785
144.0,2.9692309490922404,18.85965802866256,0.8734751030005656,2.3245325275493953
145.0,2.9741951358963736,18.94538067848305,0.873765837794208,2.3311673600593728
146.0,2.9789991442569628,19.03176124447159,0.874052144564813,2.337778780017308
147.0,2.983726254340291,19.118637831938326,0.8743339729823834,2.34436427332412
148.0,2.9884351654889585,19.2059025825824,0.874611275270632,2.3509212872160856
149.0,2.993147841606751,19.293484900093304,0.8748840069776254,2.3574472187511826
150.0,2.9978800318283096,19.38133425115074,0.8751521260253678,2.363939429599895
151.0,3.002624234404988,19.46940809191656,0.8754155930289784,2.370395241368868
152.0,3.007369279997512,19.557667519913256,0.875674371501619,2.376811933186433
153.0,3.012102357874333,19.646072309371725,0.875928427628938,2.3831867455662787
154.0,3.0168099988072568,19.734579435487355,0.8761777302815134,2.3895168808206084
155.0,3.0214792729778703,19.823142489648717,0.8764222509813928,2.3957995042449083
156.0,3.0260981193575964,19.911711895227672,0.8766619638737406,2.402031745333998
157.0,3.0306554164214403,20.000235389782635,0.8768968456835056,2.4082106992901315
158.0,3.0351407998274453,20.08865854451376,0.8771268756736019,2.4143334286171068
159.0,3.0395444574587285,20.176925219254343,0.8773520355977552,2.4203969648901547
160.0,3.0438569424036777,20.26497791156146,0.8775723096492701,2.426398310689323
161.0,3.0480690268219464,20.352758003991735,0.8777876844054452,2.432334441701663
162.0,3.0521716412352733,20.440205934095882,0.8779981487685974,2.4382023089902307
163.0,3.0561557764709475,20.52726129974434,0.8782036939019446,2.44399884143484
164.0,3.0600125431992304,20.613862943566282,0.8784043131628239,2.449720948346056
165.0,3.0637330853831366,20.69994900063761,0.8786000020305262,2.4553655222459785
166.0,3.067308687056233,20.785456960068963,0.8787907580321594,2.4609294418236534
167.0,3.070730707695677,20.870323705583033,0.8789765806625681,2.4664095750575856
168.0,3.0739906740647442,20.954485577861924,0.8791574713032568,2.4718027825055353
169.0,3.077080253594166,21.037878427457812,0.8793334331350248,2.4771059207573973
170.0,3.07999130413332,21.120437682174654,0.8795044710502365,2.4823158460481283
171.0,3.0827158901677874,21.202098415318822,0.8796705915592129,2.4874294180204255
172.0,3.08524628741145,21.282795416655084,0.8798318026962453,2.4924435036411183
173.0,3.08757503741168,21.362463273470393,0.8799881139208364,2.4973549812489555
174.0,3.089694926372792,21.441036444983357,0.8801395360181191,2.5021607447444176
175.0,3.0915991281727337,21.518449360025034,0.8802860809964445,2.5068577079032632
176.0,3.093281038930501,21.594636479244386,0.8804277619832032,2.511442808822738
177.0,3.094734379414823,21.66953239258202,0.8805645931179193,2.5159130144454274
178.0,3.095953192256438,21.74307190479073,0.8806965894444775,2.520265325175305
179.0,3.096931877564129,21.81519012830853,0.88082376680257,2.5244967795857
180.0,3.0976652051552076,21.885822574057578,0.8809461417180741,2.528604459180709
181.0,3.0981483246593893,21.954905244021457,0.8810637312931585,2.532585493224223
182.0,3.0983768404730325,22.022374732606647,0.8811765530962129,2.5364370635964346
183.0,3.098346850784338,22.088168325616202,0.8812846250520848,2.5401564097351805
184.0,3.0980547758965593,22.15222407418522,0.8813879653317406,2.5437408335452663
185.0,3.0974974688541237,22.21448090296635,0.8814865922435245,2.547187704248437
186.0,3.096672237234698,22.274878708642763,0.8815805241257213,2.5504944632441267
187.0,3.0955768506295427,22.333358457055557,0.881669779240632,2.553658628935842
188.0,3.0942095592987284,22.389862281846177,0.8817543756705868,2.556677801490914
189.0,3.092569102444994,22.444333581905916,0.8818343312161543,2.5595496675374307
190.0,3.090654861778449,22.496717136971466,0.8819096632971339,2.562272004790944
191.0,3.0884665882889966,22.54695917055139,0.8819803888551052,2.5648426866111134
192.0,3.0860045153800844,22.595007457932383,0.8820465242609812,2.567259686287504
193.0,3.083269371253364,22.64081142109742,0.8821080852258606,2.5695210812323253
194.0,3.0802623944282006,22.68432222397283,0.8821650867155804,2.5716250570505754
195.0,3.076985340836349,22.725492864008157,0.8822175428698199,2.5735699113887494
196.0,3.073440454930252,22.76427825891034,0.8822654669252683,2.5753540576453138
197.0,3.069630524728486,22.800635340685506,0.8823088711443259,2.5769760284093763
198.0,3.065558905259769,22.834523144675394,0.8823477667482977,2.5784344787452316
199.0,3.0612294359119243,22.86590288355711,0.8823821638555855,2.579728189245288
200.0,3.0566463480669053,22.894738014759522,0.8824120714264603,2.580856068727191
201.0,3.0518143925088457,22.920994334422744,0.8824374972138189,2.5818171567154655
202.0,3.046738770609102,22.944640041929677,0.8824584477197338,2.582610625628983
203.0,3.0414251571759494,22.965645815154033,0.882474928157794,2.5832357827530426
204.0,3.0358796839230937,22.983984874182664,0.8824869424226474,2.583692071823075
205.0,3.0301089003819026,22.999633041372977,0.88249449306492,2.5839790744211233
206.0,3.024119816004207,23.01256880469179,0.8824975812741775,2.5840965109384118
207.0,3.0179197970329725,23.022773360919263,0.8824962068669878,2.584044241356951
208.0,3.011516666185603,23.030230678096217,0.8824903682834839,2.583822265585566
209.0,3.0049185469128155,23.034927522086317,0.8824800625889749,2.5834307235973757
210.0,2.998134041569316,23.03685352043304,0.8824652854841077,2.582869895147219
211.0,2.9911719513342128,23.036001162465485,0.8824460313198811,2.58214019926287
212.0,2.9840414655598444,23.032365854924027,0.8824222931212832,2.581242193334884
213.0,2.9767519856204485,23.025945923518965,0.8823940626163477,2.5801765719349654
214.0,2.969313252231066,23.01674265110144,0.8823613302723635,2.5789441653363907
215.0,2.961735188887325,23.004760270130905,0.882324085338151,2.5775459377011587
216.0,2.954027996259726,22.990005985878454,0.882282315892689,2.575982985028298
217.0,2.946202025261462,22.97248996096657,0.8822360088999535,2.574256532746004
218.0,2.938267842075555,22.952225323472998,0.882185150269354,2.5723679331157197
219.0,2.930236126803522,22.929228143000632,0.8821297249222433,2.5703186622768888
220.0,2.922117714902754,22.90351742407394,0.8820697168633626,2.5681103171456567
221.0,2.913923515675441,22.875115073030358,0.8820051092579754,2.565744611967143
222.0,2.9056645371141294,22.84404587748474,0.8819358845133434,2.5632233747574666
223.0,2.8973518176531545,22.81033746330215,0.8818620243653037,2.560548543424535
224.0,2.888996441916618,22.774020261180592,0.8817835099686437,2.5577221618103207
225.0,2.8806094788572185,22.735127453025655,0.8817003219918279,2.554746375446133
226.0,2.8722019960133047,22.693694926909213,0.8816124407150135,2.551623427258443
227.0,2.863784997072621,22.649761212272473,0.8815198461315449,2.5483556530283438
228.0,2.8553694422952627,22.603367424699908,0.8814225180522539,2.5449454768286586
229.0,2.8469661783553653,22.554557189482512,0.8813204362122751,2.541395406259703
230.0,2.8385859728742058,22.50337657783721,0.8812135803802083,2.537708027687826
231.0,2.830239428842396,22.449874018418104,0.8811019304687734,2.533886001330732
232.0,2.8219370419496097,22.39410022686851,0.8809854666473655,2.5299320563680276
233.0,2.8136890907355645,22.33610810490923,0.8808641694550714,2.5258489859490783
234.0,2.8055057267470387,22.275952665335236,0.880738019915119,2.521639642244825
235.0,2.797396830084256,22.21369091823437,0.8806069996488228,2.517306931449466
236.0,2.7893721441684196,22.149381793890736,0.8804710909904003,2.5128538088400063
237.0,2.781441083931588,22.083086015533596,0.8803302771005179,2.5082832738397154
238.0,2.7736129295832863,22.014866023014225,0.8801845420798855,2.503598365148132
239.0,2.7658965443992716,21.944785827638455,0.880033871081373,2.4988021559303593
240.0,2.758300635418158,21.872910938882804,0.8798782504210317,2.4938977490782697
241.0,2.7508335247184865,21.799308221662553,0.8797176676877201,2.4888882725725447
242.0,2.7435033583892285,21.72404581099427,0.8795521118495272,2.4837768749257685
243.0,2.7363179071160277,21.647192969500455,0.8793815733598022,2.478566720765197
244.0,2.7292846494611145,21.568819982676818,0.8792060442589433,2.4732609865205775
245.0,2.7224107897207683,21.48899804174287,0.8790255182732345,2.467862856259495
246.0,2.7157031828888947,21.407799117005876,0.8788399909133574,2.4623755176652784
247.0,2.7091683621400087,21.325295841730558,0.878649459565833,2.4568021581626085
248.0,2.7028125425505136,21.241561393268523,0.8784539235853558,2.4511459611964423
249.0,2.696641582943508,21.156669368902957,0.878253384379356,2.4454101026809933
