Time,J,A,S,tau
0.0,100.0,10.0,0.872069564565255,19.43062225404969
1.0,100.4605732370714,12.843493669077507,0.8735392109487583,19.588049815758946
2.0,99.52594442930615,15.629945624991937,0.8749949632124042,19.74298336970967
3.0,97.61358385680191,18.36104764169768,0.8764354627657021,19.89528177294001
4.0,95.05760307258606,21.03812263931822,0.8778600648321842,20.044897312217383
5.0,92.0921024644585,23.66245758015119,0.8792681115982656,20.191782780560718
6.0,88.87104746706,26.235304410383165,0.8806589322172239,20.33589148780153
7.0,85.49211145235675,28.75788070573218,0.8820318428099883,20.47717727217546
8.0,82.01597680923665,31.231370929783328,0.8833861465057792,20.61559451135404
9.0,78.47984134032865,33.65692660116916,0.8847211334724017,20.75109813490121
10.0,74.9063838329383,36.03566754346458,0.8860360810375413,20.883643633999952
11.0,71.30937109434993,38.368682392563734,0.8873302537582268,21.01318707451219
12.0,67.69716807134832,40.65702900458183,0.8886029034858056,21.139685111856554
13.0,64.07490671426197,42.90173631771541,0.8898532695297036,21.263095003449198
14.0,60.44579788897692,45.10380574743949,0.8910805794747139,21.383374586672147
15.0,56.811798286828974,47.26420220171014,0.8922840474334515,21.50048239251024
16.0,53.174274779473585,49.38387991974085,0.8934628775901935,21.614377487271312
17.0,49.534088312724336,51.46373809538083,0.8946162597426872,21.72501973426539
18.0,45.8919385160736,53.50468729579847,0.8957433765876986,21.832369418949344
19.0,42.248316918307374,55.507570987197084,0.8968433935924228,21.93638788125556
20.0,38.60368234577442,57.47322838045477,0.8979154724204239,22.037036700139033
21.0,34.9584336426621,59.40248919053406,0.8989587598580303,22.134278493861196
22.0,31.31295150629875,61.29611008222353,0.899972392207821,22.228076618277743
23.0,27.24842277622382,63.56954715436833,0.8997279943138522,22.19085604033405
24.0,24.364457668561293,64.63044974979951,0.8990555786644112,22.109733696868012
25.0,22.552431210861666,64.61452004739016,0.8983708162153764,22.028050902291927
26.0,21.42417238898933,63.92807567693121,0.8976737583803812,21.945844635704557
27.0,20.713702118952025,62.848040964495,0.8969644625254131,21.86315169554459
28.0,20.252144435379243,61.549525750217725,0.8962429921486718,21.78000867325402
29.0,19.936600504531878,60.13875002028144,0.8955094170591337,21.696451927988285
30.0,19.705859356498273,58.67850517070571,0.8947638135522126,21.612517562424877
31.0,19.524033798393607,57.20524227467717,0.8940062645822154,21.528241399675288
32.0,19.37027020711784,55.739796797009106,0.8932368599323142,21.443658961268877
33.0,19.232512444514665,54.29388073590794,0.892455696379586,21.358805446258494
34.0,19.10382109914741,52.87391367099121,0.8916628778669473,21.27371571092127
35.0,18.980210773897344,51.483273217816404,0.890858515642795,21.188424250878846
36.0,18.85941339253349,50.12358355847174,0.8900427284641513,21.102965180853804
37.0,18.74015130933719,48.79547231080425,0.8892156426872807,21.017372220355746
38.0,18.62173011085789,47.49899847233321,0.8883773920887286,20.93167869665419
39.0,18.503833863121404,46.23387844552418,0.887528119541569,20.845917446695537
40.0,18.386311269675733,44.99967201680294,0.8866679728888055,20.760121030275055
41.0,18.269228497718608,43.79581357469681,0.8857971131253827,20.67432128227772
42.0,18.152727584112927,42.62173210373711,0.8849157067862574,20.588549744428647
43.0,18.037003872554475,41.47677617574081,0.8840239254734673,20.50283763505343
44.0,17.922406218322184,40.36032211488896,0.8831219567065024,20.417215289749954
45.0,17.80930994224925,39.27177120270062,0.8822099910528761,20.331712881573342
46.0,17.698181263405452,38.2104801131136,0.8812882282899396,20.246360012145338
47.0,17.589622365514504,37.17584303533391,0.8803568791693551,20.161185676054586
48.0,17.48430608874657,36.16724396967691,0.8794161607445491,20.07621847529409
49.0,17.38307620433031,35.1841062561364,0.8784663018217629,19.991486348694107
50.0,17.286861115451682,34.22584962690977,0.8775075373302363,19.90701685401832
51.0,17.19677552599833,33.29192112322578,0.8765401131455034,19.82283691364572
52.0,17.114080101971556,32.38177760122615,0.8755642833254976,19.738972953304337
53.0,17.04022519741335,31.49490463611341,0.8745803111393401,19.65545086599869
54.0,16.976856297430604,30.630802972929757,0.8735884691767368,19.572295977087883
55.0,16.92581548884067,29.788997218743134,0.8725890386301846,19.489533098428538
56.0,16.889175819119107,28.96904243635592,0.8715823100348248,19.407186487193748
57.0,16.86924294864173,28.170523216097525,0.8705685831869117,19.325279838158142
58.0,16.868543870272774,27.39305782466998,0.8695481663965305,19.243836331744
59.0,16.889846784680984,26.63630542410152,0.8685213771063344,19.16287859367194
60.0,16.93615850638983,25.89997333140724,0.8674885417494612,19.082428702929636
61.0,17.0107063234441,25.18382249153173,0.8664499955340043,19.002508198857456
62.0,17.116921264828544,24.487676186973378,0.865406082334145,18.92313808617142
63.0,17.25841274487092,23.81142931837113,0.8643571545990753,18.844338837362248
64.0,17.438938345133575,23.1550607370788,0.8633035733676411,18.766130389528758
65.0,17.662345497221136,22.51864446189733,0.8622457081193848,18.68853214613914
66.0,17.932504311598763,21.90236140598464,0.8611839365186487,18.611562988700292
67.0,18.253229758115143,21.30651289469158,0.8601186442695941,18.535241281368723
68.0,18.628188281539455,20.731535499542296,0.8590502249897799,18.45958487397578
69.0,19.06077577206398,20.17801927488506,0.857979080156221,18.38461109895528
70.0,19.55396376276293,19.646719882755196,0.8569056187682544,18.310336782767084
71.0,20.11014643216788,19.138572949169234,0.8558302571111476,18.236778255338624
72.0,20.730956058789033,18.654707004157952,0.8547534185223218,18.163951355895172
73.0,21.41709720751166,18.19646276221558,0.8536755333090876,18.091871435611647
74.0,22.16801075047023,17.765413189599133,0.8525970387027139,18.02055334012823
75.0,22.981818417655536,17.363342450164264,0.8515183778167917,17.9500114766555
76.0,23.854963660516113,16.99228366305676,0.8504400001897283,17.880259763308494
77.0,24.781993601094335,16.654502906982174,0.8493623610803575,17.811311660198136
78.0,25.755404601122923,16.352504193582593,0.8482859213316716,17.7431801721666
79.0,26.765470976875378,16.089012720897706,0.8472111469449185,17.675877861586237
80.0,27.80012196574921,15.866961863445477,0.8461385088602938,17.6094168489334
81.0,28.844928370269187,15.689463631264356,0.8450684825864385,17.543808823739912
82.0,29.883172482863774,15.559770380072766,0.8440015478730397,17.479065051338196
83.0,30.89601446884451,15.48121997488053,0.8429381883171435,17.415196382907187
84.0,31.862815638950504,15.457170548033238,0.841878891047765,17.352213260355338
85.0,32.76160706768272,15.490915273330907,0.8408241463380658,17.290125725882792
86.0,33.56969158179445,15.585578761046003,0.8397744472182568,17.228943430488812
87.0,34.26438711305014,15.74399413528408,0.8387302890872561,17.168675642115687
88.0,34.823887793034004,15.968558842412609,0.8376921693155814,17.10933125338028
89.0,35.22823278467034,16.26106954844862,0.8366605868464648,17.050918789209685
90.0,35.46027636264106,16.62254237014615,0.8356360417757356,16.993446416295257
91.0,35.50662526613311,17.053017655701645,0.8346190349343611,16.936921951106388
92.0,35.358453532172234,17.55135875714766,0.8336100674651787,16.881352868406328
93.0,35.012155864169955,18.115045353133507,0.8326096403993566,16.82674630779856
94.0,34.469703961661516,18.73997872895873,0.831618254206459,16.77310908144975
95.0,33.73857863217654,19.420361448906313,0.8306364083791344,16.720447688640796
96.0,32.831644841054334,20.148535996427682,0.8296646009570766,16.66876831567138
97.0,31.766528786821045,20.914964860689494,0.8287033281152414,16.618076849172702
98.0,30.5648921716956,21.708245412260087,0.8277530836982611,16.568378881863534
99.0,29.25152162567238,22.515242411232517,0.8268143587836865,16.519679721413823
100.0,27.853368771538772,23.32132183853695,0.8258876412218208,16.471984397324867
101.0,26.39856937825722,24.11071674954286,0.8249734151940334,16.425297669638862
102.0,24.915506600219885,24.867007069174438,0.8240721607754647,16.379624036999317
103.0,23.43190865576626,25.573714541564133,0.8231843534569733,16.334967742410196
104.0,21.974015659532004,26.21498760917976,0.8223104637414962,16.291332782917355
105.0,20.56578604344188,26.77634949014798,0.8214509566646838,16.248722915269088
106.0,19.228195243174714,27.24543529373188,0.8206062913761777,16.20714166390152
107.0,17.97865196712807,27.612664190565702,0.8197769207117876,16.166592328418215
108.0,16.830542815200527,27.871788499391794,0.8189632907302198,16.127077989362167
109.0,15.793041044726078,28.02019413738133,0.8181658403341283,16.08860151654379
110.0,14.871127468689407,28.058974505083064,0.8173850008225463,16.05116557490985
111.0,14.065902347890628,27.992702372729294,0.8166211954874922,16.014772631376392
112.0,13.375104635538852,27.828951944411603,0.815874839134514,15.97942495891771
113.0,12.793949451553944,27.57758453817475,0.8151463378455365,15.945124647844406
114.0,12.315906726831878,27.24997914143008,0.8144360884635836,15.911873608049186
115.0,11.933568235250284,26.858221308086144,0.8137444782418396,15.879673575835904
116.0,11.63941409248553,26.414383571524812,0.8130718844842912,15.848526120204967
117.0,11.426412069649121,25.92995134018898,0.8124186741699819,15.818432647954335
118.0,11.288437843163372,25.41542970699111,0.8117852036216578,15.78939440955242
119.0,11.22050821288031,24.880124212855776,0.8111718181699882,15.761412504540314
120.0,11.218854708748655,24.332067736668765,0.8105788517833494,15.734487886037295
121.0,11.280862855524283,23.77807072681149,0.8100066267786166,15.70862136601616
122.0,11.404924836834494,23.22384270810472,0.8094554535167495,15.683813620387165
123.0,11.590235679496763,22.67415555665798,0.8089256301147469,15.660065193269372
124.0,11.836555251430992,22.133019281585735,0.8084174421937514,15.63737650225893
125.0,12.14396899578872,21.6038531884603,0.807931162535889,15.615747841057908
126.0,12.51262436308518,21.089643909331553,0.807467050928566,15.595179385506846
127.0,12.942485261443228,20.59308027533641,0.8070253537177923,15.57567119500079
128.0,13.433080803742268,20.11666938613626,0.8066063039002374,15.557223219557217
129.0,13.983280196795356,19.662821934895117,0.8062101208444541,15.539835302285839
130.0,14.591069412137893,19.233921277079652,0.805837009899685,15.523507180845424
131.0,15.253310546938263,18.832370513274043,0.8054871621186525,15.50823849078848
132.0,15.96557597274436,18.460615155609915,0.8051607546899484,15.494028773326466
133.0,16.721969856333473,18.121158939542862,0.804857950225355,15.480877473379662
134.0,17.51501526850918,17.816560557273878,0.8045788967871885,15.468783943500556
135.0,18.335574966395214,17.549417497457753,0.8043237278804207,15.457747447441134
136.0,19.172821984774977,17.322341377570435,0.804092562220525,15.44776716169482
137.0,20.01430625322277,17.137923098123554,0.8038855037128079,15.438842177962814
138.0,20.846080067390236,16.99868786161551,0.8037026413637033,15.430971505246877
139.0,21.65292748042115,16.907040840203983,0.8035440492160058,15.42415407157902
140.0,22.41868113866871,16.86520259604758,0.8034097863334426,15.418388725933134
141.0,23.126631607475254,16.875134015010865,0.8032998967820776,15.413674239822965
142.0,23.76002331262445,16.938450232492936,0.8032144096260607,15.410009308723744
143.0,24.302622328920368,17.05632432399198,0.8031533389395735,15.407392553341701
144.0,24.739332990819733,17.229381376709732,0.8031166838313887,15.405822520772439
145.0,25.056845266894634,17.457585516340707,0.8031044284651382,15.405297685235364
146.0,25.244248050069533,17.740126219045933,0.8031165421512013,15.405816449093164
147.0,25.293582875944477,18.075306117044896,0.803152979421277,15.407377143566334
148.0,25.200302530535858,18.46043754415545,0.8032136800808303,15.409978028897827
149.0,24.963572930727896,18.891756158519172,0.8032985693003638,15.413617294683897
150.0,24.586365999250617,19.364372407365895,0.8034075578401493,15.418293060575301
151.0,24.075416487844233,19.87224148309824,0.8035405420688664,15.424003375378499
152.0,23.440952046573294,20.40818469863651,0.8036974041977012,15.430746218909166
153.0,22.696278325189773,20.963964389468785,0.8038780123849055,15.438519499862991
154.0,21.857226415131116,21.530409933736376,0.8040822209358549,15.447321056409494
155.0,20.941513225619886,22.097603625723522,0.8043098704995921,15.457148655363637
156.0,19.968067652624722,22.655120585351472,0.8045607882742366,15.467999991855024
157.0,18.956346581673568,23.192321661068743,0.8048347881636901,15.47987268807587
158.0,17.92567963867487,23.69868904537161,0.8051316710737836,15.49276429277929
159.0,16.89467701979792,24.164186151490572,0.8054512251743299,15.506672280716117
160.0,15.880687658834583,24.57963311805537,0.8057932260507809,15.521594050620346
161.0,14.89936474909635,24.93705402039579,0.8061574370751399,15.537526924678552
162.0,13.964305314043783,25.230000098478683,0.8065436096104298,15.554468146918985
163.0,13.086809130771696,25.453790511213192,0.8069514833242628,15.572414881653183
164.0,12.275755599365747,25.605670137290193,0.8073807865088766,15.591364212458886
165.0,11.537580968504544,25.68486673899759,0.8078312363244108,15.611313139707898
166.0,10.876402779564838,25.69252115510012,0.8083025391789121,15.632258579497783
167.0,10.294236626701059,25.631520216506637,0.8087943910652794,15.654197361999852
168.0,9.791261189036533,25.506259723116457,0.8093064776740094,15.677126226791916
169.0,9.366240670817533,25.32228910608068,0.8098384750368093,15.701041824338915
170.0,9.016874577170347,25.08598241561498,0.8103900497848914,15.725940712622865
171.0,8.740183214036492,24.804196784272435,0.8109608594163389,15.751819354744242
172.0,8.532843466667806,24.483946393518934,0.8115505527111372,15.778674116303756
173.0,8.391475246658853,24.13213854344414,0.8121587700915036,15.806501263197637
174.0,8.312857108194976,23.75536884480889,0.8127851439930839,15.835296959108092
175.0,8.29407078753699,23.35978048645889,0.8134292992408283,15.865057262915276
176.0,8.332578699754421,22.95098318638538,0.8140908534290098,15.895778126033806
177.0,8.426243180052737,22.534022728458442,0.8147694173064653,15.927455389713389
178.0,8.573298378424449,22.11338941055152,0.8154645951633211,15.96008478230675
179.0,8.772286306430184,21.693054989235982,0.8161759852151216,15.993661916086944
180.0,9.02196668210976,21.276526613916833,0.8169031800152446,16.028182285133894
181.0,9.321214964551727,20.866906330065646,0.8176457667811817,16.0636412603191
182.0,9.668898666373503,20.466959593574476,0.8184033278724784,16.100034088694272
183.0,10.063757125838583,20.079174645581737,0.8191754411245632,16.13735588841002
184.0,10.504286980757955,19.705821563908344,0.819961680326589,16.17560164869816
185.0,10.988629079867051,19.3489970045091,0.8207616155053973,16.214766222895452
186.0,11.514438337151004,19.010664479788705,0.8215748133261251,16.254844324493668
187.0,12.078795632461231,18.692688742345922,0.8224008376058998,16.295830530227363
188.0,12.678112845785163,18.396855953371684,0.8232392495775364,16.33771927075386
189.0,13.308066411763399,18.12489016209213,0.8240896083169736,16.380504829144222
190.0,13.963547148253557,17.878461084093445,0.8249514711258698,16.424181337955062
191.0,14.63861799300298,17.659184137862418,0.825824393902251,16.468742775060484
192.0,15.326526780562117,17.46861682048281,0.8267079315189332,16.514182960541778
193.0,16.01973264794724,17.308248172019265,0.8276016381915142,16.560495553179894
194.0,16.709970842396476,17.17948370094501,0.8285050678422413,16.60767404696254
195.0,17.38835356858657,17.083625819599227,0.829417774458329,16.655711767574534
196.0,18.04550749982977,17.02185010712177,0.8303393124443136,16.704601868874448
197.0,18.67174721842457,16.99517750198182,0.8312692369680438,16.754337329360517
198.0,19.257281241122993,17.004443160734922,0.8322071042999201,16.804910948628706
199.0,19.79244601298127,17.05026201960703,0.833152472145018,16.85631534382595
200.0,20.26796039287033,17.132991767446185,0.8341048999677416,16.908542946101317
201.0,20.675191287654435,17.252693869801817,0.8350639493086769,16.96158599705802
202.0,21.00641875212572,17.40909398242192,0.8360291840933275,17.015436545209024
203.0,21.255088121549147,17.601542629751602,0.8370001709323851,17.070086442441188
204.0,21.41603042586482,17.82897794065446,0.8379764794051452,17.125527340764286
205.0,21.48565509638578,18.089893279330486,0.8389576823460798,17.18175068877528
206.0,21.46209098388897,18.382307934198227,0.839943356131725,17.238747727528764
207.0,21.345281216699348,18.703739990472492,0.8409330810006835,17.296509484286304
208.0,21.136930357454986,19.0512151221447,0.8419264411515751,17.355026776525516
209.0,20.840506388978426,19.421258390407992,0.8429230251080927,17.41429020370612
210.0,20.46111709443379,19.80990781327677,0.8439224259230634,17.474290142945524
211.0,20.00534665199635,20.212751143158144,0.8449242414342621,17.535016746545715
212.0,19.481034342816283,20.624978628461907,0.8459280744040989,17.59645994057131
213.0,18.89704950843884,21.041445098069776,0.8469335327921262,17.658609419247057
214.0,18.263029739202285,21.45675495107646,0.8479402299256618,17.721454642461094
215.0,17.589118422130475,21.8653609232763,0.8489477846847988,17.78498483243045
216.0,16.885706070270363,22.261676260085952,0.84995582167724,17.849188970424773
217.0,16.163184198888604,22.640196580372322,0.8509639714008342,17.914055793714542
218.0,15.431720296018604,22.995629012472232,0.8519718703889576,17.979573792223515
219.0,14.701053729684999,23.323020104608677,0.8529791613598648,18.045731205659884
220.0,13.980322324345918,23.617880183700603,0.8539854933389255,18.11251602061283
221.0,13.277918124409402,23.876297669244238,0.8549905217819329,18.179915967338445
222.0,12.60137192950243,24.095038448391108,0.8559939087050618,18.247918516211378
223.0,11.957277098966408,24.27162022724882,0.8569953227697974,18.31651087544735
224.0,11.351247118424789,24.404362000706872,0.8579944393675318,18.385679988422094
225.0,10.787908915279738,24.49240420568377,0.8589909406938601,18.455412530954412
226.0,10.27092158758716,24.53570268394943,0.859984515848694,18.525694907782984
227.0,9.80303850406317,24.534988253282204,0.8609748608711421,18.596513250366492
228.0,9.386187542622018,24.491700894148153,0.8619616787987165,18.667853414456452
229.0,9.021577825795509,24.407902158459194,0.8629446796729235,18.73970097878837
230.0,8.709800867855115,24.286181483764995,0.8639235807508243,18.812041236727207
231.0,8.450987063476644,24.129532050756936,0.8648981063087569,18.884859200097235
232.0,8.244918876947489,23.94124072723362,0.8658679876704146,18.958139597731744
233.0,8.091143051392768,23.72478251251219,0.8668329632876697,19.0318668709988
234.0,7.9890858570898855,23.483717333730674,0.8677927788599771,19.106025165986917
235.0,7.938152128917298,23.221599555268096,0.8687471871458462,19.180598337695773
236.0,7.937791021366649,22.941908496828336,0.8696959479299285,19.255569949593475
237.0,7.987547846536398,22.647993156548235,0.8706388280399107,19.33092327050103
238.0,8.087103670701941,22.343026798925752,0.8715756014723932,19.406641266046464
239.0,8.23628874113764,22.029985016239785,0.872506049195583,19.482706601927894
240.0,8.435073039027559,21.711636094491553,0.8734299590607505,19.55910164515051
241.0,8.683548488238658,21.3905389679834,0.8743471257720562,19.635808461957144
242.0,8.981899881361265,21.069046243033995,0.8752573509863805,19.712808809787756
243.0,9.330355404634844,20.749321259055936,0.8761604431254862,19.7900841393332
244.0,9.7291299599612,20.43335670312595,0.8770562173063694,19.86761559408824
245.0,10.178372302695802,20.122998215677605,0.8779444950958727,19.945384018607506
246.0,10.678093198453789,19.819958371883455,0.8788251048916209,20.023369935468384
247.0,11.228083232586979,19.52584514168442,0.8796978814468284,20.10155355983337
248.0,11.827854750444642,19.242183103654845,0.8805626656687447,20.179914806473743
