Time,J,A,S,tau
0.0,100.0,10.0,0.9990070941450652,18.200707674304457
1.0,98.25634329257927,15.13482668718472,0.9966181410974475,17.845962828767195
2.0,94.58840206450394,19.939003327903173,0.9941423399273842,17.488113303082386
3.0,89.79036829015836,24.429043296139422,0.9915810635486273,17.127345859915742
4.0,84.38311685881328,28.62115522608485,0.9889347896318161,16.763757168028977
5.0,78.65493276542578,32.530940543355804,0.9862042492823464,16.397444250113587
6.0,72.75948202892414,36.1734022711158,0.9833904329795194,16.028504480781688
7.0,66.7791566675524,39.56294833827492,0.9804945954798706,15.657035583955155
8.0,60.759404714632225,42.7134166337852,0.977518257919529,15.28313562746801
9.0,54.726222957325064,45.63806600617365,0.9744632109012059,14.906903019957257
10.0,48.69528163040212,48.349596123934205,0.9713315132200717,14.528436503203277
11.0,42.676562150418434,50.86015673995546,0.9681254908612535,14.147835145953717
12.0,36.676835995440086,53.1813727319466,0.9648477324163129,13.765198334489254
13.0,30.700983122176456,55.324339046473895,0.9615010866391325,13.38062576692652
14.0,25.61431293328604,56.45366357778245,0.9597876486221933,13.257690284997304
15.0,22.667357681787283,55.44451327229978,0.9587204422542721,13.234827227081652
16.0,21.04066465186901,53.23189423723576,0.9576723057149062,13.213022965464738
17.0,20.1355580356603,50.476313231510126,0.9566462645345276,13.192268997057006
18.0,19.624738733725607,47.53611565989871,0.9556453413488818,13.17255726582336
19.0,19.343576862791387,44.592664680344726,0.9546725405934602,13.153880145125013
20.0,19.21503847190785,41.73475063687585,0.9537308329654592,13.136230421275517
21.0,19.209254057583316,39.004035146994276,0.9528231397619762,13.119601278121188
22.0,19.32301695684801,36.418162794175785,0.9519523173043564,13.103986281938914
23.0,19.569301429880586,33.982387211170845,0.9511211412186554,13.089379368916303
24.0,19.97145464480756,31.695547210749947,0.9503322914899004,13.075774831236242
25.0,20.55961162082296,29.553147587414138,0.9495883374560412,13.063167305845187
26.0,21.368041624181163,27.54902094749512,0.9488917233990031,13.051551763268993
27.0,22.432423360612507,25.676597251012662,0.9482447547037324,13.04092349774167
28.0,23.78525507001592,23.931539811175384,0.9476495849670922,13.031278117194093
29.0,25.455374363126435,22.30989137695985,0.9471082036236168,13.022611534834713
30.0,27.465460303261725,20.80844857776786,0.9466224242594641,13.014919961750074
31.0,29.82856664305397,19.426026932789867,0.9461938752380343,13.008199898069066
32.0,32.54489330057632,18.164240104143357,0.9458239888521962,13.002448128563499
33.0,35.599068658252115,17.028027744710357,0.9455139941898766,12.997661714690317
34.0,38.957483554937525,16.025931722854207,0.9452649100531466,12.993837990677923
35.0,42.566888304447176,15.170140499961239,0.9450775400957979,12.990974557326487
36.0,46.35391818251348,14.476248313003037,0.9449524667302599,12.989069279758128
37.0,50.22609782952763,13.962597714984092,0.9448900493386162,12.988120282656142
38.0,54.07400172650139,13.649343981092962,0.9448904223239846,12.988125947558478
39.0,57.77413020775264,13.557241652683544,0.9449534945872007,12.989084910829742
40.0,61.192285769822874,13.706267578218704,0.9450789507088166,12.990996061626102
41.0,64.18786149059245,14.113949757781878,0.9452662533382701,12.993858540668894
42.0,66.62027599329421,14.793550735305475,0.9455146469068945,12.997671739533326
43.0,68.35846959104798,15.752537440777354,0.9458231626329506,13.002435300469692
44.0,69.29392592352785,16.991079289594538,0.9461906248541972,13.00814911670767
45.0,69.3553738747204,18.500594279458667,0.9466156581960419,13.014813333536509
46.0,68.52065078704904,20.262443610398957,0.9470966963427184,13.022428349576707
47.0,66.82144765922207,22.246989561743533,0.947631991702764,13.030994818527775
48.0,64.33889648907062,24.41316791305901,0.948219625980191,13.040513652055113
49.0,61.1915971266074,26.708876308665932,0.9488575218070527,13.050986022144935
50.0,57.52042994400939,29.072098099464895,0.9495434546487641,13.062413365324279
51.0,53.47471794648619,31.432706297809812,0.9502750662776772,13.074797386113362
52.0,49.20282963760914,33.71446539817003,0.9510498780876501,13.088140061873055
53.0,44.847566013927405,35.83703377702634,0.9518653052639292,13.102443647814232
54.0,40.54469031330174,37.71823251806164,0.9527186712478258,13.117710682644462
55.0,36.421769553588554,39.27761461661849,0.9536072224738341,13.133943994748803
56.0,32.59477988974988,40.44241867590555,0.9545281432627997,13.151146708922438
57.0,29.161391622556973,41.156097199618486,0.9554785707594392,13.169322253661772
58.0,26.192129652176902,41.387854296141334,0.9564556098041168,13.188474369001787
59.0,23.722751501586632,41.13993102036515,0.9574563476253115,13.208607114762748
60.0,21.751386289478916,40.44934086379413,0.9584778682803056,13.229724880549442
61.0,20.243175605199745,39.38219268992532,0.9595172666779116,13.251832393633146
62.0,19.14049772559488,38.02262048533276,0.9605716621522711,13.274934730431967
63.0,18.37615609409767,36.459484807041996,0.9616382114925751,13.299037326992357
64.0,17.885291645219723,34.77500201365019,0.9627141213092596,13.324145990312019
65.0,17.613479059838628,33.037629512867646,0.9637966597004566,13.350266910404963
66.0,17.520391468031264,31.299520732464565,0.9648831671175229,13.377406672864927
67.0,17.579952127473877,29.597383922271554,0.9659710664959291,13.405572272489303
68.0,17.778384340890113,27.9551920005661,0.9670578721766572,13.43477112601346
69.0,18.111526344208585,26.38732328143909,0.9681411986052386,13.465011088641965
70.0,18.582079658744625,24.901504305555008,0.9692187675925934,13.496300468582902
71.0,19.19718690356609,23.501145286481957,0.9702884142902232,13.528648041528207
72.0,19.96642572244107,22.187062490620544,0.9713480928651961,13.56206306837618
73.0,20.90011003722282,20.958733806662174,0.9723958808885536,13.596555312073418
74.0,22.007795134176963,19.815190547338986,0.973429982812847,13.632135055377528
75.0,23.29688663352498,18.755657501744373,0.9744487325115125,13.668813119251325
76.0,24.771241391822034,17.779999402266377,0.9754505945182526,13.706600880688036
77.0,26.429971922909242,16.88907741501949,0.9764341661576393,13.745510296675636
78.0,28.26598446549791,16.08489604950974,0.9773981761112654,13.785553920532301
79.0,30.26478459310741,15.370667565509594,0.978341483158913,13.82674492055669
80.0,32.40350458318327,14.750804663515096,0.9792630758603801,13.869097106704809
81.0,34.650111227062524,14.230773996881835,0.9801620696091058,13.912624950427308
82.0,36.96321135384158,13.816904529285033,0.9810377033596742,13.957343604666566
83.0,39.29220248339795,13.51613312303641,0.9818893367625484,14.003268930845554
84.0,41.57821381761736,13.335709124065383,0.9827164454836134,14.050417518267281
85.0,43.7556818275334,13.282866267201774,0.9835186172453635,14.098806711324087
86.0,45.75476100873019,13.364464535140137,0.9842955463976903,14.148454629678373
87.0,47.50456606793316,13.586600823383396,0.9850470291798574,14.199380195886805
88.0,48.93719132575816,13.954177958710583,0.985772957931793,14.251603157849685
89.0,49.992419819784814,14.470444649916532,0.9864733154067166,14.30514411270281
90.0,50.62262637195782,15.136467953277773,0.9871481691622702,14.36002453421389
91.0,50.79707591554588,15.950592208452798,0.9877976651615706,14.416266791753207
92.0,50.50512648230966,16.907817039899996,0.9884220224578724,14.473894183199302
93.0,49.75700994646292,17.99925203978667,0.9890215266564674,14.532930950944065
94.0,48.58246334314166,19.21155581684465,0.9895965241586455,14.593402310159771
95.0,47.02729527259543,20.526584272162975,0.9901474160581556,14.655334465659495
96.0,45.148961481480065,21.921155406773007,0.9906746528545886,14.718754643545951
97.0,43.01183724464481,23.367168911985218,0.9911787285287159,14.783691105375059
98.0,40.683341902355714,24.83200061070828,0.9916601752421546,14.850173172153642
99.0,38.231101639463894,26.279283672006564,0.9921195580976738,14.918231241372427
100.0,35.721101241447634,27.670055498175643,0.9925574702432666,14.987896808490166
101.0,33.21642327242485,28.964322944820555,0.9929745280476604,15.059202480546203
102.0,30.776098423715304,30.122993692940078,0.9933713666499735,15.132181990746838
103.0,28.453692072340452,31.11017627639416,0.9937486357738156,15.206870214504852
104.0,26.295562685578442,31.895671312263847,0.9941069957326385,15.28330317625931
105.0,24.338876189776748,32.45742562060872,0.9944471137944499,15.36151805894222
106.0,22.609741770469004,32.78360868821241,0.9947696607742785,15.441553211413906
107.0,21.122059691525696,32.87376258287488,0.9950753079218388,15.52344814495516
108.0,19.87725315737225,32.73891847120569,0.9953647240486274,15.60724354461326
109.0,18.865566162212875,32.40014066368335,0.9956385729965358,15.692981252232956
110.0,18.068409811401782,31.88609545554282,0.9958975112540177,15.780704263952206
111.0,17.46156721856801,31.2298225572317,0.9961421859042418,15.870456717957069
112.0,17.018632428374968,30.465413374485564,0.9963732328020597,15.96228387799568
113.0,16.714118524318863,29.625141158190495,0.9965912749240041,16.05623211442134
114.0,16.525764678882354,28.737462637437442,0.9967969210470832,16.15234887364369
115.0,16.435958926221133,27.82593331622803,0.9969907644770155,16.250682653113945
116.0,16.432248368012612,26.909023570019645,0.9971733821604116,16.351282957952687
117.0,16.507278403655505,26.0004667308066,0.9973453337462885,16.454200266475695
118.0,16.65826704992896,25.11000639970797,0.9975071610473777,16.559485975788665
119.0,16.88634387283567,24.244211646798007,0.9976593875235132,16.6671923489155
120.0,17.195873448231044,23.407253642425232,0.9978025177982602,16.77737245947712
121.0,17.593748535262886,22.601603558916768,0.9979370377409216,16.89008011114173
122.0,18.088854400449037,21.82854319283546,0.9980634140835581,17.005369774557995
123.0,18.691542732302104,21.088584841513523,0.9981820945479597,17.123296501048834
124.0,19.413170953455285,20.38177333376511,0.9982935079237081,17.243915834403786
125.0,20.265667114743064,19.707910069384273,0.9983980642456605,17.367283714746968
126.0,21.26110393132828,19.066719579044676,0.9984961550484103,17.49345637485621
127.0,22.41126327167807,18.457976285261353,0.9985881536949167,17.62249022890625
128.0,23.727186555085165,17.881602505163425,0.9986744157536845,17.75444175400001
129.0,25.218707190043258,17.33774640312421,0.9987552794226926,17.889367364344402
130.0,26.893969809447025,16.8268429158132,0.9988310660133936,18.02732327868426
131.0,28.758944859625924,16.349662048774594,0.9989020804187072,18.168365380070053
132.0,30.81695790073296,15.907342862148187,0.9989686116445545,18.31254906931807
133.0,33.06817845822854,15.501419665963262,0.9990309331435108,18.459929094661447
134.0,35.509496534844466,15.133821985692252,0.9990893039956369,18.610559436659138
135.0,38.1338699647461,14.8068767366227,0.9991439687326827,18.76449308999377
136.0,40.93032213825412,14.523297256579792,0.9991951582287649,18.921781908613063
137.0,43.88387350855634,14.28614848993148,0.999243090466248,19.082476452343023
138.0,46.975542744872946,14.098826195124254,0.9992879707956939,19.246625774779346
139.0,50.18257994603177,13.965011263508357,0.9993299926404884,19.414277250525686
140.0,53.47877273518316,13.888620104252231,0.999369338035367,19.58547638370533
141.0,56.834869969862226,13.873746612398184,0.9994061781743548,19.76026661555292
142.0,60.21908825080423,13.924597321087036,0.9994406739468751,19.938689129789328
143.0,63.597680164427096,14.045419423018137,0.9994729764604264,20.120782656489123
144.0,66.93554648271412,14.240422800797107,0.9995032275485166,20.306583275177164
145.0,70.19688227133962,14.513696934429841,0.999531560262796,20.496124217912225
146.0,73.34585402034965,14.869123723137719,0.9995580993485762,20.689435673134582
147.0,76.34730855588916,15.310287397273791,0.9995829617031249,20.886544591068255
148.0,79.1675148942459,15.840382804438981,0.9996062568160224,21.087474491266086
149.0,81.77492821661286,16.46212352072442,0.9996280871921047,21.29224527349067
150.0,84.14095555359094,17.177651484024643,0.9996485487562051,21.500873032406563
151.0,86.24068612148844,17.98845030172902,0.9996677312411577,21.713369877910367
152.0,88.05354062991951,18.895262889422717,0.9996857185519008,21.929743755311453
153.0,89.56379220624562,19.898021357519518,0.99970258912793,22.149998286051087
154.0,90.76088740051378,20.99578957394572,0.999718416293699,22.374132625896912
155.0,91.63970795392427,22.18669745143969,0.9997332684784237,22.602141213986613
156.0,92.2003623271928,23.46790984280542,0.9997472095794123,22.834013654339948
157.0,92.44778070849698,24.83566095284473,0.9997602993935585,23.06973479241324
158.0,92.39146585260835,26.285198609876367,0.999772593646613,23.30928428475899
159.0,92.04479295630998,27.810838744246283,0.9997841443479841,23.552636590673043
160.0,91.42430687406124,29.406015569515336,0.999795000040927,23.799760873616098
161.0,90.54901957953699,31.063352140588275,0.9998052060268161,24.050620901938867
162.0,89.43973172221729,32.774744346258274,0.9998148045743319,24.305174955531818
163.0,88.11840569729426,34.531458617720155,0.9998238351133841,24.563375733842815
164.0,86.60760919948602,36.32423977334851,0.9998323344048559,24.825170235661204
165.0,84.93004956058775,38.14343378710174,0.9998403367346294,25.090499722113048
166.0,83.10821011794711,39.979108668082844,0.9998478740855596,25.359299678873843
167.0,81.16407534847184,41.8211716379648,0.9998549762897492,25.631499767427368
168.0,79.11892889433818,43.65948266920931,0.9998616711713914,25.907023783675314
169.0,76.99320647258634,45.48396390916013,0.9998679846723904,26.185789593115924
170.0,74.80640487474962,47.28470526117126,0.9998739409785248,26.467709089963176
171.0,72.57703618997499,49.05205833430365,0.9998795626509168,26.752688220174466
172.0,70.3226009641175,50.77672281858436,0.9998848707358549,27.040626971336778
173.0,68.05957647827508,52.449827258538406,0.9998898848667878,27.331419364636638
174.0,65.80341086183017,54.06300573313663,0.9998946233579036,27.62495344210934
175.0,63.56851471531865,55.60847550093234,0.9998991032862755,27.921111222007116
176.0,61.368269580032525,57.0791035083077,0.9999033405851097,28.219768738762962
177.0,59.21502695391393,58.468467321740285,0.9999073501245149,28.520796067747554
178.0,57.12010417149457,59.77091249337984,0.9999111457833362,28.82405733315696
179.0,55.093779508570805,60.98160348865052,0.9999147405161398,29.129410716037672
180.0,53.14528009136049,62.09657177334092,0.9999181464115207,29.43670842911644
181.0,51.2827857681819,63.11274961200992,0.9999213747517416,29.745796717134454
182.0,49.51344403276919,64.02798147062138,0.999924436073125,30.056515905282083
183.0,47.84338778411919,64.84102557448803,0.9999273402170805,30.368700412119686
184.0,46.27776397860963,65.55154388211503,0.9999300963762495,30.682178740955106
185.0,44.820766361518636,66.16006496218618,0.9999327131404105,30.996773523626377
186.0,43.4756566495503,66.66797982392293,0.9999351985152201,31.31230123833569
187.0,42.24491275681173,67.07741564945648,0.9999375600022768,31.628572639139055
188.0,41.130219604163,67.39119350501356,0.9999398046161174,31.945392664331937
189.0,40.1325390515898,67.61280548888354,0.9999419388675843,32.26255956941373
190.0,39.252299494716574,67.74617726519621,0.9999439689157389,32.57986677019948
191.0,38.48932510920922,67.79575606300683,0.9999459004347296,32.89710026404346
192.0,37.84309133328889,67.76624835678707,0.9999477388157909,33.214041487455496
193.0,37.31261796228736,67.66265997597743,0.9999494890137102,33.530464181822026
194.0,36.89672414083752,67.49011637321777,0.9999511557420228,33.846137490943846
195.0,36.59391957531003,67.25382992565513,0.9999527433351726,34.16082283703273
196.0,36.40261348090057,66.95901474337728,0.9999542559083703,34.47427670177213
197.0,36.321023414759864,66.61080637315702,0.9999556972581717,34.78624804833047
198.0,36.34732536719815,66.21423950961145,0.9999570709726507,35.096480305806
199.0,36.479580882795865,65.77416700380464,0.9999583803789357,35.40470975456119
200.0,36.715833513121474,65.2952546273193,0.9999596286014103,35.71066636995701
201.0,37.054052409829765,64.78194083167024,0.9999608185548358,36.01407344676411
202.0,37.49218234431384,64.23841210764029,0.9999619529559873,36.31464710798179
203.0,38.02810727985798,63.668624375790685,0.9999630343549772,36.61209728842421
204.0,38.65965800934018,63.076243069197766,0.9999640651101684,36.90612588256074
205.0,39.38460206072225,62.46472346347707,0.9999650474470256,37.1964290307212
206.0,40.20061300831196,61.83722058342576,0.9999659834083596,37.482694072835855
207.0,41.10528848515013,61.196707415476574,0.9999668749284957,37.76460287484555
208.0,42.09609149836863,60.54587459028144,0.9999677237718937,38.04182798644466
209.0,43.17038701845785,59.88725608727432,0.999968531609519,38.31403648763223
210.0,44.32537519009805,59.22314388400703,0.9999692999594095,38.58088601959331
211.0,45.55812699107993,58.55569396501521,0.9999700302530352,38.84202844171012
212.0,46.86553179787251,57.88687236183324,0.9999707237881051,39.09710645107212
213.0,48.24431200766138,57.21852896880548,0.9999713817774075,39.34575642915941
214.0,49.69100275942485,56.552377656625524,0.999972005319252,39.5876062073446
215.0,51.20193009635251,55.89003923981493,0.9999725954256304,39.82227669042394
216.0,52.773233065960646,55.233048037289976,0.9999731530119896,40.04938109903481
217.0,54.40079700986577,54.58287429601138,0.9999736789045428,40.26852520984333
218.0,56.080317458924654,53.94094404366492,0.9999741738468843,40.47930800968487
219.0,57.80720377096819,53.30865530358239,0.9999746384943835,40.68132115896594
220.0,59.57663797855526,52.68739746099847,0.9999750734291625,40.87415040352351
221.0,61.38350840442947,52.07857124004005,0.9999754791443206,41.057374502160194
222.0,63.22240851824732,51.48360681675591,0.9999758560608278,41.2305670071223
223.0,65.08764273592959,50.90397909984749,0.9999762045234617,41.39329622847069
224.0,66.97313972510153,50.34123863765117,0.9999765247942747,41.54512564381153
225.0,68.8724976660327,49.79701380756139,0.999976817068513,41.6856155305117
226.0,70.77891367209908,49.27304667855835,0.9999770814585972,41.8143228268206
227.0,72.6851406874158,48.771208930079524,0.9999773180025493,41.93080310006671
228.0,74.58352377755381,48.293505738843116,0.9999775266668982,42.03461114776551
229.0,76.46586567649962,47.842128815352964,0.99997770733116,42.12530262784862
230.0,78.32347611317475,47.41943853512806,0.9999778598043485,42.202435740367015
231.0,80.14711556093242,47.02800371521144,0.9999779838099635,42.26557236326548
232.0,81.92693222466494,46.67061296980149,0.9999780789891141,42.314280970467294
233.0,83.65248526756042,46.35027888269274,0.9999781448992618,42.34813802637119
234.0,85.31272053358514,46.070250641717244,0.9999781810089596,42.36673032788486
235.0,86.89593808277495,45.83402714819003,0.9999781866915383,42.36965844478913
236.0,88.38984370480674,45.645338873154536,0.9999781612264461,42.35653895147305
237.0,89.78158906431361,45.50813946250447,0.9999781037946702,42.32700697503369
238.0,91.0578115014921,45.42659799151262,0.9999780134674576,42.280720714433166
239.0,92.20474822015066,45.405059122548366,0.9999778892049689,42.21736478864837
240.0,93.20838137440343,45.44800067273647,0.9999777298530581,42.13665274775041
241.0,94.0545998991003,45.55998965439874,0.9999775341314323,42.03833177921586
242.0,94.7294373565177,45.74560966854051,0.9999773006238175,41.9221881539105
243.0,95.21933268656035,46.00938297255127,0.9999770277764267,41.78804934187712
244.0,95.51140383495773,46.35569087677324,0.9999767138878667,41.63578793734797
245.0,95.59384956999152,46.788654870200865,0.9999763570897408,41.46532882104997
246.0,95.45628140890099,47.31202987228303,0.9999759553433221,41.2766514743129
247.0,95.09001812086504,47.92910503179138,0.9999755064309981,41.069792342331716
248.0,94.48847780631334,48.64256652403325,0.9999750079360651,40.844850589956536
249.0,93.64761802761726,49.454320614628564,0.9999744572178036,40.60199492212976
