Time,J,A,S,tau
0.0,100.0,10.0,0.6151783755542495,20.782031288622616
1.0,99.03161575612879,9.082651313961762,0.6109999271623806,21.70434386318721
2.0,98.08639341279547,8.253803047585887,0.606852508081509,22.630378205843627
3.0,97.16302488743428,7.504967586110144,0.6027375831333953,23.559808170535383
4.0,96.260451746072,6.828227769596539,0.5986560166135831,24.49240487432862
5.0,95.37766942272249,6.216460340579144,0.5946084901535985,25.427952844944134
6.0,94.51372436752375,5.663272610990516,0.5905955161568596,26.366249392843436
7.0,93.66771102510064,5.162909739783399,0.5866174517059699,27.307103908695602
8.0,92.83876912527276,4.710203447262901,0.5826745115038555,28.250337204774333
9.0,92.02608099931193,4.3004988157360104,0.5787667804975449,29.195780841075248
10.0,91.22886904019826,3.9296122990348414,0.5748942259502609,30.143276463657443
11.0,90.44639334485791,3.593774367694186,0.5710567086505963,31.092675174971077
12.0,89.67794936195841,3.2895946313942437,0.5672539938841976,32.04383688981522
13.0,88.92286583640056,3.014017256048095,0.5634857612269634,32.99662975725092
14.0,88.1805026529928,2.7642916226502754,0.5597516143062031,33.95092954823514
15.0,87.45024904516504,2.5379374071557623,0.5560510892714224,34.906619128915175
16.0,86.73152166496233,2.3327216119688425,0.552383663275624,35.86358789515758
17.0,86.02376297470424,2.1466292223877734,0.5487487618348912,36.82173128393009
18.0,85.32643959950074,1.9778458894678939,0.5451457659790819,37.78095027244143
19.0,84.63904077764201,1.82473261875533,0.5415740187675411,38.74115090339408
20.0,83.9610770697527,1.685813414411859,0.5380328311159945,39.70224386616697
21.0,83.29207885529576,1.5597554226917238,0.5345214875331947,40.66414403611383
22.0,82.6315952501114,1.445356193662201,0.5310392509915156,41.62677010425839
23.0,81.97919280315192,1.341531421159698,0.5275853677563556,42.590044163995664
24.0,81.33445444021824,1.2473009318389476,0.5241590716138254,43.55389135141303
25.0,80.69697845988921,1.161781664476473,0.5207595878576836,44.51823949473206
26.0,80.06637745427366,1.0841759322300832,0.5173861369744117,45.4830187566925
27.0,79.44227748041972,1.013763137930114,0.5140379379986147,46.44816132032016
28.0,78.8243171589448,0.9498937011313296,0.5107142116906536,47.413601063661034
29.0,78.21214680516754,0.891980838218776,0.507414183421823,48.379273245178325
30.0,77.60542770617022,0.8394944170778958,0.5041370859207506,49.34511420787974
31.0,77.0038313869435,0.7919567912043005,0.5008821618779584,50.311061080460824
32.0,76.40703886632083,0.7489370622644439,0.4976486663093027,51.27705148205483
33.0,75.81474000815619,0.7100462239210084,0.49443586885288815,52.2430232347806
34.0,75.22663290838604,0.674933420744842,0.4912430560108929,53.20891407482493
35.0,74.64242328842663,0.6432828352394204,0.4880695332953571,54.17466136096298
36.0,74.06182389869156,0.6148102454186372,0.4849146272361208,55.140201784750715
37.0,73.48455397304197,0.5892597933015876,0.48177768741515253,56.10547107550197
38.0,72.91033869338703,0.5664013298119612,0.4786580884370574,57.07040370188423
39.0,72.33890869453258,0.5460287134438858,0.47555523201114414,58.03493255991609
40.0,71.76999955242343,0.5279570747990828,0.47246854886092615,58.99898866203167
41.0,71.20335130927492,0.5120208738070079,0.469397500751175,59.962500811371584
42.0,70.63870801505833,0.4980730089302382,0.46634158261321756,60.92539526003092
43.0,70.07581726529067,0.4859824447646977,0.46330032455506154,61.88759536459946
44.0,69.51442975907521,0.4756327890402093,0.46027329396768146,62.84902122624928
45.0,68.9542988769547,0.4669222310652691,0.45726009794943184,63.809589293450166
46.0,68.3951802431464,0.459760884752349,0.45426038527434626,64.76921199192918
47.0,67.83683132536069,0.45407127703882694,0.4512738493354692,65.72779725275431
48.0,67.27901100392563,0.4497861640890102,0.44830022989002494,66.68524814527697
49.0,66.72147918228646,0.44684821308958506,0.445339316268316,67.64146234775708
50.0,66.16399638943723,0.44520940880954746,0.4423909481617359,68.59633188619128
51.0,65.60632337899897,0.444832527715908,0.4394550222647088,69.54974218273317
52.0,65.04822073896919,0.44568493523669783,0.4365314924974389,70.50157178312455
53.0,64.48944864606116,0.44774376807776606,0.43362036627112654,71.45169271726921
54.0,63.929766059358904,0.4509931349167159,0.430721730133862,72.39996696129622
55.0,63.368930941938,0.4554314231299454,0.4278357197416829,73.34625021074277
56.0,62.80669947974806,0.4610506099115756,0.42496255194275184,74.29038728016984
57.0,62.242826189794535,0.4678563124469659,0.4221025036409305,75.23221491547868
58.0,61.6770627502242,0.47585809625071257,0.4192559451004831,76.17155680068622
59.0,61.10915880016801,0.48507631199987467,0.41642330610555184,77.10822821397491
60.0,60.53886074164516,0.4955301535577527,0.4136051111698256,78.04203056933099
61.0,59.96591222106543,0.5072447455976661,0.41080195890264526,78.97275423401155
62.0,59.39005321507301,0.5202554470129032,0.4080145407469584,79.90017548689534
63.0,58.81102030268279,0.5345974430528627,0.4052436362428297,80.82405674288442
64.0,58.22854665867893,0.5503127559733358,0.4024901086316155,81.74414708403332
65.0,57.642361300524506,0.5674497860954134,0.399754923265955,82.66017883470846
66.0,57.05218998573344,0.5860560433507874,0.39703912985518536,83.57186999238104
67.0,56.45775460625997,0.60618896853341,0.3943438729992647,84.4789222302536
68.0,55.85877348675794,0.6279057007455385,0.3916703948360642,85.38101964710722
69.0,55.254962051235154,0.6512656712193166,0.3890200193902883,86.27783120079656
70.0,54.64603238187893,0.6763366588727121,0.38639416879649574,87.16900711925658
71.0,54.03169446466476,0.70318169352411,0.3837943472169798,88.05418097536891
72.0,53.41165629259141,0.7318706129878029,0.38122213759771556,88.93296997514223
73.0,52.785624646873806,0.762474046665144,0.3786792065501188,89.80497261081803
74.0,52.15330620858653,0.7950584909208063,0.37616728263756827,90.66977243536266
75.0,51.514408018926915,0.8296984410806499,0.37368816030642693,91.52693617877458
76.0,50.86863933469102,0.8664605510561169,0.37124368597248747,92.37601495149649
77.0,50.21571204924951,0.905411488059618,0.36883574478339504,93.21654684499872
78.0,49.55534285322119,0.9466202277385903,0.3664662551161821,94.04805549202338
79.0,48.88725451138737,0.9901438836964557,0.36413714870494035,94.87005378306384
80.0,48.21117684109756,1.0360437904698572,0.3618503619522516,95.68204461614545
81.0,47.526850160202294,1.084371880309164,0.359607815459409,96.48352225670831
82.0,46.83402495826669,1.1351715321019344,0.3574114038048526,97.27397554479198
83.0,46.132465729792244,1.18849068491297,0.355262972936797,98.05288902180101
84.0,45.42564303789861,1.315804243570184,0.3531643102328423,98.81974589837814
85.0,44.71364203129868,1.5001969671551885,0.351117123220896,99.5740301311912
86.0,43.994313698253656,1.6917868609175815,0.34912302408791723,100.31522905228739
87.0,43.26792155754321,1.8907453584393519,0.34718351739519376,101.04283559394176
88.0,42.53483402547902,2.097228178653816,0.3452999823584494,101.75635085773196
89.0,41.795543615267,2.3113735616254774,0.34347365698961324,102.4552867458067
90.0,41.050668124585826,2.533303104060446,0.34170564393116265,103.13916652770078
91.0,40.30099359196528,2.7631175640606256,0.33999687467236267,103.8075290900569
92.0,39.54747687504825,3.000898828771601,0.3383481268723932,104.45992848402693
93.0,38.791273872794356,3.2467078960199194,0.3367600057613531,105.0959363490696
94.0,38.03376882505655,3.5005852886965125,0.33523295146585735,105.71514232757727
95.0,37.27661326596595,3.7625490592547655,0.33376721994751246,106.31715648444543
96.0,36.521709553970204,4.032599393599957,0.33236292630121256,106.90160545714393
97.0,35.771295897682485,4.31071418473132,0.3310200077003033,107.46813692651824
98.0,35.027970952589875,4.596851466580403,0.32973824856869377,108.0164175409466
99.0,34.294682573188005,4.890951665814778,0.32851729829984444,108.54613084018676
100.0,33.574833219087616,5.19293575497643,0.32735666338208247,109.05697894068281
101.0,32.87225648363746,5.502708713107911,0.3262557364511227,109.54867906710217
102.0,32.19126759696697,5.820159740403914,0.3252138017362279,110.02096309876198
103.0,31.536726560974884,6.145162879698963,0.3242300461959802,110.47357650588432
104.0,30.9139989225465,6.477579869176538,0.3233035834305364,110.90627531353418
105.0,30.329012106485507,6.817260385217877,0.3224334613096152,111.31882528937334
106.0,29.78824571363655,7.164043705062968,0.32161867845889297,111.71099983958035
107.0,29.298722151009198,7.517759958983243,0.3208581983912169,112.08257822003019
108.0,28.867967344731127,7.878231482493614,0.3201509636205339,112.43334368651917
109.0,28.50394469864569,8.245274104640226,0.3194959083907926,112.76308178672764
110.0,28.21497475535769,8.618698159912583,0.3188919706075772,113.07157877802302
111.0,28.009604861955,8.998309625386641,0.31833810305985366,113.35862009095075
112.0,27.896443274047897,9.383911101956254,0.317833283550238,113.6239889503154
113.0,27.883948479673148,9.775302717363676,0.31737652397646116,113.86746513395518
114.0,27.980170568188317,10.172282942852101,0.3169668784112798,114.08882387318326
115.0,28.681879817404468,10.06012632650838,0.3421289426884074,103.53436437230312
116.0,29.509379619576116,9.883063798913797,0.3932888469604929,83.09197375944541
117.0,30.3972076594697,9.705852022257826,0.45135678066922735,62.995830459249206
118.0,31.344460541497444,9.528550062749154,0.4907943068557014,51.5457767633828
119.0,32.34968241910177,9.351219229779135,0.5169131546344264,44.768605467297505
120.0,33.410850575738074,9.173923013599516,0.5356162990980056,40.20269472614781
121.0,34.52262243086661,8.999517718980483,0.549834027995328,36.83747150842407
122.0,35.666762708564136,8.845075863321327,0.5610951206018671,34.204857095449526
123.0,36.84391780078162,8.709431320247296,0.5702782140269824,32.058278740381
124.0,38.04638988102733,8.599964033442824,0.5779307254641868,30.25436543939176
125.0,39.265872342672054,8.525620834431878,0.5844157642663157,28.7033257260512
126.0,40.49349588484004,8.497047376778655,0.5899862002728292,27.34563191365662
127.0,41.71976320121718,8.526652895285773,0.5948250596949155,26.140012056952255
128.0,42.934227384112035,8.628588258252803,0.5990689210898802,25.056818264464695
129.0,44.124784153271726,8.818584503372103,0.6028222911114925,24.074118726873156
130.0,45.2763381045481,9.113630577313291,0.6061667998208269,23.175289268759453
131.0,46.36870656684475,9.53145169693989,0.6091672893993205,22.347470966847354
132.0,47.373750214282886,10.089757905624712,0.61187599162644,21.58054385338972
133.0,48.252111727873555,10.805245484075503,0.614335492739355,20.866419761893383
134.0,48.950434117289724,11.692398831737849,0.6165808693155982,20.198547111397442
135.0,49.43467141593556,12.728214581373265,0.618641256348016,19.571556802624343
136.0,49.701169918146434,13.846829672727596,0.6205410397716467,18.98099955446304
137.0,49.68672490364815,15.041438944060225,0.6223007493375806,18.423154899543437
138.0,49.33512648572521,16.305642549505293,0.6239377721571104,17.894881665025945
139.0,48.604679473391506,17.632309927448446,0.6254669074228119,17.393505268013996
140.0,47.468786706530345,19.01757588084504,0.6269007960490289,16.916732007364715
141.0,45.919472998117946,20.459135764648245,0.6282502768816843,16.46258024046497
142.0,43.96563799317758,21.957299457052397,0.6295246783504552,16.029325210408235
143.0,41.62996405028122,23.515234135606093,0.6307320558394417,15.615455047384621
144.0,38.946207499330974,25.13766501309699,0.6318793771414063,15.219637485613026
145.0,35.95832739737985,26.827176081379484,0.632972684951693,14.840691188084481
146.0,32.722873697885994,28.577479180750863,0.6340172344912279,14.47756222308744
147.0,29.314824090062253,30.363692278473245,0.6350176016107404,14.129305798460134
148.0,25.834062726733837,32.132399037142314,0.6359777795701091,13.79507034540051
149.0,22.406065769043416,33.79810186867139,0.6369012591238791,13.474084585727853
150.0,19.16224021327542,35.26093127536795,0.6377910959241464,13.165646899027521
151.0,16.214059009817248,36.43204311701333,0.6386499691364942,12.869116200383559
152.0,13.638989463312722,37.24882074039951,0.6394802309150255,12.58390437783183
153.0,11.474430144337077,37.682878695360266,0.6402839489446831,12.309469894716655
154.0,9.719526062714419,37.7401854731623,0.6410629429038006,12.045312404476453
155.0,8.342824691788595,37.45494583868029,0.641818816333557,11.790968035055915
156.0,7.292818920697676,36.88013093386458,0.6425529837333691,11.546005468570353
157.0,6.508338325979495,36.077772477095,0.643266694111863,11.310022552602456
158.0,5.927155524977825,35.11076127005852,0.6439610514078803,11.082643377713696
159.0,5.492574220265243,34.03647589928502,0.6446370322691483,10.86351573742692
160.0,5.1580801497185265,32.90223001836814,0.645295501492455,10.652308928096831
161.0,4.889708885785739,31.742936912708373,0.6459372254851045,10.448711828124512
162.0,4.6655138983466005,30.581648731044332,0.6465628840152391,10.252431215167224
163.0,4.472728025487117,29.432403071725183,0.6471730804735044,10.063190289558689
164.0,4.304585361629765,28.30341860344493,0.6477683508152194,9.880727378592415
165.0,4.157914947589283,27.199524440493125,0.648349171628031,9.704794731167727
166.0,4.031660094590492,26.123672987452224,0.6489159666982282,9.535157575465693
167.0,3.926042033265878,25.07781126861046,0.6494691128759644,9.37159326350511
168.0,3.8420998121268215,24.0633525982026,0.6500089462353564,9.21389021937103
169.0,3.78145823942952,23.081421311161197,0.6505357661755768,9.061847369639988
170.0,3.7461704805750324,22.133008792850237,0.651049839758546,8.915273415057408
171.0,3.738583070000456,21.21908070754464,0.651551405276385,8.773986255894073
172.0,3.7611891117195944,20.340667573552395,0.6520406755048379,8.637812433867033
173.0,3.8164628068169693,19.498939397638274,0.652517840481278,8.506586659890772
174.0,3.906666395744383,18.695263776141267,0.6529830700880622,8.380151338440426
175.0,4.033623390731205,17.93124940456052,0.6534365163161714,8.258356141261395
176.0,4.198450555753918,17.20877386854875,0.6538783153069491,8.141057607376469
177.0,4.401269595674692,16.529996833716503,0.6543085890941199,8.028118793156999
178.0,4.641002350474044,15.897379436212772,0.6547274465525198,7.919409160199511
179.0,4.914952696548631,15.313602843267953,0.655134986027909,7.8148038399991036
180.0,5.218675198085351,14.781534207567123,0.6555312956711162,7.714183688460897
181.0,5.545838329293475,14.30410738483773,0.6559164547969767,7.617434927278523
182.0,5.88827148716099,13.884170424510247,0.6562905348707969,7.524448890209047
183.0,6.236150516875069,13.524280011534788,0.6566536003616632,7.43512182629718
184.0,6.57839584308009,13.22645593867515,0.6570057095851429,7.349354657665245
185.0,6.903279282227807,12.991906417705145,0.6573469153707787,7.2670528004316965
186.0,7.19916419483217,12.820738565707563,0.6576772657145225,7.188125975805334
187.0,7.455345909492854,12.711698498131312,0.6579968043542818,7.112488028744545
188.0,7.662895729444194,12.661965562577768,0.6583055712782355,7.040056765951695
189.0,7.815414718486361,12.667036400004845,0.6586036031791155,6.970753813615327
190.0,7.909586768839763,12.720754526488012,0.6588909338748997,6.904504457264756
191.0,7.945426625380645,12.815474670355243,0.6591675946933861,6.841237507567835
192.0,7.926268278620573,12.942383494088267,0.6594336147937954,6.780885185015161
193.0,7.8583828912998115,13.091959638762328,0.6596891896370952,6.723378773149967
194.0,7.7517540699955125,13.253154600013769,0.6598701547351953,6.670256127292365
195.0,7.621556824722759,13.412264990721475,0.6597715214689982,6.6264856119682705
196.0,7.479534822619361,13.560862842538132,0.6593911569670199,6.591916080796175
197.0,7.336447525831159,13.692470066037721,0.6587424478922008,6.566043878055477
198.0,7.20175699545434,13.80243870639169,0.6578392547999922,6.548387516877334
199.0,7.083226930693934,13.887974395074304,0.6566958507856903,6.538485915898515
200.0,6.986659158800197,13.948083408619324,0.6553298309051784,6.535825578738504
201.0,6.9122083612538425,13.986801126304691,0.6539299590166963,6.535820498655056
202.0,6.85886885344089,14.008112218635027,0.652607080444636,6.535820498655056
203.0,6.826196421763504,14.014685400231285,0.6513623649653945,6.535820498655056
204.0,6.812528668098279,14.00971770968846,0.6501967138825326,6.535820498655056
205.0,6.8152560046439845,13.996659464139702,0.6491109707839149,6.535820498655056
206.0,6.831062338535745,13.97897721331196,0.6481059208351464,6.535820498655056
207.0,6.856207133954067,13.959935690095547,0.6471822903551175,6.535820498655056
208.0,6.88711169075178,13.942121585244502,0.6463407463816898,6.535820498655056
209.0,6.920522470261197,13.927442404505733,0.6455818962838966,6.535820498655056
210.0,6.953408142989224,13.917345874999633,0.6449062874181795,6.535820498655056
211.0,6.9830786053870115,13.912802113678524,0.6443144068263214,6.535820498655056
212.0,7.007282207438465,13.914304945977861,0.6438066809728996,6.535820498655056
213.0,7.024270431820043,13.921897049362235,0.6433834757031803,6.535820498655056
214.0,7.0328332795973925,13.93521645863826,0.6430450956699928,6.535820498655056
215.0,7.0322632057307075,13.953594101645685,0.6427917840970528,6.535820498655056
216.0,7.022283288787127,13.976154283836356,0.6426237252081484,6.535820498655056
217.0,7.003042800236599,14.001870959165885,0.6425410369455348,6.535820498655056
218.0,6.974994511691638,14.029651891112753,0.6425437795076897,6.535820498655056
219.0,6.938857790339116,14.058386733952709,0.642631951837714,6.535820498655056
220.0,6.895542552215195,14.087014924076435,0.6428054895007885,6.535820498655056
221.0,6.846067830832766,14.11457172575403,0.6430642677570262,6.535820498655056
222.0,6.791499001409211,14.140219067150527,0.6434081014782571,6.535820498655056
223.0,6.732881045969664,14.163271606979668,0.6438367426942992,6.535820498655056
224.0,6.671206867094866,14.18320881896829,0.6443498820722846,6.535820498655056
225.0,6.607383514383074,14.199670120531206,0.644947150526088,6.535820498655056
226.0,6.542201386159999,14.212450089284363,0.6456281185746245,6.535820498655056
227.0,6.47632037757262,14.221490333155762,0.6463922946176244,6.535820498655056
228.0,6.4102800819674375,14.226858733694733,0.6472391264324937,6.535820498655056
229.0,6.344510470729839,14.228722987605417,0.6481680057192507,6.535820498655056
230.0,6.279297577405088,14.227336264112978,0.649178259160464,6.535820498655056
231.0,6.214883996124504,14.22301461043984,0.6502691580928267,6.535820498655056
232.0,6.151369273454762,14.216107143544985,0.651439912267539,6.535820498655056
233.0,6.08887587277985,14.20699616277015,0.6526896775195277,6.535820498655056
234.0,6.027399277183541,14.196057993452044,0.654017539665901,6.535820498655056
235.0,5.966976405011021,14.183671822294597,0.6554224061598212,6.535823701454017
236.0,5.910041410927878,14.167918236885596,0.6567722239512678,6.538880841134612
237.0,5.860307683300453,14.146119959981686,0.6578910164771277,6.5490991064242765
238.0,5.818743279423599,14.118478433678463,0.6587680246173563,6.566773070884942
239.0,5.786261126150426,14.085212834646011,0.6593950507856515,6.5921569333816
240.0,5.763757363991236,14.046536493203293,0.659765110521191,6.625496385228465
241.0,5.7521305201272135,14.002642429891171,0.6598714258663106,6.667053012009675
242.0,5.752090322820513,13.953900708897917,0.6597189034031419,6.716830069652907
243.0,5.761179920597073,13.903618496706574,0.6594787057686189,6.7708437117224305
244.0,5.777745621510329,13.853819908891627,0.6592296872187766,6.827251171335644
245.0,5.801374715238457,13.805202096359064,0.6589718771043733,6.886085338525234
246.0,5.8316392406719,13.7584342514875,0.6587053342147381,6.947379666300209
247.0,5.8681252850962125,13.714161856705534,0.658430117623235,7.011168918591184
248.0,5.910421872072221,13.673009880554813,0.6581462865585046,7.077489291647458
249.0,5.958099026864088,13.635595081361059,0.6578539003288268,7.1463781093882055
250.0,6.010894194827256,13.602395444609499,0.6575530180701233,7.21787412777552
