Time,J,A,S,tau
0.0,100.0,10.0,0.8874794931897845,26.70542781526196
1.0,99.45321711045918,9.348248399456223,0.8868751002790362,27.61306737899276
2.0,98.91883535188076,8.755870468436047,0.88627321495969,28.52303987548511
3.0,98.39671955442618,8.217342539086804,0.885673853263123,29.435167773000515
4.0,97.88616333774664,7.7274101920375,0.8850769985417123,30.349322661821358
5.0,97.38649084546302,7.281369846528393,0.8844826233707938,31.265381616520248
6.0,96.89705493637025,6.875000262719458,0.8838906903547818,32.18322686760978
7.0,96.41723557276272,6.504526568868619,0.8833011528488504,33.10274550811652
8.0,95.94643799010048,6.16656357858937,0.8827139557391079,34.023829159387674
9.0,95.48409107771559,5.858074652030579,0.8821290361320929,34.94637367414985
10.0,95.02964583236995,5.576331736139924,0.8815463240036582,35.87027885176102
11.0,94.58257393837346,5.318890148822542,0.880965742791093,36.79544817561435
12.0,94.14236627890904,5.0835540760317945,0.8803872099919409,37.72178853732418
13.0,93.70853154992284,4.868350306708897,0.8798106377138513,38.6492099788192
14.0,93.28059497632499,4.671506583343278,0.8792359331790616,39.577625452030475
15.0,92.85809700486985,4.491430530345859,0.8786629992212912,40.50695057406319
16.0,92.44059210481869,4.326689744542204,0.8780917347380981,41.437103400800176
17.0,92.02764756757335,4.175994728299244,0.8775220351306083,42.36800420005027
18.0,91.61884242334031,4.038188348330529,0.8769537926999359,43.29957524453081
19.0,91.21376627825894,3.9122287321101186,0.8763868970537648,44.23174059079342
20.0,90.81201826304762,3.797177356781938,0.8758212354727936,45.164425877102445
21.0,90.41320604356683,3.6921919650928263,0.8752566932545092,46.09755813089982
22.0,90.01694474949169,3.59651439833622,0.8746931540670441,47.0310655627787
23.0,89.62285602132121,3.50946235350667,0.874130500268001,47.964877379537455
24.0,89.23056705996784,3.4304214320748803,0.8735686132186522,48.89892359656279
25.0,88.83970966004391,3.358842586785982,0.8730073735911252,49.8331348491849
26.0,88.4499193209532,3.2942319238560036,0.8724466616627577,50.76744221297587
27.0,88.06083433368208,3.236148858182201,0.8718863576168066,51.70177701800161
28.0,87.67209482126302,3.184195007632983,0.8713263418328736,52.63607066198851
29.0,87.28334189978011,3.1380119080132856,0.8707664951574438,53.57025443967806
30.0,86.89421679978082,3.0972918472718436,0.8702066992045241,54.50425935677732
31.0,86.50435990667826,3.0617517768196474,0.8696468366762842,55.43801592933533
32.0,86.11340996322984,3.031135574660118,0.8690867915895956,56.37145403254475
33.0,85.72100323098475,3.005233697038549,0.8685264495728989,57.30450271925852
34.0,85.32677209663484,2.9838505062150524,0.8679656984163605,58.23708989729509
35.0,84.93034543515628,2.9668130732095075,0.8674044277565808,59.16914248118635
36.0,84.53134544247322,2.9539908472050884,0.8668425304902565,60.1005855989708
37.0,84.12939016967388,2.945239561158191,0.8662799014970016,61.03134328640713
38.0,83.72408741435947,2.9404787680236937,0.8657164403366199,61.961336977272055
39.0,83.31504190149717,2.93960019004648,0.8651520479926558,62.8904873137306
40.0,82.90184274471211,2.9425241935628623,0.8645866323633443,63.81871108813131
41.0,82.48407122828507,2.949280158777146,0.864020104744844,64.7459231966711
42.0,82.06130287113452,2.9597859274398957,0.8634523790183924,65.6720371045484
43.0,81.63309183660388,2.9740193268801325,0.862883378374887,66.59696113311188
44.0,81.19898682737005,2.992000675389963,0.8623130283680149,67.52060229918133
45.0,80.75851766518501,3.0136917129780088,0.8617412628577787,68.44286308664515
46.0,80.31119778060958,3.039170496392451,0.8611680228359524,69.36364210154242
47.0,79.85652922230004,3.0684373778281198,0.8605932543693753,70.28283521764158
48.0,79.39398882012256,3.1015593205412233,0.8600169146744887,71.20033233881722
49.0,78.92304120980367,3.1385756840741945,0.8594389664402722,72.11602046473455
50.0,78.4431226100604,3.1795811381881083,0.8588593851148852,73.0297798782243
51.0,77.9536556344887,3.2246439734881456,0.8582781523380372,73.94148762630121
52.0,77.45403017797119,3.273878923458365,0.8576952646969803,74.85101301983904
53.0,76.94362105992573,3.3273843953545703,0.8571107257448832,75.75822178739352
54.0,76.42176614440574,3.3852936373907436,0.8565245562354898,76.6629709042919
55.0,75.88778516424702,3.4477454089957087,0.8559367854383019,77.56511304142866
56.0,75.34096039619682,3.514886479622023,0.8553474603850089,78.46449196822411
57.0,74.78054896387438,3.5868646717330166,0.8547566401557175,79.36094546316951
58.0,74.20577005937514,3.663873600244673,0.8541644021033589,80.25430228190157
59.0,73.61581133686745,3.7460799852719657,0.8535708390016336,81.14438362717611
60.0,73.00982347378341,3.833704441659444,0.852976061725838,82.03100187934287
61.0,72.38691653615466,3.926946718310285,0.8523802013355731,82.91395965740097
62.0,71.74616579051592,4.026040821449273,0.851783406225552,83.793051230355
63.0,71.08659727811414,4.13123296586148,0.85118584958382,84.66805899842782
64.0,70.40720151825954,4.242763160172245,0.8505877226246166,85.53875676455883
65.0,69.70691596280432,4.360925466103201,0.8499892435959677,86.40490549040123
66.0,68.98463601438074,4.4859762283074565,0.8493906524185478,87.26625587160818
67.0,68.23920591826833,4.618242071982202,0.8487922153462584,88.12254615797721
68.0,67.4694170846915,4.758013467996455,0.8481942261391104,88.97350161034012
69.0,66.67401406992032,4.905630523584546,0.8475970029177884,89.81883599416422
70.0,65.85167830451608,5.06143606399622,0.8470008968431705,90.6582474602783
71.0,65.00104582964278,5.225768375819059,0.8464062828968669,91.4914228805966
72.0,64.120685373026,5.399027282805722,0.8458135713450439,92.31803236508408
73.0,63.20911497041193,5.581558458306054,0.8452231991745137,93.13773324535919
74.0,62.26478914155592,5.773797468801542,0.844635636610781,93.95016689078152
75.0,61.28610139074385,5.976118176933746,0.8440513859131817,94.75495908997043
76.0,60.2713893630647,6.1889636102074395,0.8434709784156792,95.55172139825619
77.0,59.21891223817075,6.412758472054178,0.8428949820152967,96.34004712835741
78.0,60.88245612171668,7.051684769432361,0.8423239915684833,97.11951593451674
79.0,64.46914015013067,7.963658978281764,0.8417586350722365,97.88969032343725
80.0,68.28196160975598,8.901879039109334,0.841199570501718,98.65011684672695
81.0,72.26390406067259,9.867528592961179,0.8406474849113688,99.40032605309165
82.0,76.35670668903546,10.861807282399667,0.8401030927718929,100.13983275548621
83.0,80.5015007808871,11.885927443624007,0.8395671342053359,100.86813622998294
84.0,84.63951932446643,12.941109643322866,0.8390403723731275,101.58472078837096
85.0,88.71288142608118,14.028577964677538,0.8385235908018527,102.28905621071387
86.0,92.66541858478452,15.149554806065526,0.8380175898641395,102.98059855449664
87.0,96.44350823404994,16.30525453086022,0.8375231828947023,103.65879101230773
88.0,99.99695284970082,17.49687698521792,0.837041191754801,104.32306486360636
89.0,103.27977455831564,18.725600343023604,0.8365724417193937,104.97284074214495
90.0,106.25097751632718,19.992573074092856,0.8361177558398558,105.60752996240842
91.0,108.87518518203362,21.29890526751468,0.8356779487259599,106.22653606887478
92.0,111.12319402902651,22.645659664655327,0.8352538196567464,106.82925651626543
93.0,112.97232642669968,24.033841953165574,0.8348461451870194,107.41508456191623
94.0,114.40662392873533,25.464390652623518,0.8344556711947806,107.98341129425596
95.0,115.41688619975488,26.938165967194756,0.834083104080068,108.53362784101816
96.0,116.00045366678263,28.455935372478915,0.8337291009446571,109.0651278845367
97.0,116.16069544016729,30.018376906423917,0.8333942631162141,109.57730969546974
98.0,115.90669759923072,31.62604397378595,0.8330791207806542,110.06957948565935
99.0,115.25216399794292,33.27937169423436,0.832784129292986,110.54135325668138
100.0,114.21489059347013,34.97866286302835,0.8325096545491019,110.99206004611162
101.0,112.8157319878206,36.72406808414987,0.8322559629168035,111.42114477105342
102.0,111.07764491134259,38.51558183213147,0.8320232113575226,111.82807092837018
103.0,109.02477231627584,40.353030665140246,0.8318114371706748,112.21232335685416
104.0,106.68158928597326,42.23606343323754,0.8316205479146026,112.5734109525416
105.0,104.07213372356371,44.164142095663735,0.8314503112211036,112.91086939324605
106.0,101.21934636865322,46.13653201007733,0.8313003442641671,113.22426392319966
107.0,98.14458368753665,48.15229571315007,0.8311701061459562,113.51319152134262
108.0,94.86727968213928,50.210288138894626,0.8310588901642383,113.77728303480494
109.0,91.40475027517554,52.30915242384266,0.8309658167508426,114.01620512778634
110.0,87.77212483125525,54.44731714634834,0.8308898272666055,114.22966200773739
111.0,83.98237846264163,56.62299413764461,0.8308296775247069,114.41739716955934
112.0,80.04648389438664,58.83417870181946,0.8307839346247304,114.57919438934168
113.0,75.97360367853801,61.07865129357689,0.8307509725187506,114.71487894075834
114.0,71.77136715469842,63.3539859257045,0.8307289751649627,114.82431712443196
115.0,67.85781591328823,65.24637757344559,0.831283946759652,113.9967221524967
116.0,67.60569260252107,63.451100051769,0.8377965401138661,103.28081195392484
117.0,67.3505020872855,61.67879012632015,0.8455807463160592,89.96992114380483
118.0,67.09257671322383,59.9299201963736,0.8535834830161488,76.42741897297621
119.0,66.83231281977591,58.204954778350135,0.860615405000125,65.1915089333672
120.0,66.57017968603219,56.50434915658673,0.8662893679460898,56.72433963237159
121.0,66.3067295340681,54.82854799241927,0.8707577594928606,50.396122069673915
122.0,66.04260873474676,53.17798392642676,0.874275873558298,45.551466032271875
123.0,49.00327231469806,68.11935840194475,0.8770575622349845,41.73284180515617
124.0,28.96069128403272,85.53475012094214,0.8792606427847018,38.64277787626682
125.0,12.264325805155046,99.15760818818157,0.8809991090432818,36.08675855029041
126.0,0.0,108.45447856690804,0.882356187968206,33.93401017513454
127.0,0.0,113.90210876423744,0.8833938363634378,32.09380181577628
128.0,0.0,116.31199683337913,0.8841591546402642,30.501276357807324
129.0,0.0,116.50349685910248,0.8846886854975343,29.108801547327264
130.0,0.0,115.16903478859838,0.8850113200538628,27.880549263543685
131.0,0.0,112.83933747740298,0.8851502959143293,26.788999240887225
132.0,0.0,109.89533455628442,0.885124598147325,25.812620221580936
133.0,0.0,106.59725674663163,0.8849499610502679,24.934291503054585
134.0,0.0,103.11593541489461,0.8846395971919675,24.140203714242286
135.0,0.0,99.55981965889467,0.8842047373140556,23.419076761242472
136.0,0.0,95.99580766131845,0.8836550373463984,22.76159135692426
137.0,0.0,92.46395303803192,0.8829988874790801,22.159971974162545
138.0,0.0,89.00102238701777,0.8822436542681544,21.607669080971746
139.0,0.0,85.62840053410262,0.8813958646523743,21.099123594010027
140.0,0.0,82.34697627255257,0.8804613580194159,20.62958431074504
141.0,0.0,79.15760746071918,0.8794454045449746,20.194960235522128
142.0,0.0,76.06080191210748,0.8783528012592041,19.791708416780715
143.0,0.0,72.99273283524445,0.8771879525134041,19.41674169917793
144.0,0.0,69.98882329109585,0.8759549251342788,19.067358977868547
145.0,0.0,67.06968808839527,0.8746575092396464,18.741184854196227
146.0,0.0,64.23560009352958,0.8732992629144747,18.43612440266932
147.0,0.0,61.4860518399297,0.871883543851794,18.150323227583225
148.0,0.0,58.82039602530204,0.8704135434959753,17.882128046612358
149.0,0.0,56.23792114146999,0.8688923177762041,17.630063324492916
150.0,0.0,53.73781984779896,0.8673227962060516,17.39281400935501
151.0,0.0,51.319186506368986,0.8657078082946237,17.169196227860613
152.0,0.0,48.98108386786034,0.8640501078009344,16.958142888646897
153.0,0.0,46.72247346385601,0.8623523679669732,16.758698914690775
154.0,0.0,44.54222012676508,0.8606172052310814,16.569993079299625
155.0,0.0,42.43921784912676,0.8588471929573457,16.39124370979563
156.0,0.0,40.412205786071326,0.857044855055451,16.2217373264723
157.0,0.0,38.45989400070995,0.855212684039016,16.060825809597176
158.0,0.0,36.58097391210526,0.8533531455780701,15.907921284516243
159.0,0.0,34.77406322001046,0.8514686795614753,15.762486466903924
160.0,0.0,33.03776822963214,0.8495617075541491,15.62403141169113
161.0,0.0,31.370679522760312,0.847634635278395,15.492108001070998
162.0,0.0,29.77138676438026,0.8456898548003932,15.366306377148636
163.0,0.0,28.23850596902226,0.8437297470485537,15.246251023984836
164.0,0.0,26.770701981464732,0.8417566831310574,15.131597431720166
165.0,0.0,25.366720452553473,0.8397730252424346,15.022029362617193
166.0,0.0,24.02543199071357,0.8377811274952985,14.917256160726875
167.0,0.0,22.745878991547432,0.8357833360296235,14.817010464157589
168.0,0.0,21.52733575970783,0.833781988916641,14.721046160829992
169.0,0.0,20.369377675932302,0.8317794157828979,14.629136479903819
170.0,0.0,19.271953787083568,0.8297779370048792,14.541072292570634
171.0,0.0,18.235471080182627,0.8277798628230648,14.456660595279576
172.0,0.0,17.26088750896943,0.8257874921322212,14.375723217805652
173.0,0.0,16.349793304199313,0.8238031111533518,14.29809547747639
174.0,0.0,15.504498090745605,0.821828991877852,14.223625112082086
175.0,0.0,14.728098963284049,0.8198673903210598,14.152171264587368
176.0,0.0,14.024514217320831,0.817920544655522,14.083603513623203
177.0,0.0,13.398505944799853,0.8159906732996242,14.017801060654694
178.0,0.8013999303388781,12.855647972731367,0.8140799728415838,13.95465195780615
179.0,3.0583527304290676,12.402240933112234,0.8121906158897754,13.894052405305445
180.0,5.338272074899942,12.045163768669854,0.8103247488513475,13.83590611390494
181.0,7.594122601262898,11.791649860446544,0.8084844896531982,13.780123721529744
182.0,9.77301836938676,11.648980762966238,0.8066719254294656,13.726622259013213
183.0,11.817783821405072,11.624091803577398,0.8048891101695509,13.675324663628365
184.0,13.669003546325017,11.723088487875803,0.8031380623578811,13.626159332222251
185.0,15.267634191339436,11.95067897645483,0.8014207626096803,13.579059712266636
186.0,16.558232361830118,12.309533551415104,0.7997391512870405,13.533963929480372
187.0,17.49276314131418,12.799604674496312,0.7980951261729389,13.490814442055708
188.0,18.034695942988765,13.417442504710372,0.7964905401533299,13.449557725965184
189.0,18.162872040582805,14.15556281222876,0.7949271988569259,13.410143991020188
190.0,17.8742829255632,15.001967820321092,0.7934068585257167,13.372526906821893
191.0,17.185198533843163,15.939832468464179,0.7919312236054067,13.336663372488285
192.0,16.130083655531628,16.94751167377388,0.7905019448939447,13.302513276860276
193.0,14.758844320519108,17.998821089528626,0.7891206172470886,13.270039305384666
194.0,13.13273967396535,19.063655881122454,0.7877887776271245,13.23920674783658
195.0,11.319941505478516,20.108890223999875,0.7865079031651682,13.20998332550284
196.0,9.391428986895335,21.099527555015428,0.785279409307312,13.182339032145256
197.0,7.4175800074455935,22.000091931471268,0.7841046480265765,13.15624598893764
198.0,5.465443938927162,22.776289071718587,0.7829849061483525,13.131678310044135
199.0,3.5964527174854717,23.396986618627494,0.7819214037530373,13.108611980178775
200.0,1.864302793342756,23.83649067089441,0.78091529266798,13.087024742470259
201.0,0.3129518203617698,24.07691006415267,0.7799676550744793,13.066895995289725
202.0,0.0,24.110191716939518,0.7790795022007617,13.048206698397623
203.0,0.0,23.939268639433564,0.7782517731304358,13.030939286947657
204.0,0.0,23.57786307023135,0.7774853337135956,13.01507759316187
205.0,0.0,23.0488218030486,0.7767809754336242,13.00060677675135
206.0,0.0,22.381280256706162,0.7761394147202614,12.98751325770598
207.0,0.0,21.60733528496203,0.7755612920685464,12.975784659820265
208.0,0.0,20.75890699011789,0.7750471713619848,12.96540975770845
209.0,0.0,19.865353858262594,0.7745975393210784,12.956378429701495
210.0,0.0,18.952057033197264,0.774212805027338,12.94868161622164
211.0,0.0,18.03991890760758,0.7738932995480806,12.942311282929374
212.0,0.0,17.145554215746788,0.7736392757199708,12.937260387527834
213.0,0.0,16.28189111206616,0.7734509079498774,12.933522853519987
214.0,0.14153219724616084,15.458976117035727,0.7733282920698142,12.931093545810338
215.0,1.509700181648611,14.684802409765789,0.7732714458898694,12.929968248752253
216.0,3.059138874736787,13.96608398115109,0.7732803088285235,12.930143654158126
217.0,4.779566145073333,13.308930210719915,0.7733547423985001,12.931617347494193
218.0,6.654360978564511,12.719385583574603,0.7734945305431803,12.93438780025989
219.0,8.659637050199107,12.203820112158091,0.7736993801716769,12.93845436490617
220.0,10.763725286598124,11.769155410409176,0.7739689216706702,12.943817274614545
221.0,12.927164238524757,11.42291444289951,0.7743027096066003,12.95047764546319
222.0,15.103209278542742,11.173091985476553,0.7747002235276903,12.95843748234122
223.0,17.23888016586363,11.027861751224657,0.7751608687694194,12.967699689249608
224.0,19.27651344451663,10.995145212205651,0.7756839774702363,12.978268081776518
225.0,21.155754794755534,11.082078093398081,0.7762688096332551,12.99014740389792
226.0,22.81604967683222,11.294419797909741,0.7769145542231374,13.003343348692919
227.0,24.19960933618781,11.635942789595395,0.7776203304466375,13.017862581946218
228.0,25.254884493189138,12.107843456030583,0.7783851890819758,13.033712769688371
229.0,25.94035369282521,12.708204659231546,0.7792081138646452,13.050902610176628
230.0,26.228156781403598,13.431548539212459,0.7800880231059573,13.069441867483773
231.0,26.10713354846421,14.268483550255702,0.7810237708797315,13.089341416815808
232.0,25.58412042045527,15.205542142492053,0.7820141492265285,13.110613279057828
233.0,24.683713637262354,16.225138778762116,0.7830578894704391,13.133270677030364
234.0,23.44606980393979,17.30578382959958,0.7841536642777425,13.157328082741017
235.0,21.923486392050442,18.422485065210385,0.7853000893754744,13.182801277644982
236.0,20.176328353267568,19.54736954925848,0.7864957255880973,13.209707412858466
237.0,18.269087123950715,20.650482371849026,0.7877390807870166,13.238065077326723
238.0,16.266999652089293,21.700758546847833,0.7890286119731257,13.267894370103097
239.0,14.233386308844091,22.66717709813581,0.7903627274206932,13.29921697788592
240.0,12.227572154179981,23.52013285434157,0.7917397888396648,13.332056259146645
241.0,10.303155774782642,24.233048828801046,0.7931581136127248,13.366437333376803
242.0,8.506436970336734,24.784170798007615,0.7946159770602436,13.40238717743428
243.0,6.875002231662985,25.15833993830411,0.7961116147525389,13.439934728077978
244.0,5.4366717224889545,25.348412824588486,0.7976432248701427,13.479110990775716
245.0,4.209109704535805,25.355963980236687,0.7992089705957234,13.519949155345241
246.0,3.2003276299487537,25.19102332095366,0.8008069825072507,13.562484720414496
247.0,2.410124603403448,24.87081571049053,0.8024353609814364,13.606755627139139
248.0,1.8322933074317378,24.417735952068753,0.8040921787322,13.652802391937877
249.0,1.4570959371088923,23.856992812951244,0.8057754832207158,13.700668257822668
250.0,1.2736328928919831,23.214335359122234,0.8074832991453544,13.750399348741949
251.0,1.271718741575749,22.514217704434962,0.809213630921656,13.802044834162809
252.0,1.4430810602826472,21.778572233433458,0.8109644651818573,13.85565709981379
253.0,1.781862428675939,21.02618992535674,0.8127337732500651,13.911291930704216
254.0,2.2845305496366186,20.272608092270712,0.81451951363294,13.969008697474509
255.0,2.9493668264765667,19.530337722308015,0.8163196344671952,14.028870565609132
256.0,3.7756939474489952,18.809307699394104,0.8181320760117664,14.09094469233165
257.0,4.762981175877857,18.117378124827944,0.8199547730754326,14.155302445448411
258.0,5.909921135632324,17.460858854340756,0.8217856574391138,14.222019639691439
259.0,7.213583861438032,16.844994386045478,0.8236226602994982,14.2911767677461
260.0,8.668639825946924,16.274373978653312,0.8254637146374127,14.362859230614042
261.0,10.266697809684453,15.753262440259387,0.8273067575701873,14.437157594838439
