Time,J,A,S,tau
0.0,100.0,10.0,0.5376995490678643,18.74568793358949
1.0,97.53108340958705,13.170568443811106,0.537624687823803,18.68132714670075
2.0,93.18345215485601,16.13315953204834,0.5375473848056471,18.614936375490693
3.0,87.77831759177496,18.90091929561905,0.537467769279791,18.546627691019456
4.0,81.84316029372899,21.486453070499568,0.5373858589352948,18.476418835679976
5.0,75.6895732860853,23.901566867205077,0.5373016724346995,18.40432821275435
6.0,69.4957040414585,26.15731701455165,0.5372152294130904,18.33037488325272
7.0,63.36203455303795,28.26405733653514,0.5371265504744336,18.254578561048902
8.0,57.34453166820948,30.231477315072393,0.5370356571918941,18.17695961082619
9.0,51.47385628990229,32.06865415180691,0.5369425720982622,18.097539039510984
10.0,45.76600360824562,33.78408231151868,0.5368473186888251,18.016338496183312
11.0,40.22850140755573,35.38570779236816,0.5367499214131887,17.93338026473197
12.0,34.86389745805929,36.88096184118249,0.5366504056680335,17.848687257287448
13.0,29.671774356156792,38.27681504673622,0.536548797790864,17.76228300839211
14.0,24.64995410700689,39.57976448634175,0.5364451250573461,17.674191671806486
15.0,19.79520316299532,40.795908469349854,0.5363394156684606,17.5844380105335
16.0,15.10367633094971,41.93093007852187,0.5362316987567067,17.493047399667436
17.0,10.57118144259481,42.99015684167859,0.5361220043463011,17.400045799085667
18.0,6.877101419447657,43.30145074485011,0.5360589117816951,17.347332624140634
19.0,4.699504325834681,42.230478696059365,0.5360238191574014,17.318812531316492
20.0,3.401438928502866,40.44636390464046,0.5359892409135527,17.290765077839797
21.0,2.6236717708401387,38.32310855953315,0.5359551877079607,17.263196266376916
22.0,2.1544055886275566,36.07836767323221,0.5359216700088452,17.23611193775163
23.0,1.8760065352892303,33.83213694277001,0.5358886980917691,17.209517772037962
24.0,1.7271633558825723,31.648176960783363,0.5358562820366716,17.18341928969291
25.0,1.6805295824680924,29.558774837684634,0.5358244317250136,17.157821852737637
26.0,1.7303699768417797,27.578754663597085,0.53579315683697,17.1327306659301
27.0,1.8858550793677629,25.713273819267457,0.5357624668487638,17.10815077800803
28.0,2.1673060327783413,23.962158338008386,0.5357323710301702,17.084087083010765
29.0,2.603837408378197,22.322330080821878,0.5357028784420133,17.060544321544715
30.0,3.231507173737269,20.78918042525288,0.5356739979337587,17.037527082073563
31.0,4.091511252834829,19.357355669990525,0.5356457381412655,17.015039802272838
32.0,5.228207077448839,18.02120828445737,0.5356181074846196,16.993086770388675
33.0,6.686924376865437,16.775057892969798,0.5355911141660185,16.9716721265807
34.0,8.51161176877539,15.613340758052473,0.5355647661678137,16.950799864317872
35.0,10.742220312441464,14.530886513697238,0.5355390712505929,16.93047383174578
36.0,13.411412600434407,13.523611487453907,0.535514036951395,16.910697733084742
37.0,16.54288814168427,12.587688424821733,0.5354896705821127,16.891475130091745
38.0,20.148983799458893,11.719956294062875,0.5354659792275319,16.872809443234168
39.0,24.22831971379148,10.918366184909862,0.5354429697443178,16.85470395339665
40.0,28.76375191926542,10.182390950272023,0.5354206487584828,16.83716180258703
41.0,33.72023263185054,9.513413931773794,0.5353990226654667,16.820185996205794
42.0,39.04333644645709,8.91513942671154,0.5353780976283542,16.803779404083976
43.0,44.65859291081145,8.393946866620555,0.5353578795765123,16.787944761710655
44.0,50.471693754843386,7.959117050836872,0.5353383742041887,16.772684671415398
45.0,56.37007839622514,7.622857650754201,0.5353195869702032,16.75800160409016
46.0,62.225458870128854,7.400111372404353,0.5353015230966329,16.74389790026339
47.0,67.89595772991274,7.308080647745271,0.5352841875678673,16.73037577134702
48.0,73.22680323927129,7.365487481309101,0.5352675851301874,16.717437301085955
49.0,78.04912763067914,7.591612160238947,0.5352517202908308,16.70508444665994
50.0,82.17888701408792,8.00515858717058,0.5352365973174631,16.693319039945045
51.0,85.42106383345767,8.623043517618822,0.5352222202376543,16.682142788708862
52.0,87.58478790234649,9.459164386532683,0.5352085928384356,16.671557277779
53.0,88.511036996666,10.523069960360068,0.5351957186659643,16.661563970202902
54.0,88.10599969901936,11.818898744214888,0.5351836010255139,16.652164208499492
55.0,86.36758370114116,13.344501539384098,0.5351722429798175,16.643359215005287
56.0,83.38994066990193,15.090728007647785,0.5351616473513197,16.635150094131628
57.0,79.34628796431085,17.040745351049065,0.5351518167201581,16.62753783242485
58.0,74.45464470497609,19.169635349831044,0.5351427534251374,16.620523300019133
59.0,68.94173543768035,21.44422909244062,0.5351344595634252,16.614107251396117
60.0,63.016177708578894,23.823388634149918,0.5351269369907931,16.608290326352037
61.0,56.85559876070408,26.258850316067967,0.5351201873218335,16.60307305087913
62.0,50.60553540214233,28.696559638738567,0.5351142119302463,16.598455838011255
63.0,44.385192567469204,31.078086569888253,0.5351090119491925,16.59443898863326
64.0,38.295800989412896,33.34140831021735,0.5351045882717159,16.591022692253603
65.0,32.42918107411785,35.42047687550488,0.5351009415512323,16.588207027739724
66.0,26.875131680437082,37.243901501222595,0.5350980722020761,16.585991964012823
67.0,21.72580009876671,38.73465187972597,0.5350959804000464,16.584377360670018
68.0,17.074376185926802,39.813873194119466,0.5350946660833562,16.583362968744332
69.0,13.006207676519795,40.411022900793206,0.5350941289530557,16.582948431123878
70.0,9.583586418951594,40.479326650334585,0.5350943684740287,16.58313328319053
71.0,6.829914912244577,40.0110169640809,0.5350953838757874,16.583916953290892
72.0,4.721016768558441,39.044944893445006,0.5350971741534322,16.585298763219797
73.0,3.1887038003187045,37.66195309080903,0.5350997380686973,16.587277928684315
74.0,2.135841571206413,35.969260974141875,0.5351030741509448,16.589853559663677
75.0,1.4569105035324295,34.080211118241856,0.5351071806982837,16.593024660771814
76.0,1.0566713422835765,32.09675947991748,0.5351120557787403,16.59679013157833
77.0,0.8621051806944106,30.099261372926758,0.5351176972314937,16.60114876689554
78.0,0.8267820167758547,28.14398446909106,0.5351241026681655,16.606099257028774
79.0,0.9296445587783805,26.265973349865007,0.5351312694741753,16.61164018799587
80.0,1.170995834422277,24.484218431389433,0.5351391948100661,16.61777004166375
81.0,1.5677866018084807,22.806868656936864,0.5351478756130501,16.624487195941636
82.0,2.149286329754823,21.235386804206783,0.535157308598487,16.631789924871605
83.0,2.953357027510599,19.767431763479824,0.535167490261415,16.63967639868839
84.0,4.023184009891417,18.398681080731414,0.5351784168782004,16.64814468387808
85.0,5.404259421638375,17.12391407283644,0.5351900845081901,16.657192743180065
86.0,7.141479365624295,15.93763559563372,0.5352024889954204,16.66681843556147
87.0,9.276332456014712,14.834439459770294,0.5352156259703922,16.67701951616515
88.0,11.84421075645449,13.809241126412719,0.5352294908519272,16.68779363624733
89.0,14.871895167845901,12.85746665762781,0.5352440788489577,16.699138343027048
90.0,18.37526468178005,11.975253873925379,0.5352593849628781,16.711051079773036
91.0,22.357217708686598,11.159724994390945,0.5352754039881992,16.72352918494997
92.0,26.80593039611438,10.409320300776187,0.5352921305158213,16.73656989264676
93.0,31.692770055460127,9.724177164141356,0.5353095589353775,16.750170332586286
94.0,36.97110006105781,9.106574197509035,0.5353276834359989,16.764327529116624
95.0,42.57525635340948,8.561279912709656,0.5353464980096194,16.77903840158648
96.0,48.420708163825445,8.095813305341924,0.5353659964527142,16.79429976379534
97.0,54.405203474583054,7.720519949080393,0.5353861723682799,16.81010832355022
98.0,60.411134401897286,7.448418969194134,0.5354070191687137,16.826460682667886
99.0,66.30826808836876,7.294834833440241,0.5354285300777539,16.843353336408207
100.0,71.95528254541817,7.276773993963873,0.5354506981328638,16.86078267312521
101.0,77.1993670605669,7.412094347640365,0.5354735161878739,16.87874497402181
102.0,81.87442068487162,7.718517496243814,0.5354969769152486,16.89723641264598
103.0,85.80105958672063,8.212537284688008,0.5355210728086446,16.91625305452492
104.0,88.79382536088022,8.908309676842668,0.5355457961854525,16.935790856753087
105.0,90.67954646967753,9.816594895237293,0.5355711391893893,16.955845667578224
106.0,91.32531235560643,10.943814467686334,0.5355970937932615,16.976413226066942
107.0,90.66772812578736,12.291240455890742,0.5356236518014733,16.997489161576446
108.0,88.73198593359206,13.854393305832927,0.5356508048516804,17.019068992562534
109.0,85.6280854854812,15.622476325529533,0.5356785444199784,17.04114812785057
110.0,81.53143067079006,17.57802781619202,0.5357068618217568,17.063721864859026
111.0,76.6504940256657,19.69668867604881,0.5357357482149885,17.086785389476557
112.0,71.19584093871171,21.94721173560337,0.5357651946031097,17.110333775637113
113.0,65.35857400834284,24.291825099423573,0.5357951918379078,17.134361984880183
114.0,59.30061537136797,26.68704958540945,0.5358257306224375,17.15886486590912
115.0,53.154461729400886,29.084898719520755,0.5358568015139707,17.18383715415594
116.0,47.028319791285384,31.43412442129857,0.5358883949269815,17.209273471353576
117.0,41.01327305780288,33.68093483962547,0.5359205011361616,17.235168325115623
118.0,35.19063728725423,35.76868874667072,0.5359531102794518,17.261516108511167
119.0,29.638524972554652,37.63669382622872,0.5359862123611376,17.288311099680197
120.0,24.43639190458929,39.21935601885249,0.5360197972549539,17.315547461442
121.0,19.665680182914084,40.44790261603538,0.5360538547072821,17.343219240980215
122.0,15.40484068631315,41.25670240731938,0.5360883743402837,17.371320369457493
123.0,11.718827300685279,41.594265441509975,0.5361233456551014,17.399844661685396
124.0,8.646121633448029,41.43601776863292,0.5361587580351096,17.428785815834402
125.0,6.188545383667016,40.79375714833243,0.5361946007490878,17.458137413056868
126.0,4.3088584111104495,39.71719624950304,0.5362308629546508,17.48789291737522
127.0,2.937688219844464,38.28633824092679,0.5362675337015066,17.51804567539166
128.0,1.9874789249819609,36.59739157210516,0.5363046019347704,17.54858891605253
129.0,1.3685564719080983,34.747262144809525,0.5363420564983501,17.579515750492778
130.0,1.0025382537585008,32.821315573715644,0.5363798861383389,17.610819171894764
131.0,0.8305117754319823,30.886734075661973,0.5364180795064302,17.642492055376728
132.0,0.8158839297767548,28.99124352342667,0.5364566251633595,17.67452715792403
133.0,0.9433716658116723,27.165447263586092,0.5364955115823652,17.706917118350965
134.0,1.2159683672161634,25.426734999055512,0.5365347271526539,17.73965445727372
135.0,1.6512547877051527,23.783265624374845,0.5365742601829451,17.772731577216103
136.0,2.277831907480441,22.237243116099997,0.5366140989049581,17.806140762637426
137.0,3.1320678343196153,20.78729605011494,0.5366542314769801,17.839874180099237
138.0,4.2551373989554575,19.430057288766992,0.5366946459874101,17.873923878412008
139.0,5.69024589519941,18.161154172242682,0.5367353304583584,17.908281788892335
140.0,7.4799789246071,16.975805777888503,0.5367762728492247,17.9429397256022
141.0,9.663772857606023,15.869179904466902,0.5368174610603244,17.977889385702582
142.0,12.275552611965493,14.83661456787509,0.5368588829365067,18.013122349809905
143.0,15.341593979646806,13.873773997610039,0.5369005262708119,18.04863008247365
144.0,18.87868589328967,12.976789980113585,0.5369423788081236,18.08440393267309
145.0,22.892508697474398,12.142421329415784,0.5369844282487906,18.120435134278072
146.0,27.37650792306517,11.368277772420983,0.5370266622522429,18.156714806256158
147.0,32.310754416439615,10.653065507521275,0.5370690684409776,18.19323395445097
148.0,37.661025363736016,9.99691288380813,0.5371116344039644,18.229983471495025
149.0,43.37834437387101,9.401720292662779,0.53715434770036,18.266954137473814
150.0,49.39903573110897,8.87146283489565,0.5371971958633809,18.30413662148571
151.0,55.64533194474206,8.412444337493296,0.5372401664038474,18.341521481752828
152.0,62.02695678223031,8.033382936336832,0.5372832468140237,18.37909916742493
153.0,68.44350875096045,7.745378372541314,0.537326424571253,18.416860018909247
154.0,74.78693774686757,7.561652382047532,0.537369687141728,18.454794269629698
155.0,80.94318428066134,7.497129931849898,0.5374130219841705,18.492892046923973
156.0,86.79188454538185,7.5678377172627105,0.5374564165535692,18.531143373347536
157.0,92.20370459701415,7.7901526760646655,0.5374998583048866,18.56953816812691
158.0,97.03687004876942,8.179954935608679,0.5375433346967627,18.608066248616133
159.0,101.13625424324793,8.751734414470713,0.5375868331952145,18.646717331809374
160.0,104.33924468502718,9.517705457883759,0.5376303412773382,18.685481035886166
161.0,106.49087523930451,10.486988893077417,0.5376738464349764,18.72434688197669
162.0,107.46648811772552,11.664906052686991,0.5377173361783661,18.76330429596668
163.0,107.19574440740601,13.052419991786946,0.5377607980398375,18.80234261029694
164.0,105.6789597392769,14.64572305045383,0.5378042195774768,18.841451065922
165.0,102.98936465352129,16.43593506247866,0.5378475883787358,18.880618814225077
166.0,99.26065485486137,18.4089836276171,0.537890892063921,18.91983491951161
167.0,94.66498890296918,20.5455522450328,0.5379341182899054,18.959088360831842
168.0,89.38828023837749,22.821208677759646,0.5379772547536297,18.998368034506704
169.0,83.60986148654023,25.206693308644443,0.5380202891956642,19.037662756446615
170.0,77.48976145155748,27.668467502516165,0.5380632094037583,19.0769612645644
171.0,71.1637211430062,30.1695751283633,0.5381060032162398,19.116252221481535
172.0,64.74371010119516,32.670722828233785,0.538148658525467,19.155524217186922
173.0,58.3214902478381,35.13134797058245,0.5381911632813455,19.194765771688285
174.0,51.97350964100736,37.51026918798331,0.5382335054946332,19.23396533795367
175.0,45.76614349947017,39.76545727738719,0.5382756732402413,19.273111304909843
176.0,39.76096475713062,41.85274777672267,0.5383176546606285,19.312192000413244
177.0,34.019601605452955,43.723944428757406,0.5383594379690811,19.351195694382138
178.0,28.60708170189207,45.32556036604171,0.5384010114528294,19.39011060212294
179.0,23.59218240406308,46.59986491552027,0.5384423634762998,19.428924887622056
180.0,19.043540538381095,47.48964448477748,0.5384834824842211,19.467626666967735
181.0,15.021645539337795,47.946550406466734,0.538524357004722,19.506204011897477
182.0,11.568717626020081,47.94111622433235,0.5385649756523408,19.544644953424832
183.0,8.699887778051865,47.47109830032532,0.5386053271310388,19.58293748555317
184.0,6.399105545773528,46.56491057716885,0.5386454002371285,19.621069569099333
185.0,4.621513054914562,45.2786800350231,0.5386851838620333,19.659029135623435
186.0,3.301521571967754,43.68787318330785,0.538724666995199,19.69680409141973
187.0,2.3640926706701393,41.87619454302339,0.5387638387268058,19.73438232162875
188.0,1.7359923292204722,39.924986317667795,0.5388026882504597,19.771751694434496
189.0,1.354578705755652,37.90546051458552,0.538841204865809,19.808900065357737
190.0,1.173039718060718,35.87464984581758,0.5388793779810969,19.845815281640487
191.0,1.1622548674192994,33.87467995702469,0.5389171971156475,19.882485186721862
192.0,1.3101643394734233,31.93428531978955,0.5389546519022638,19.918897624802444
193.0,1.6197004239997106,30.07139461170604,0.538991732089673,19.955040445508434
194.0,2.1060483854138203,28.295913293061954,0.5390284275446573,19.990901508622144
195.0,2.7938173813902716,26.612159237918984,0.5390647282543642,20.026468688920264
196.0,3.7142961032645383,25.02077771506215,0.5391006243284082,20.06172988108561
197.0,4.9028810682025545,23.52012410153821,0.5391361060009341,20.096673004704606
198.0,6.396671632368336,22.10720880792674,0.5391711636325986,20.131286009344425
199.0,8.232225316226629,20.77831824516211,0.5392057877124878,20.165556879711982
200.0,10.44348068772795,19.529413915146332,0.5392399688599483,20.1994736408873
201.0,13.059885283786908,18.356389523257278,0.5392736978263459,20.23302436363123
202.0,16.1047579483852,17.25524292770144,0.5393069654967225,20.26619716975413
203.0,19.593900292811174,16.222204564364766,0.5393397628915638,20.298980237640723
204.0,23.53454537608786,15.253851951269226,0.5393720811678845,20.331361807554803
205.0,27.924468886658023,14.347234913246744,0.53940391162116,20.363330187439665
206.0,32.7518623023149,13.500063906020047,0.539435245687264,20.394873758862246
207.0,37.994130252156694,12.710849137445752,0.5394660749420295,20.425980981814657
208.0,43.618312040497784,11.97920261754515,0.5394963911042596,20.456640401420294
209.0,49.580884061106595,11.306097167966426,0.5395261860356398,20.48684065299413
210.0,55.82784326820678,10.694157528519376,0.5395554517424396,20.51657046826355
211.0,62.295357429941255,10.14793146404179,0.5395841803768842,20.545818681532417
212.0,68.91076371790537,9.67404798496177,0.5396123642370572,20.574574234841307
213.0,75.59410673903385,9.281302754770458,0.5396399957691014,20.60282618493252
214.0,82.26014100317019,8.980563957969284,0.5396670675668405,20.630563708300855
215.0,88.82002254087782,8.78454435319357,0.5396935723734515,20.657776107958437
216.0,95.18221762989472,8.707405191043446,0.5397195030814925,20.684452818892343
217.0,101.25172076132752,8.76423262768078,0.5397448527342071,20.710583414722237
218.0,106.92727003695019,8.97038462370431,0.5397696145256087,20.73615761330095
219.0,112.0975660963683,9.340776789810539,0.5397937818011935,20.76116528293886
220.0,116.63830011670696,9.889116810203902,0.5398173480587276,20.78559644879421
221.0,120.41320993156276,10.627163901863055,0.5398403069482369,20.809441298461895
222.0,123.28156624551566,11.564043905105828,0.5398626522726843,20.832690188312654
223.0,125.11243769483255,12.705639712958504,0.5398843779886108,20.855333649863827
224.0,125.80313106050565,14.05414030425849,0.5399054782056211,20.877362394780434
225.0,125.29737919003722,15.607673671335515,0.5399259471878289,20.89876732223156
226.0,123.59711499883666,17.360119758142094,0.5399457793541478,20.919539525008197
227.0,120.76299660318124,19.30105626100486,0.5399649692769173,20.939670293249073
228.0,116.90632706409725,21.415747855513835,0.5399835116837576,20.959151122370816
229.0,112.17310530246901,23.685283216896394,0.540001401457695,20.977973718822476
230.0,106.72560990343288,26.086817000611546,0.5400186336365469,20.99613000472373
231.0,100.72606580351406,28.593864450185414,0.540035203414269,21.01361212515324
232.0,94.32504061566458,31.176800340392315,0.5400511061400297,21.030412452124388
233.0,87.65499702626236,33.803502241597435,0.5400663373196101,21.04652359191249
234.0,80.82855028794562,36.44021974351489,0.5400808926145445,21.061938388851605
235.0,73.93944138821134,39.05250459563746,0.5400947678433982,21.076649932366568
236.0,67.06540680135464,41.60600649207966,0.5401079589811582,21.09065156084047
237.0,60.27169120062255,44.0667385092924,0.5401204621602606,21.103936868068217
238.0,53.61520996106302,46.400475979138946,0.5401322736703691,21.11649970739784
239.0,47.149014577119814,48.57111817113502,0.5401433899590719,21.12833419737823
240.0,40.926795770007246,50.53842908427595,0.5401538076321324,21.1394347263137
241.0,35.00647610280529,52.25609382822514,0.5401635234538598,21.14979595700937
242.0,29.451564923130825,53.671602039784844,0.5401725343477444,21.159412831602385
243.0,24.329017435558022,54.729222668003,0.5401808373967243,21.168280575611806
244.0,19.70324404725801,55.37644047477559,0.5401884298438817,21.17639470254155
245.0,15.627283929725186,55.57284797798676,0.5401953090930712,21.18375101807588
246.0,12.13363900028641,55.29901432552953,0.5402014727094859,21.190345623905657
247.0,9.227701519344079,54.56249127612411,0.5402069184204559,21.1961749217446
248.0,6.88609182091737,53.39882257807266,0.5402116441159834,21.201235616562336
249.0,5.0603546965666135,51.86731108662779,0.54021564784979,21.205524720431754
