Time,J,A,S,tau
0.0,100.0,10.0,0.566144057606398,60.87728282351213
1.0,97.38339091886847,12.390708990028315,0.5644005893726373,60.2052665004358
2.0,94.24798832772379,14.736292583264852,0.5624522513592035,59.51235733169316
3.0,90.69104135329094,17.034632693219294,0.5602944173095241,58.799076441538865
4.0,86.82008757016395,19.284035820174275,0.5579216463084532,58.065684465490975
5.0,82.73128531130163,21.48288511788852,0.5553290849549944,57.3124146887576
6.0,78.50224639653129,23.62963663199779,0.5525124793703785,56.539477481107994
7.0,74.19222988323706,25.72281592838713,0.5494681854313425,55.747064306532494
8.0,69.84510925056465,27.761016109010665,0.5461931826674954,54.93535123407723
9.0,65.49293926955511,29.742896478153867,0.5426850888295218,54.104502028582175
10.0,61.15921211858189,31.66718193034007,0.5389421727944018,53.254670928999076
11.0,56.86140441461797,33.53266302697388,0.5349633683758315,52.38600505205551
12.0,52.61286090878719,35.33819684763421,0.5307482890705177,51.49864651067712
13.0,48.42413890833206,37.08270806466882,0.5262972367899569,50.592734296985185
14.0,44.303894852811844,38.76519105731825,0.5216112185603726,49.66840591326588
15.0,40.259498861670984,40.384711332268026,0.5166919472337065,48.72579882106272
16.0,36.297410200489274,41.940408299264874,0.5115418513736691,47.765051694206576
17.0,32.42342202978685,43.43149777155158,0.5061640778538709,46.78630552718842
18.0,28.642810370224293,44.85727470816637,0.5005624927962256,45.78970461491628
19.0,24.96042119120526,46.217116384538684,0.4947416794781213,44.775397409781206
20.0,21.38071947059483,47.5104852620503,0.48870693019356315,43.74353725572062
21.0,17.90781338140658,48.73693186067395,0.48246423556490375,42.694283034498234
22.0,14.545463369668134,49.8960976684499,0.4760202702549379,41.62779972824102
23.0,11.297082362674045,50.987717944865345,0.46938237472581296,40.54425890825806
24.0,8.165730980789654,52.01162437051019,0.46255853307401235,39.443839159532914
25.0,5.154114730804427,52.96774626319699,0.45555734573217793,38.326726462417575
26.0,2.2645630092399287,53.856116396291625,0.4483880040439569,37.193114490209354
27.0,0.0,54.6768686380522,0.4410602489714965,36.04320486773548
28.0,0.0,55.43024316069078,0.4335843379792264,34.87720737778714
29.0,0.0,56.1165855148057,0.4259710022110835,33.69534018207363
30.0,0.0,56.73634809572175,0.4182314004413539,32.49782990836087
31.0,0.0,57.290085178813456,0.41037707403359075,31.28491199192689
32.0,0.0,56.43720136497827,0.40387834823749025,30.839169485840532
33.0,0.0,55.0757619696399,0.3976762099144672,30.519346544903147
34.0,0.0,53.492001389820366,0.39157439454888127,30.21137637927042
35.0,0.0,51.78474791774702,0.3855783038923372,29.91457432349352
36.0,0.0,50.02476058644578,0.3796926656709559,29.628357468624348
37.0,0.0,48.25742078213329,0.37392162052571676,29.352224356304795
38.0,0.0,46.509913975781764,0.36826879259936335,29.085739229876705
39.0,0.0,44.79771206629138,0.3627373482170934,28.828519635621184
40.0,0.0,43.12917724255674,0.3573300449715198,28.580226726766504
41.0,0.0,41.50851475131804,0.35204927178029594,28.340557578158375
42.0,0.0,39.93755390315541,0.3468970850085238,28.10923911551656
43.0,0.0,38.416786557070466,0.34187523868745034,27.88602318950969
44.0,0.0,36.94595230539541,0.3369852077596315,27.670682893838944
45.0,0.0,35.52437621646326,0.33222822094091947,27.46300872474433
46.0,0.0,34.15115673590374,0.32760527341159806,27.262807445273136
47.0,0.0,32.825251296007195,0.3231171442583847,27.06989842917669
48.0,0.0,31.545547820572835,0.31876441867373473,26.88411283326409
49.0,0.0,30.310903691165542,0.31454750527866865,26.70529216684701
50.0,0.0,29.120148855214104,0.31046664293564613,26.53328702114182
51.0,0.0,27.97211079862312,0.3065219217191728,26.36795618069837
52.0,0.0,26.86561938940983,0.3027132939476056,26.209165842391418
53.0,0.0,25.79950682057466,0.29904058533103,26.05678889544276
54.0,0.0,24.77261580178835,0.2955035073047923,25.910704439101927
55.0,0.0,23.783800837722676,0.29210166784981867,25.77079728183445
56.0,0.0,22.831929466572852,0.2888345819161389,25.636957518341074
57.0,0.0,21.915883352859684,0.285701680758385,25.50908019247555
58.0,0.0,21.034567021199997,0.2827023213569818,25.38706501687205
59.0,0.0,20.186901188717734,0.2798357956568928,25.270816074103635
60.0,0.0,19.371824328581244,0.2771013382923264,25.160241604750237
61.0,0.0,18.58829778581868,0.2744981348840924,25.05525379052166
62.0,0.0,17.835307613080438,0.2720253292756563,24.955768576099235
63.0,0.0,17.111867149039966,0.26968203055394924,24.861705498586968
64.0,0.2284942738884796,16.417020196640298,0.26746731960421877,24.7729875364733
65.0,0.830521444380115,15.749844798506437,0.2653802552303685,24.689540971714674
66.0,1.4746589702681272,15.10945789804446,0.26341987983035986,24.611295264014903
67.0,2.162482533891883,14.495020357968587,0.26158522466784984,24.538182934696174
68.0,2.8950462044554928,13.905742541744015,0.2598753147222906,24.470139449757273
69.0,3.67283510651577,13.340890032711643,0.2582891732220021,24.40710312959301
70.0,4.495713413464167,12.799788320427963,0.256825826162625,24.349015051428808
71.0,5.363070762035325,12.281840327241179,0.2554843032807516,24.295818942901985
72.0,6.2735613905171554,11.786515587645415,0.2542636452076953,24.247461129999365
73.0,7.225253626200256,11.313365083355853,0.2531629042027754,24.20389042933306
74.0,8.215635500371093,10.862023499468574,0.2521811465470171,24.165058049018175
75.0,9.241587341412801,10.432211357557396,0.2513174557625143,24.130917572191912
76.0,10.299463158494857,10.023737206049178,0.2505709334423137,24.1014248475027
77.0,11.385119373204027,9.636495627054966,0.24994070099778534,24.076537929683926
78.0,12.493971195250426,9.270463684680323,0.24942590076264515,24.05621701389906
79.0,13.621060165146293,8.92569503644394,0.24902569677282055,24.040424372386553
80.0,14.761132196112229,8.602311779955963,0.2487392752328272,24.029124293218793
81.0,15.908724760493724,8.300494226390539,0.248565844679586,24.022283021013784
82.0,17.058261107180805,8.020468839716468,0.2485046358548479,24.019868699459426
83.0,18.20414845474911,7.762494736877742,0.24855490129760782,24.021851315528753
84.0,19.34087620659254,7.526849261390748,0.24871591466808282,24.028202645280725
85.0,20.46310984195788,7.31381303393534,0.24898696981241408,24.038896201149768
86.0,21.565775461039404,7.123654940400803,0.2493673795862056,24.05390718068257
87.0,22.644122646288558,6.956617045962843,0.24985647466045616,24.073212416164868
88.0,23.693801775844815,6.812902454452154,0.2504536012130501,24.096790326851483
89.0,24.710861797289667,6.69266054378677,0.25115812000557464,24.124620869407767
90.0,25.691789989273715,6.5959770244552,0.251969403663696,24.156685501591696
91.0,26.633474892886937,6.5228631665071415,0.2528868349742756,24.192967129329276
92.0,27.53317616701827,6.473250512939084,0.25390980424487186,24.233450035510366
93.0,28.388548423694303,6.446984445537536,0.25503770540427,24.278119886783237
94.0,29.197465182590435,6.443811015132975,0.25626993651436397,24.326963711027794
95.0,29.95801792923643,6.463390533140184,0.25760589494360475,24.379969706384735
96.0,30.668587675907236,6.505280655689733,0.2590449715390714,24.437127442396765
97.0,31.327513066351006,6.568942626629557,0.26058655547134174,24.49842760165254
98.0,31.93344214745308,6.65374962558298,0.2622300207684697,24.563862051707783
99.0,32.484952885620146,6.758972421919795,0.26397473298904034,24.633423830813896
100.0,32.980783992003786,6.883799627715287,0.2658200407572321,24.70710703365428
101.0,33.41986380797865,7.027337093993111,0.267765271763638,24.78490684320122
102.0,33.80126951839047,7.18861164089037,0.2698097314908134,24.86681950854943
103.0,34.124317010751426,7.366585647255345,0.2719526999907774,24.952842253048484
104.0,34.38865976409149,7.560163758983627,0.27419342668727426,25.04297329282327
105.0,34.594287064525986,7.768200501328799,0.2765311275059554,25.13721185154743
106.0,34.74157468081746,7.989516371401893,0.27896498305987116,25.235558069981725
107.0,34.83135593579268,8.222909269307248,0.28149413403696594,25.33801301032062
108.0,34.86492117928814,8.46716604004703,0.28411767627221196,25.444578704924474
109.0,34.843995669000265,8.72107687725781,0.2868346601613041,25.555258081732298
110.0,34.770748795806995,8.983447117921239,0.28964408724865437,25.670054960272328
111.0,34.64777009418135,9.25311065199307,0.2925449035607725,25.7889741273863
112.0,34.47799609947057,9.528938284703136,0.29553599933979896,25.912021295546467
113.0,34.264671746433265,9.809845083444003,0.2986162071646877,26.039203096591677
114.0,34.011299994035205,10.094799845738532,0.30178429468312606,26.170527184772833
115.0,33.72156989843198,10.382826009318753,0.30503896307970263,26.306002245942743
116.0,33.39930350765445,10.673000817978837,0.3083788470470258,26.44563799695144
117.0,33.048400819374216,10.96445674311798,0.3118025079535703,26.58944532364106
118.0,32.672798264852965,11.256376474694108,0.31530842973080486,26.7374363649237
119.0,32.27643132100575,11.547984977628246,0.31889502055918545,26.889624529664374
120.0,31.86319377597274,11.838544116622394,0.3225606071700313,27.04602468081834
121.0,31.436925771452753,12.127345442983838,0.3263034274014153,27.20665333469261
122.0,31.00140281964274,12.413701111657772,0.3301216328131093,27.37152871338216
123.0,30.560312837032388,12.696937220250213,0.3340132843808817,27.540670987539027
124.0,30.11725857845268,12.976388574425775,0.33797634156713646,27.71410265609927
125.0,29.675767295002597,13.25139540350488,0.3420086642988539,27.891848666639966
126.0,29.239279407451594,13.521300273866975,0.34610800984533485,28.073936731751
127.0,28.811149674212473,13.785448666736539,0.35027201873107516,28.260397979556984
128.0,28.394669289834773,14.043193489376486,0.354498213526819,28.45126720984704
129.0,27.99305788932079,14.293897093016895,0.3587839966058784,28.64658331184945
130.0,27.609458867961134,14.536937822963475,0.36312663283326746,28.846390275258823
131.0,27.246965930409477,14.771719910291912,0.3675232421243731,29.050737742815706
132.0,26.9086172830542,14.997677670262002,0.3719707973925853,29.259681558311115
133.0,26.597386177583633,15.214284878109689,0.37646610344765635,29.473285226560368
134.0,26.316208467537304,15.4210654139441,0.3810057795760734,29.691621052533005
135.0,26.06798090935496,15.617595631562523,0.3855862563925712,29.91477086348238
136.0,25.855551042809935,15.803511065416284,0.3902037502798064,30.142827987292886
137.0,25.68174250816423,15.97851486156154,0.3948542310001986,30.37589943532228
138.0,25.549360007315723,16.14237489906152,0.3995334154404457,30.61410688592592
139.0,25.46118033150404,16.294924958644202,0.40423673733576343,30.857589204914735
140.0,25.419971345455373,16.436068489193236,0.4089592938532947,31.106506289445328
141.0,25.42850332268823,16.565770916817442,0.4136958331696503,31.361040492333323
142.0,25.48953979922701,16.684055049981136,0.41844072009550726,31.621399659179332
143.0,25.60584505033322,16.790999198295847,0.42318785704775036,31.887823210823676
144.0,25.780198470780125,16.88672748140292,0.4279306603628583,32.16058441403701
145.0,26.01538083723048,16.971401158465625,0.4326620246593581,32.43999381441641
146.0,26.314167925231022,17.045212123500562,0.43737422055572367,32.726407620640444
147.0,26.679339539379654,17.1083733629249,0.4420588525729419,33.02023161781276
148.0,27.113659437983294,17.16110921390783,0.44670683191082183,33.32192438609397
149.0,27.619853112869436,17.203646241831645,0.45130826540059116,33.63200719997832
150.0,28.200602959205565,17.23620469784942,0.4558523947238509,33.951070144506744
151.0,28.858522760788514,17.25899049396607,0.46032759896835596,34.279773665139146
152.0,29.596119887953567,17.272186446535997,0.46472130937874334,34.61885766445795
153.0,30.415769508050126,17.275944785938766,0.4690199576191934,34.96914850606719
154.0,31.31968574972034,17.2703834910086,0.473209041648634,35.33155655347146
155.0,32.309867698987,17.255580341730248,0.47727313072731564,35.70707959359742
156.0,33.38804874485449,17.231568419997412,0.4811958857998927,36.096807180027106
157.0,34.55569140617167,17.198341901517008,0.4849603005491696,36.501902808700336
158.0,35.81384939771394,17.155848300585767,0.4885487608728485,36.92360991690433
159.0,37.163207200145266,17.104003949058793,0.4919434292196823,37.36322178482998
160.0,38.60392381212436,17.042692167089292,0.49512648351223065,37.82207308816295
161.0,40.1356718999484,16.971784427049545,0.4980806106379979,38.30150056976936
162.0,41.75747062312722,16.891145611621926,0.5007894307082336,38.80282028476148
163.0,43.467720404870754,16.800660012721696,0.5032380757409312,39.32727801278245
164.0,45.26404370144681,16.700245033482222,0.5054137944113275,39.87601084118032
165.0,47.14334017452569,16.5898749731801,0.5073063931541136,40.4500021188273
166.0,49.10170558322955,16.46959545994957,0.5089087059140068,41.05004625558571
167.0,51.13432584866659,16.339556437410415,0.5102174992935121,41.676673448573
168.0,53.23563619361414,16.200004838315817,0.5112329979129748,42.330170939845374
169.0,55.39919728454903,16.05131206039995,0.511959709523932,43.01051480146444
170.0,57.617826335133465,15.89396553148881,0.5124059629472804,43.71738858967103
171.0,59.883658922319945,15.728564620013122,0.512583726380557,44.45018769762122
172.0,62.18823929021003,15.555811349019779,0.5125082667534927,45.20803393008404
173.0,64.52264630669843,15.376493143728185,0.5121975985490136,45.989806020775276
174.0,66.87765761390764,15.191457253926796,0.5116717158741934,46.79419216780385
175.0,69.2438900597123,15.00158917565853,0.5109519742639838,47.61973274586746
176.0,71.61196072350542,14.807788592135761,0.51006042686429,48.464866233538956
177.0,73.97265260860114,14.610944525210595,0.5090191341518386,49.32798201346298
178.0,76.31704849787374,14.411916710906574,0.5078496520815656,50.20746269547809
179.0,78.63665636327484,14.211519746649465,0.5065726066332683,51.10171898186983
180.0,80.92354785841638,14.010507473547758,0.5052072809727249,52.00922413867245
181.0,83.17042579699216,13.809567005308718,0.5037714395890052,52.92853409624971
182.0,85.37067715832188,13.609315319689827,0.5022812260742869,53.85830046577165
183.0,87.51844303695518,13.41029503319763,0.500751042993907,54.79728395829493
184.0,89.6086707445426,13.212973347625855,0.4991935168158778,55.744361889732865
185.0,91.63699272834631,13.017755886606693,0.4976198172540566,56.6985100885944
186.0,93.5999170528346,12.82497393158496,0.4960393376808091,57.65882862659059
187.0,95.49457662184426,12.634908358051174,0.49446027669450454,58.62450316692426
188.0,97.31891101168338,12.44777807079263,0.4928893298106195,59.594829911528606
189.0,99.07138433098378,12.263763507444482,0.4913322849037422,60.569173135210065
190.0,100.75127426944576,12.082988920003174,0.48979354187188223,61.547004364584495
191.0,102.35808294965703,11.905562784753618,0.48827714183561904,62.52782268702207
192.0,103.89217932358044,11.731538674600115,0.4867857686276885,63.511237316524294
193.0,105.35420514494535,11.560953984553754,0.4853216760899246,64.49689338039644
194.0,106.74501134062254,11.393832622779637,0.4838868236762988,65.48446040677518
195.0,108.06607779853715,11.230161941045342,0.4824822372642949,66.47368970899505
196.0,109.31900402248306,11.069923094793847,0.48110875671746467,67.46434968723858
197.0,110.50557250883685,10.913085867545142,0.47976696887993425,68.45623202069952
198.0,111.62789676971492,10.759601476287488,0.4784569420179518,69.44917906034053
199.0,112.68813033856343,10.609419094952113,0.4771786759159277,70.44304017085146
200.0,113.6885504200607,10.462479382399472,0.47593197140972404,71.43768578063084
201.0,114.63155091308181,10.318715457457586,0.4747163730343853,72.4330155583843
202.0,115.51953617884713,10.178059661136212,0.47353140023545187,73.42893217498178
203.0,116.35494756911375,10.040439300020791,0.4723764402873788,74.42535558584639
204.0,117.14021861635182,9.90578005464724,0.4712507736909752,75.42222134637836
205.0,117.87778279208491,9.774007036955494,0.4701536691405336,76.41946682546227
206.0,118.57002251439212,9.645043605807363,0.46908432577723547,77.41704251772885
207.0,119.2192618722295,9.518814026405796,0.4680419098621692,78.41490660148699
208.0,119.82781416585824,9.395242065075982,0.4670255813945165,79.41301887940274
209.0,120.39787292126758,9.2742523528751,0.4660344800368953,80.41134847361168
210.0,120.93156956030461,9.15577103894296,0.46506774254726285,81.40986796732153
211.0,121.43100663352547,9.039724026916373,0.46412450541761674,82.40855161319452
212.0,121.89812919328087,8.926039839584408,0.46320391740582884,83.40737985199101
213.0,122.33483555962532,8.814648261714627,0.46230513273349805,84.40633458140451
214.0,122.7429546378989,8.705479884393313,0.4614273166493285,85.40539966357667
215.0,122.86165127752956,8.23279932569678,0.4605696526975027,86.40456170777341
216.0,122.63531545810079,7.35846543383473,0.45973134038994135,87.40380894060183
217.0,122.41421205741744,6.577596253354923,0.45891159744955556,88.40313112796824
218.0,122.19810379022644,5.880120428802178,0.4581096606579052,89.40251935861589
219.0,121.9867630172705,5.257064127203034,0.4573247864775169,90.40196586527024
220.0,121.77997122537148,4.700426313441787,0.456556251386675,91.40146386867576
221.0,121.57751852374277,4.203072612106668,0.4558033519617466,92.40100744259706
222.0,121.37920318764868,3.7586432475854656,0.4550654048270485,93.40059139974352
223.0,121.18483123249865,3.3614674515143905,0.45434174648078585,94.40021119376655
224.0,120.99421598726681,3.0064854708491673,0.4536317329420627,95.39986283314032
225.0,120.80717770284151,2.6891840814490515,0.4529347393369266,96.39954280812726
226.0,120.62354319174807,2.405538309733684,0.4522501594462311,97.39924802838371
227.0,120.44314546935622,2.1519552816615555,0.45157740514911215,98.39897576804358
228.0,120.26582341235178,1.925228381092095,0.4509159058201311,99.39872361842549
229.0,120.0914214457372,1.7224966857102146,0.45026510773177375,100.39848944774339
230.0,119.91978924051395,1.5412060064281037,0.4496244734225279,101.39827136593969
231.0,119.75078141365434,1.3790754868973585,0.44899348101191905,102.39806769376601
232.0,119.58425725185207,1.2340689621114143,0.44837162353909205,103.39787693642171
233.0,119.42008045189503,1.1043686130937602,0.44775840831256386,104.397697760746
234.0,119.25811885806337,0.9883502823263315,0.4471533562130339,105.39752897488634
235.0,119.09824421579974,0.8845632971018682,0.44655600101657866,106.39736951080664
236.0,118.94033194218966,0.7917123095382873,0.44596588874656,107.39721840919601
237.0,118.78426089775037,0.7086396591018665,0.4453825770066826,108.39707480603312
238.0,118.6299131644129,0.6343108376453936,0.44480563431406545,109.39693792077723
239.0,118.47717383861416,0.5678017193947354,0.44423463946606345,110.39680704617031
240.0,118.32593083122599,0.5082864051056946,0.4436691809158471,111.39668153922317
241.0,118.17607466675155,0.4550264993919915,0.44310885613240253,112.39656081310119
242.0,118.02749829463664,0.40736205665177144,0.4425532709910366,113.39644433006283
243.0,117.8800969094851,0.3647033154604279,0.4420020391855251,114.39633159522414
244.0,117.73376776991553,0.32652278892191444,0.44145478162742235,115.39622215086553
245.0,117.58841002455031,0.29234882996629963,0.44091112586316733,116.39611557136888
246.0,117.44392454636981,0.26175987173427073,0.4403707055147259,117.39601145870375
247.0,117.30021376853541,0.23437882191517953,0.4398331597205068,118.39590943827753
248.0,117.1571815222804,0.20986837064296207,0.4392981325792729,119.39580915511702
249.0,117.01473288180402,0.18792690269700624,0.4387652726153663,120.39571027039223
250.0,116.87277401254552,0.1682846616670693,0.4382342322532173,121.3956124581689
251.0,116.7312120191889,0.15070025015052035,0.4377046672885716,122.3955154023131
252.0,116.58995479866614,0.13495772895192795,0.4371762363757932,123.39541879357138
253.0,116.44891089631541,0.12086398076521654,0.43664860052535615,124.3953223267484
254.0,116.30798936221572,0.10824615130819154,0.43612142260118875,125.39522569792592
