Time,J,A,S,tau
0.0,100.0,10.0,0.6383956945833881,12.950420250745376
1.0,94.35934250771557,12.299320286222985,0.6396831271513929,12.533129596988324
2.0,88.29784316001624,14.565472391816426,0.6410837388294766,12.082769651212928
3.0,81.98622145359644,16.797476657058592,0.6426006611782585,11.599017265884376
4.0,75.56630202406629,18.994781162653013,0.6442377868632673,11.081354064617386
5.0,69.14278332099647,21.156925563700955,0.6459991327196947,10.529268516148779
6.0,62.78764469137063,23.28354474938121,0.6478888400476817,9.942256890494491
7.0,56.54804608586931,25.374371871243014,0.6499111759126105,9.319824302259821
8.0,50.453956415748024,27.429240812597346,0.6520705331049205,8.661485660972817
9.0,45.71593808774056,28.256879690563046,0.6534171662667289,8.269283087835726
10.0,42.33117109336948,27.872155889431706,0.6541667526941136,8.070758359804644
11.0,39.467901437952385,27.109894951005526,0.6549040174551395,7.879291957512315
12.0,36.973325917196284,26.1262528923425,0.6556292597563058,7.694619744426214
13.0,34.7460597858284,25.027491936058926,0.6563427370634655,7.516489568144914
14.0,32.726674635813886,23.879672257229558,0.6570446704989437,7.344660523963708
15.0,30.884619842270304,22.7218230068825,0.6577352493887204,7.178902327311274
16.0,29.20526263315077,21.578878873944,0.6584146353492579,7.018994720473772
17.0,27.675403243565384,20.475603705844538,0.6590829657262719,6.864726934344668
18.0,26.297896030269406,19.42121450280438,0.6597403569948045,6.715897150612474
19.0,25.078423245663355,18.422006652508884,0.6603869067466702,6.572312182253482
20.0,24.020393521171385,17.485101823402122,0.6610226967142641,6.433786910830331
21.0,23.12270101671311,16.619073840599675,0.6616477945134487,6.300143969985386
22.0,22.377623833056642,15.83423326247997,0.6622622555878099,6.171213335612395
23.0,21.7694787240322,15.14229924089954,0.6628661247564844,6.046832009795728
24.0,21.274458426674475,14.555550727025013,0.6634594374627653,5.92684373410365
25.0,20.861261506993603,14.086113703994169,0.6640422211189997,5.811098655938711
26.0,20.493632240824798,13.74450864474863,0.6646144961201913,5.699453064229959
27.0,20.13444599273582,13.537782429937305,0.6651762767026509,5.591769134938704
28.0,19.75050371925751,13.46751942795607,0.6657275718771601,5.487914676136655
29.0,19.31705198787518,13.52834320979146,0.6662683861060118,5.38776287835379
30.0,18.82094719561574,13.707306552158185,0.66679871992668,5.2911921266976405
31.0,18.261563507340657,13.984661718934847,0.6673185704996267,5.198085757386942
32.0,17.649517197073305,14.335819101917032,0.6678279322009705,5.108331869213641
33.0,17.00354892300629,14.73428142180534,0.6683267969756832,5.021823134250594
34.0,16.34646136574756,15.15475180660907,0.6688151547394584,4.938456615540426
35.0,15.701094724307401,15.575773579571868,0.6692929937151832,4.858133602150929
36.0,15.087112004586306,15.981414680017119,0.6697603007707981,4.7807594369617386
37.0,14.519007247492764,16.361850582595586,0.6702170616739868,4.706243356156889
38.0,14.00532205839282,16.713004555991663,0.6706632613164115,4.634498359935901
39.0,13.548999748582213,17.03541838254936,0.671098883954836,4.5654410434244985
40.0,13.148376398898796,17.332813142754798,0.6715239132438234,4.498991528039366
41.0,12.798666344118484,17.61055898709246,0.671938332678032,4.435073225545953
42.0,12.493312096415776,17.8744125138185,0.6723421255932989,4.373612791299034
43.0,12.225224927078308,18.12955626269644,0.6727352753029693,4.314539986429496
44.0,11.987681250223385,18.380032495958357,0.6731177652325917,4.257787566608759
45.0,11.774866117548216,18.628522799658707,0.6734895790261997,4.203291176295628
46.0,11.582099270929323,18.87639552059215,0.6738507006401147,4.150989246894505
47.0,11.405819883164314,19.123923016676116,0.6742011144359213,4.100822895853343
48.0,11.243425966723079,19.370574495978758,0.6745408052658238,4.052735839973386
49.0,11.093048938225353,19.615316045787967,0.6748697585250988,4.006674303729984
50.0,10.953326848529258,19.85686437523718,0.67518796022307,3.962586915136278
51.0,10.823223686526411,20.093872771229474,0.6754953970038502,3.9204246690846776
52.0,10.701882025671942,20.325063593330672,0.6757920563121644,3.880140867435418
53.0,10.588548932745608,20.549287920009284,0.6760779263336482,3.841690894118564
54.0,10.482528839217304,20.765541242414525,0.6763529960229524,3.805032345565304
55.0,10.383174925143631,20.97299560047361,0.6766172553215896,3.7701248980756654
56.0,10.2898832703286,21.17095802508873,0.6768706949256503,3.7369300747187073
57.0,10.202096960371131,21.358868687704565,0.6771133065908806,3.705411500808872
58.0,10.119329838702587,21.53631057539614,0.6773450829631201,3.6755346065368264
59.0,10.041135915639442,21.70293761833281,0.6775660177032111,3.6472665802796977
60.0,9.967157345164622,21.85854800518933,0.6777761055640195,3.6205765571704647
61.0,9.897086243716293,22.003022429950992,0.6779753420896446,3.595435109714438
62.0,9.830680566731541,22.136325399882782,0.6781637243921599,3.5718148834376953
63.0,9.767750686876568,22.258534541197218,0.6783412499772659,3.549689650340861
64.0,9.708169055678614,22.369797447239726,0.6785079183304051,3.5290353930763794
65.0,9.651829076977743,22.470331076641394,0.6786637292055032,3.509828881806401
66.0,9.59870257210727,22.5605142860448,0.6788086839686179,3.49204921847901
67.0,9.54875666150049,22.640618479435158,0.6789427860341375,3.4756764988963784
68.0,9.501993375219731,22.71119552605638,0.6790660376583186,3.460691956915808
69.0,9.458459064275573,22.77275778732652,0.6791784448326353,3.4470792968731336
70.0,9.418200246457479,22.825752347898693,0.6792800146290296,3.434822583783943
71.0,9.381251453585303,22.8708871204193,0.6793707532301969,3.423907436120536
72.0,9.347679605289118,22.908802184849126,0.679450670285458,3.4143213551240557
73.0,9.317530390193676,22.940164716755167,0.6795197754630306,3.406052363266883
74.0,9.2908287674666,22.96571254171161,0.6795780801386557,3.399090537271071
75.0,9.267622401255721,22.986107212954717,0.6796255977744122,3.393426650053227
76.0,9.247881099211638,23.002102791874986,0.6796623415215711,3.3890529472964235
77.0,9.231602031588928,23.014368270784537,0.6796883280837673,3.385963068930861
78.0,9.218720311662025,23.02360101651488,0.6797035735425864,3.384151362422126
79.0,9.209126932159329,23.030451250523026,0.6797080967720122,3.3836140802291537
80.0,9.202714833327216,23.035529289992226,0.6797019178981621,3.3843479736982975
81.0,9.19926309555273,23.039413956523134,0.6796850575082086,3.3863514548240645
82.0,9.198561681026112,23.042606626199323,0.6796575395760918,3.3896239519645723
83.0,9.2003122897607,23.045568532053935,0.6796193876162515,3.3941658547820577
84.0,9.204157203202763,23.048664704360856,0.6795706281587742,3.399979064545395
85.0,9.209690133232051,23.052202172021136,0.6795112881016535,3.40706624896442
86.0,9.216421703180707,23.05637241237018,0.679441397104425,3.4154315903280934
87.0,9.223821995669898,23.061301537073135,0.679360985605544,3.425080023482583
88.0,9.231272140303158,23.066989908780545,0.6792700861084177,3.436017898326005
89.0,9.238106622176748,23.07334540811189,0.6791687323574201,3.4482525382449007
90.0,9.243589277366802,23.08016205473096,0.6790569602989132,3.461792425150221
91.0,9.246936982350327,23.087116776520624,0.6789348072102174,3.4766472117773803
92.0,9.24731953471205,23.093785713342193,0.6788023122468052,3.492827543308224
93.0,9.243861330275397,23.09961292215767,0.6786595164491116,3.510345358132519
94.0,9.235680778034155,23.103952558436635,0.6785064623733041,3.529213555192137
95.0,9.22187225100508,23.106041433974564,0.6783431945959478,3.5494462409333565
96.0,9.201553765755941,23.10502227646085,0.6781697594424407,3.5710586600821492
97.0,9.173879805791424,23.099958343275574,0.6779862050216082,3.594067127294104
98.0,9.138030132431508,23.089828210037933,0.6777925814813802,3.6184891236385526
99.0,9.09328664371254,23.07356008535413,0.6775889407974287,3.6443432936999303
100.0,9.039035201573208,23.050048728902503,0.6773753367888408,3.6716493628473086
101.0,8.97474225125845,23.018157408712888,0.6771518253504868,3.700428233834994
102.0,8.900056235320942,22.97676771495061,0.676918464299818,3.7307019882811954
103.0,8.814812965307523,22.9248001714206,0.6766753133252368,3.7624937960883345
104.0,8.71889618449509,22.861196705931846,0.6764224343250409,3.7958280503999218
105.0,8.612546150614222,22.785032798223433,0.6761598910830309,3.8307303076778068
106.0,8.495973831356054,22.695426542510084,0.6758877494020854,3.8672272261867207
107.0,8.369783782122312,22.591696463192676,0.6756060772801048,3.905346779701693
108.0,8.234579117311403,22.47324660897784,0.6753149444994943,3.945117933384113
109.0,8.091224833658945,22.339703902221615,0.6750144232441726,3.9865710746441128
110.0,7.940681168352451,22.190838168389302,0.6747045874424357,4.029737556436917
111.0,7.784018295658432,22.026627613912844,0.6743855132903076,4.074650086874304
112.0,7.6224525904565805,21.847254088739756,0.6740572790614021,4.121342526658626
113.0,7.457197052015635,21.653066370620333,0.6737199649684096,4.169849891251793
114.0,7.289485983256143,21.444611543227907,0.6733736533723196,4.220208511365691
115.0,7.120623586185483,21.22261546905094,0.6730184287291067,4.272455850628663
116.0,6.951821323784393,20.98794248143437,0.6726543773375554,4.326630576420828
117.0,6.784277509082819,20.741612706743325,0.6722815876434094,4.382772657212312
118.0,6.619158054522004,20.484760757480565,0.6719001501042848,4.440923173388135
119.0,6.457500103115502,20.218606151862314,0.6715101568625047,4.501124456961892
120.0,6.300296909446144,19.944452040462625,0.6711117021790374,4.563420097330082
121.0,6.148452775471776,19.663645184156934,0.6707048821542021,4.627854781736378
122.0,6.002756877956282,19.377554784644722,0.6702897943542396,4.694474484318103
123.0,5.8639346951090205,19.08756054852274,0.6698665383764182,4.763326368231971
124.0,5.732615921184821,18.795026902474756,0.6694352153698877,4.834458686417613
125.0,5.609355695620776,18.501287256504657,0.6689959276716596,4.90792098890925
126.0,5.49463872286792,18.20763168707279,0.6685487794647883,4.983763927826932
127.0,5.388883111754503,17.9152972438872,0.6680938760471369,5.062039242131182
128.0,5.292474891398826,17.625455639218117,0.6676313235706434,5.142799939580949
129.0,5.205735179232829,17.33920714780676,0.6671612297031813,5.226100032519411
130.0,5.128966532227742,17.05758286364218,0.6666837025957845,5.311994620853253
131.0,5.062467159754746,16.781534246447986,0.6661988508710059,5.400539993153407
132.0,5.006487468470925,16.511935450224605,0.6657067841278551,5.491793344992793
133.0,4.9613125649488605,16.249591779125083,0.6652076115811546,5.585812958691482
134.0,4.927231157853562,15.9952301248297,0.6647014424725559,5.682658165977686
135.0,4.90451356181083,15.749508756978969,0.6641883861839878,5.782389121081019
136.0,4.893509272526615,15.513027027676147,0.6636685506472044,5.885067039565456
137.0,4.894571309849204,15.286317115622365,0.6631420431604683,5.990754010835987
138.0,4.908069330388833,15.069857843365988,0.6626089700298641,6.099512869359755
139.0,4.934495072768622,14.864084295178953,0.6620694346159278,6.211407482303459
140.0,4.974322846856063,14.669379219983531,0.6615235390554275,6.326502325625521
141.0,5.028105135340058,14.486088648918537,0.6609713825099162,6.44486264545336
142.0,5.096466998273758,14.314525823036139,0.6604130608094145,6.566554393737661
143.0,5.180123495846178,14.154976019266384,0.6598486656093887,6.69164422794298
144.0,5.2798515744439305,14.007698764391385,0.6592782842945005,6.820199368334973
145.0,5.396510210787218,13.87293428875856,0.658701999129148,6.952287583431042
146.0,5.531065563223399,13.750909319402425,0.6581198861992149,7.087977207038308
147.0,5.684561165066238,13.64183732956364,0.6575320150634894,7.227336999059163
148.0,5.858148370579265,13.545924902760756,0.6569384475095744,7.370436169639858
149.0,6.053078710518768,13.463373892807162,0.6563392367788353,7.517344305836816
150.0,6.27070834847117,13.394384409075196,0.6557344265162969,7.668131335430987
151.0,6.512499453280888,13.33915719587352,0.6551240496741007,7.8228674875322755
152.0,6.780020115596298,13.297895747887726,0.6545081273319254,7.981623256176768
153.0,7.0749427834512195,13.270807920550045,0.6538866674297624,8.144469367625655
154.0,7.399041883985935,13.258107221204973,0.65325966338334,8.311476755783607
155.0,7.75419011909856,13.260014000609148,0.6526270925368419,8.482716547220052
156.0,8.142342927027158,13.276755412612898,0.6519889147322564,8.65826002150588
157.0,8.56552997869209,13.308565717196785,0.6513450705993609,8.838178611926315
158.0,9.025840546040694,13.355686007843751,0.6506954797659242,9.02254390587305
159.0,9.525404627805264,13.418363516947739,0.650040038960273,9.211427653149492
160.0,10.066369876438788,13.496850497818903,0.6493786199948742,9.404901784617635
161.0,10.650873955552054,13.591402731041834,0.6487110676262795,9.603038442524463
162.0,11.28101485359849,13.702277855970975,0.6480371971679146,9.805910037877206
163.0,11.95880744131823,13.829732706257845,0.6473567921325186,10.013589289728298
164.0,12.6861393123644,13.974020541336808,0.6466696017865116,10.22614929325828
165.0,13.464722058664867,14.13538799435005,0.6459753386153055,10.443663602433736
166.0,14.29603731878911,14.314071681012923,0.6452736750504151,10.666206358757837
167.0,15.181274883078563,14.510294019713111,0.6445642417234374,10.893852344244198
168.0,16.121303635091614,14.724261513385898,0.6438466233796146,11.126677307736793
169.0,17.11653362765469,14.956156003792348,0.6431203534399247,11.364758033853771
170.0,18.16687872357105,15.206129680461514,0.6423849227812723,11.608171726642212
171.0,19.271736095697793,15.474309492351898,0.641639745847252,11.856998904698191
172.0,20.429944025841678,15.760785718880326,0.6408842011277253,12.111320186615965
173.0,21.639508988798337,16.065597884140786,0.6401175929816456,12.371218459270828
174.0,22.897718816476395,16.38873818578935,0.6393391628690163,12.636778647221075
175.0,24.201127469445566,16.730150209308416,0.6385480844811756,12.908088370560394
176.0,25.545408864160805,17.089714125613497,0.6377434575390648,13.185237927303197
177.0,26.92539433225173,17.467245906233558,0.6369243060818335,13.468320805185247
178.0,28.33506942381089,17.862491581391012,0.6360895756427485,13.757433978650557
179.0,29.76759504821106,18.27512243701021,0.6352381304008686,14.052678278527782
180.0,31.215348503843877,18.704730396755167,0.634368750362079,14.354158799820633
181.0,32.669980140148944,19.15082248600506,0.6334801273747206,14.661985452430365
182.0,34.1225326738112,19.612818318842656,0.6325708666387135,14.976272964091358
183.0,35.56354595000855,20.09004675648365,0.6316394831312737,15.29714158266448
184.0,36.983202563363264,20.581743877527085,0.6306844016550989,15.62471736330368
185.0,38.371488990821426,21.087051359381185,0.629703956995469,15.959132520265028
186.0,39.71837144012051,21.60501608722841,0.6286963949845606,16.300525748107727
187.0,41.01398088567912,22.13459101826085,0.6276598745819131,16.649042500109108
188.0,42.2488021391258,22.67463642909983,0.6265924711024142,17.00483521155543
189.0,43.41385918029149,23.223922836688494,0.625492180724641,17.368063454477554
190.0,44.50088996422834,23.78113575762786,0.6243569264162955,17.73889400840805
191.0,45.502505641249925,24.344880924340746,0.6231845656454411,18.1175007721281
192.0,46.412324513689065,24.913691019032093,0.6219728988358263,18.504064775845254
193.0,47.22509609935123,25.486033319286403,0.6207196803907866,18.898773852480115
194.0,47.93678152364984,26.060319561970907,0.619422632176937,19.301822147321904
195.0,48.544546121617955,26.63491807439672,0.6180794580939724,19.713409243206332
196.0,49.046874524495365,27.20816099177042,0.6166878575096402,20.13374063610867
197.0,49.44349953885642,27.77836218501517,0.6152455501112204,20.563025093253543
198.0,49.735279914326625,28.343826981068503,0.6137502863230697,21.00147463647361
199.0,49.924311871463885,28.902867995576482,0.6121998800517795,21.449303202639015
200.0,50.01365113634496,29.453820402416635,0.6105922244045223,21.906724156862342
201.0,50.007284724360964,29.99505175189135,0.6089253125902014,22.37395045690462
202.0,49.910031256682565,30.524987508624463,0.6071972822190731,22.851190300231828
203.0,49.72730139743513,31.042108990129478,0.6054064066571188,23.33864770967904
204.0,49.46507458162838,31.54498328274675,0.6035511555569387,23.836518171798847
205.0,49.12969253849478,32.032268117067204,0.6016302015824155,24.344987260239776
206.0,48.72774441718967,32.50272125217821,0.599642439638345,24.864228741385997
207.0,48.265950181491576,32.955216139043976,0.5975870214250135,25.394401648105287
208.0,47.751035243942226,33.38875114997425,0.5954633742047108,25.93564748413117
209.0,47.189636467329244,33.80245043604725,0.5932712046846652,26.48808900073046
210.0,46.58821693653583,34.19557168659493,0.5910105192795753,27.0518278941382
211.0,45.95297651966154,34.567515456982356,0.5886816465013304,27.626941563343102
212.0,45.28980733615885,34.91781854084496,0.5862852243981691,28.21348265434047
213.0,44.60425299410418,35.246152695737706,0.5838222011129425,28.81147799894985
214.0,43.90145113676664,35.55232959188622,0.5812938491749774,29.42092591711665
215.0,43.1861251259298,35.83629214827479,0.5787017458591587,30.041796029441667
216.0,42.46258574145105,36.09810471163583,0.5760477526042347,30.674029904594715
217.0,41.7347111425623,36.337950520933816,0.5733340103498189,31.317539990425413
218.0,41.005948210879566,36.55612453467713,0.5705629205663827,31.97220929736768
219.0,40.27934311869836,36.75301901547716,0.5677371099864984,32.63789339073637
220.0,39.557558461962785,36.92911325017943,0.564859405687812,33.31442183848612
221.0,38.842862618231834,37.08497025608562,0.5619328202585242,34.00159690308848
222.0,38.13720034473232,37.22121641534479,0.5589605005466077,34.6991983307267
223.0,37.442186284859254,37.33853597706816,0.5559457110181594,35.40698376064068
224.0,36.75913078679297,37.43766144938217,0.5528917979347334,36.124689545418846
225.0,36.089107766576035,37.51935697278031,0.5498021558745022,36.85203684958861
226.0,35.43291042182828,37.58441757257246,0.5466801994813739,37.588728121360184
227.0,34.79114941635231,37.6336509866762,0.5435293349600027,38.334455656405815
228.0,34.07914109833056,35.883129396767465,0.5403529374508201,39.088899565555266
229.0,33.30490643212313,32.520863110329785,0.5371543218520071,39.85173134028934
230.0,32.56118756380122,29.49549976691274,0.5339367230846416,40.62261628445583
231.0,31.846436192514606,26.772015027922833,0.5307032771324736,41.4012153742684
232.0,31.15915408181676,24.319131173304385,0.5274570052936312,42.18718717939607
233.0,30.49789546771351,22.10894424277369,0.5242008007478981,42.98018961749212
234.0,29.861268751723905,20.116521666833727,0.5209374178372164,43.779881532266444
235.0,29.247937366302093,18.31958484967416,0.5176694646317476,44.585924086980874
236.0,28.65662053984509,16.698236680050403,0.5143993966944601,45.39798199550994
237.0,28.086092951535925,15.234659121722446,0.5111295147025409,46.21572451972791
238.0,27.535184586899526,13.912932233750503,0.5078619624638437,47.038826352985176
239.0,27.00277965929884,12.7187864591193,0.5045987281763363,47.866968264948234
240.0,26.487815620785526,11.639460673377194,0.5013416462596035,48.69983764003655
241.0,25.989281646494753,10.663507793892743,0.49809240116837694,49.53712882163792
242.0,25.506217002192663,9.780679715311681,0.49485253221553765,50.37854333742375
243.0,25.037709290003107,8.9817782248138,0.49162343909875145,51.223789995495494
244.0,24.58289236432856,8.2585566863126,0.4884063888813369,52.07258483923878
245.0,24.140944494584073,7.603612500629673,0.4852025225507291,52.92465104587761
246.0,23.711086093095957,7.010305162894715,0.4820128631621056,53.77971867457839
247.0,23.292577631325756,6.472661097445289,0.47883832360088546,54.63752436149604
248.0,22.884717610383476,5.985322493926091,0.47567971451779734,55.49781095697895
249.0,22.486840214382557,5.543465798593257,0.47253775313665264,56.36032703872415
250.0,22.098313506655334,5.1427592519008805,0.4694130708542957,57.22482645243288
