Time,J,A,S,tau
0.0,100.0,10.0,0.645515580985064,6.974661967371358
1.0,94.72222084236121,10.736515860500521,0.6456436080492072,6.985879339848351
2.0,89.50827953987908,11.419053480933115,0.6457316362382108,6.9935733396353
3.0,84.38614655873388,12.051547052585462,0.6457767996658311,6.997511263459416
4.0,79.38006327314828,12.637482167366267,0.6457787198174959,6.997679003728724
5.0,74.5090940198589,13.18010638976996,0.6457370374535376,6.9940635245967435
6.0,69.78771686800822,13.682440458420833,0.6456514131507699,6.986652871724686
7.0,65.22630234235389,14.147475129977694,0.645517140461663,6.975051258603206
8.0,60.921688016250776,14.494462959721021,0.6452105572011417,6.948435372425066
9.0,56.97048294843902,14.661534786008684,0.6449039059362511,6.921930107022699
10.0,53.365342225334594,14.683953610453797,0.6445973870185674,6.895552231431488
11.0,50.094115841274615,14.591647684281362,0.6442910949485208,6.869309090022585
12.0,47.142704149340744,14.409655805904892,0.6439851241629032,6.843207885718649
13.0,44.49652220367029,14.15873423274969,0.6436795690025854,6.817255679497213
14.0,42.14116095475416,13.855995665181425,0.6433745236803189,6.791459389767512
15.0,40.0554226791046,13.522175526141492,0.6430700822482412,6.765825792241994
16.0,38.20380595538085,13.186601344206299,0.6427663385655836,6.7403615198401745
17.0,36.551930015186635,12.871178496494357,0.6424633862669222,6.715073062558197
18.0,35.067262777254804,12.59115918057726,0.6421613187308461,6.689966767846953
19.0,33.71819513102767,12.357310772723338,0.6418602290473067,6.665048840380398
20.0,32.47372998158652,12.177270072506758,0.6415602099873194,6.6403253432658405
21.0,31.303694427382222,12.05634252965646,0.6412613539702132,6.615802197643929
22.0,30.180090909218418,11.997103670108501,0.6409637530342933,6.591485184378542
23.0,29.080268444794612,11.99774493408314,0.6406674988033133,6.567379943597808
24.0,27.98791550728036,12.05261821174859,0.6403726824593704,6.543491976860902
25.0,26.893259794815368,12.153197796686218,0.640079394709474,6.519826647171574
26.0,25.792942297509807,12.288896838681922,0.6397877257555273,6.496389180098863
27.0,24.689506264528745,12.447787687749328,0.6394977652668467,6.473184665654076
28.0,23.59063973800397,12.61726542147738,0.6392096023482537,6.45021805911297
29.0,22.507980822915297,12.78487937228029,0.6389233255096654,6.427494181869531
30.0,21.455304917102495,12.939409441647708,0.638639022641108,6.405017723908298
31.0,20.446751370530443,13.071765450442012,0.6383567809785957,6.382793244231057
32.0,19.49530157677628,13.175513413309455,0.6380766870791974,6.360825172998149
33.0,18.611687312356995,13.247096228682375,0.6377988267932363,6.339117813384075
34.0,17.803615152158613,13.285802823051304,0.6375232852328758,6.31767534253451
35.0,17.075385681084,13.293500848002143,0.637250146745615,6.296501813554345
36.0,16.42785804201943,13.274179082572022,0.6369794948901311,6.275601157712073
37.0,15.858731532840222,13.233357227179567,0.6367114124057279,6.254977185842472
38.0,15.36301043841352,13.177428843923005,0.6364459811885608,6.234633590521328
39.0,14.933592331000309,13.113053190054945,0.6361832822619211,6.214573947666214
40.0,14.561875150884681,13.046627461463915,0.6359233957532082,6.194801718704705
41.0,14.23839007762407,12.983873534378455,0.6356664008677514,6.175320252517629
42.0,13.95340982965036,12.929529014701103,0.6354123758637117,6.15613278744412
43.0,13.697515011335597,12.887145130018453,0.6351613980273754,6.137242453310137
44.0,13.462089747929337,12.858988167684208,0.6349135436485696,6.118652273452735
45.0,13.239733289999027,12.846038133490437,0.6346688879959955,6.100365166706721
46.0,13.024548729752434,12.848073368938635,0.6344275052950771,6.082383949624512
47.0,12.81230537775414,12.863823512006014,0.6341894687047249,6.064711338546457
48.0,12.600484246478416,12.891178973354336,0.6339548502908458,6.047349951353724
49.0,12.388168798114103,12.927443649879915,0.6337237210110925,6.030302310163731
50.0,12.175832005316662,12.969598099527452,0.6334961506882232,6.013570843018675
51.0,11.96504619353905,13.014566933187494,0.6332722079897721,5.997157886056286
52.0,11.75813679351081,13.059460953853906,0.6330519604070671,5.981065685587802
53.0,11.557820361422285,13.101778409961513,0.632835474234448,5.9652964001497795
54.0,11.366861008599821,13.139552242738722,0.6326228145487695,5.949852102537761
55.0,11.187776328499394,13.171435243863574,0.632414045190412,5.934734781897328
56.0,11.022614850653756,13.196722709379323,0.6322092287489008,5.919946346047661
57.0,10.872790387320114,13.215322848365904,0.6320084265346132,5.905488622852463
58.0,10.739010338726416,13.227679163779348,0.6318116985476987,5.891363361605965
59.0,10.621315420533275,13.234641806075677,0.631619103556109,5.877572240281618
60.0,10.518992178609384,13.237365194362809,0.6314306988397547,5.864116854069293
61.0,10.430897736020599,13.237147077920467,0.6312465404887309,5.8509987350592185
62.0,10.355440552131444,13.235323498070468,0.6310666831831615,5.838219342556249
63.0,10.290764355111001,13.233144243382329,0.6308911802121925,5.825780066978311
64.0,10.23490393436704,13.231687062213652,0.630720083469025,5.813682232377594
65.0,10.185915217516813,13.231800175024674,0.6305534434525248,5.801927098909942
66.0,10.141992292277171,13.234069980460754,0.6303913092523319,5.7905158644176
67.0,10.10157249211478,13.238811114607655,0.6302337285077936,5.779449664910497
68.0,10.063388131595737,13.246077523280249,0.6300807473956216,5.768729576505069
69.0,10.026490358012568,13.255702382300433,0.6299324106483566,5.758356618296121
70.0,9.990248814603248,13.267341972518496,0.6297887615478562,5.748331754154638
71.0,9.954371051690782,13.28052864421635,0.6296498418777561,5.738655892253051
72.0,9.918799898227025,13.294725026479721,0.629515691826341,5.729329885033497
73.0,9.88371035894288,13.309379456852595,0.629386350253154,5.720354538075129
74.0,9.84938571543186,13.32397529609979,0.629261854288628,5.711730601215582
75.0,9.816209707438155,13.338049240870463,0.6291422397810705,5.7034587817913
76.0,9.784568881634911,13.351251124024742,0.6290275407558183,5.695539732010363
77.0,9.75483340939628,13.363311684383868,0.6289177900134603,5.687974066178304
78.0,9.727290089661249,13.374098744541831,0.6288130184420909,5.680762344097286
79.0,9.702164342609061,13.383554504902042,0.6287132558581022,5.673905094920812
80.0,9.679534530806597,13.391742161914229,0.6286185298607831,5.667402787833816
81.0,9.659356078901318,13.398760852188072,0.6285288669436135,5.661255860109272
82.0,9.641562980400314,13.404782954083744,0.6284442919771152,5.655464711843382
83.0,9.625926063856415,13.409995078647809,0.628364827935603,5.650029690890506
84.0,9.612217731961966,13.414598699340686,0.6282904967481788,5.644951124044529
85.0,9.60013366128578,13.418772608776143,0.6282213180096383,5.6402292787340915
86.0,9.589366580334543,13.422684669144672,0.6281573105591365,5.635864407672467
87.0,9.579623888798992,13.426452101892192,0.6280984907705387,5.631856706391455
88.0,9.570615429072701,13.430169434856605,0.6280448741649878,5.628206350964073
89.0,9.56210749824527,13.433878252917726,0.6279964740856636,5.624913472547258
90.0,9.553896750551468,13.437589552213002,0.6279533025805257,5.6219781707778544
91.0,9.545832744943327,13.441282145343248,0.6279153700424466,5.619400515546326
92.0,9.53781290477918,13.44490465543769,0.6278826850417158,5.617180533818472
93.0,9.529779279370304,13.448398103803074,0.6278552552045911,5.615318240206203
94.0,9.521710741730407,13.451684200451242,0.6278330852093819,5.613813583091601
95.0,9.513601072693882,13.454683840297447,0.627816179429408,5.612666504740321
96.0,9.505518713324054,13.457333566854434,0.6278045407408497,5.61187692901934
97.0,9.49747316833358,13.459572987865947,0.6277981685119174,5.6114446983593895
98.0,9.489462024909686,13.461340966347267,0.6277970618175627,5.611369647234048
99.0,9.481590432937436,13.462603629987328,0.6278012197116071,5.611651623521544
100.0,9.473920935338931,13.46335660648483,0.6278106371399743,5.612290393325805
101.0,9.466403487270851,13.463585700635827,0.6278253071590862,5.613285673209287
102.0,9.458988744264525,13.46327689452429,0.6278452228278409,5.614637179866848
103.0,9.451747069805053,13.462453283309832,0.6278703765333515,5.616344631832863
104.0,9.444699028728063,13.461148636378098,0.627900756743902,5.618407667168962
105.0,9.437769131549016,13.459377349786797,0.6279363507937592,5.620825890696517
106.0,9.430923522560839,13.45716365058138,0.6279771460055389,5.623598912731847
107.0,9.42419305225213,13.454547234928203,0.6280231270704922,5.6267262990081965
108.0,9.417502307356042,13.451542893531212,0.6280742761435567,5.630207549070233
109.0,9.41078000946379,13.448166084620475,0.628130575356367,5.63404216274181
110.0,9.404052893216265,13.444446717348471,0.6281920055721294,5.638229626266145
111.0,9.397283935170204,13.440390706773211,0.6282585441705076,5.642769339059312
112.0,9.390410541902698,13.435997597229608,0.6283301680944972,5.647660687039301
113.0,9.383441270181532,13.431279018485155,0.6284068539824773,5.652903059543395
114.0,9.376391839392808,13.426239248088317,0.6284885750541032,5.6584957650739005
115.0,9.369220768786427,13.420868897040194,0.6285753032118659,5.6644380719567815
116.0,9.36192162764669,13.415165191659069,0.6286670104949137,5.670729257125699
117.0,9.354565356938643,13.409139084471567,0.628763666710718,5.677368550833434
118.0,9.3471236107331,13.40278182705267,0.628865238501442,5.684355086919052
119.0,9.339560146568664,13.396083148032192,0.6289716923843933,5.691687994843461
120.0,9.331892936843516,13.38904411556962,0.6290829949758572,5.6993664142314255
121.0,9.324218785975239,13.381685692719978,0.6291991100897725,5.7073894143185955
122.0,9.316506798364538,13.374005345398439,0.629319998528455,5.71575596008225
123.0,9.308719910994991,13.365999320399396,0.6294456210216827,5.724465013572043
124.0,9.300847432501076,13.357669941593683,0.6295759383663625,5.733515542540545
125.0,9.29299757882192,13.349049392758449,0.6297109094553099,5.742906467020305
126.0,9.285156423741485,13.34014537573972,0.6298504895817407,5.752636571194221
127.0,9.27728804739629,13.33096076613467,0.6299946337657368,5.762704627263065
128.0,9.269363712122775,13.321500161181433,0.6301432970625539,5.773109409790778
129.0,9.261464650756803,13.311794785826324,0.6302964335393137,5.7838496699694035
130.0,9.253600731268905,13.301859364546601,0.6304539934431607,5.794924000128035
131.0,9.245742055495484,13.291699167888147,0.6306159263778552,5.8063309620104135
132.0,9.237859056602439,13.281319546499587,0.6307821819498354,5.818069117534641
133.0,9.22999728259258,13.27074360612518,0.6309527093819457,5.83013702246249
134.0,9.222191466564556,13.259990431099236,0.6311274543670504,5.842533068089532
135.0,9.214421844946056,13.24906562654869,0.6313063614137018,5.855255582721005
136.0,9.206668654164766,13.237974797600467,0.6314893750304519,5.8683028946621505
137.0,9.19895365488668,13.226733505256025,0.6316764398519653,5.881673347791573
138.0,9.191333665497742,13.215365124001972,0.6318674976562396,5.895365135383073
139.0,9.18379632823182,13.203875996374157,0.632062487777522,5.909376301327123
140.0,9.176327932566574,13.192272136448967,0.632261349525319,5.923704887866651
141.0,9.168914767979663,13.180559558302791,0.632464022209137,5.938348937244585
142.0,9.161582993317598,13.168754124553534,0.6326704452374067,5.953306512204107
143.0,9.154391785413642,13.156880228712202,0.6328805549601461,5.968575477020747
144.0,9.14733748020427,13.144947016836454,0.6330942852628335,5.984153505273728
145.0,9.140415322473139,13.132963367691476,0.6333115700094342,6.000038268691036
146.0,9.133620557003907,13.120938160042453,0.6335323430639133,6.016227439000653
147.0,9.126949086209603,13.108880493125689,0.6337565382696027,6.03271868646265
148.0,9.120430969803031,13.096810549653718,0.6339840876939958,6.049509545889947
149.0,9.114091677461484,13.084745900106102,0.63421492149357,6.066597389558006
150.0,9.107940778620923,13.072699103886428,0.6344489698443279,6.083979585540285
151.0,9.10198775738228,13.060684314100422,0.6346861617304985,6.101653389553557
152.0,9.096240879438067,13.048715746145538,0.6349264255114916,6.11961599670121
153.0,9.09069309673596,13.036808171737498,0.6351696893997736,6.137864603533123
154.0,9.08535678134658,13.024975979773476,0.6354158791467265,6.156396113423898
155.0,9.08024995090706,13.013233408483405,0.6356649200875625,6.175207377453
156.0,9.075390623054536,13.001594696097216,0.635916737557494,6.19429524669989
157.0,9.070793507769334,12.99007378382053,0.6361712568850351,6.213656574593671
158.0,9.066425500531116,12.978680248521679,0.6364284023572173,6.23328811901249
159.0,9.062295037027871,12.967427236026428,0.6366880961880618,6.253186312573613
160.0,9.058430385465552,12.95632965211864,0.6369502603511659,6.273347535336516
161.0,9.054859814050108,12.94540240258218,0.6372148168201269,6.293768167360674
162.0,9.051608845302797,12.934660043951398,0.637481687562359,6.314444590059963
163.0,9.048623485202329,12.924106965997495,0.6377507936965817,6.335373101533051
164.0,9.045899435711313,12.913753739583186,0.6380220546584139,6.356549646881973
165.0,9.043472924690489,12.903616067981273,0.6382953896871842,6.377970098596585
166.0,9.041380180000594,12.893709654464566,0.6385707180222217,6.399630329166739
167.0,9.039656380619975,12.884050047927904,0.6388479588983005,6.421526210994336
168.0,9.038251808883388,12.874640281238337,0.6391270307717519,6.443653506676264
169.0,9.03714691318087,12.865487762041301,0.6394078509373721,6.466007657475226
170.0,9.036376282691839,12.856607853949129,0.6396903366740643,6.488584046307099
171.0,9.035974506595712,12.848015920574152,0.6399744052607321,6.511378056087765
172.0,9.035921352894755,12.83971880706163,0.6402599736810444,6.534385037911152
173.0,9.036174489283079,12.831719002696769,0.6405469579941951,6.557600047561323
174.0,9.036771361092859,12.824030789970589,0.6408352741619696,6.581018002290553
175.0,9.037750052835435,12.816668548294988,0.6411248381474987,6.604633818986987
176.0,9.039112698643228,12.809641384205982,0.6414155657654921,6.628442403012673
177.0,9.040788044292475,12.802947150091116,0.641707372105993,6.652438409231456
178.0,9.042808088911201,12.796598312767959,0.6420001722295564,6.676616280294881
179.0,9.045212540692335,12.790608452472181,0.6422938812137019,6.700970453326458
180.0,9.048023019217634,12.784988471261434,0.6425884140721012,6.725495363505342
181.0,9.05115414779997,12.779732938170696,0.6428836852743179,6.750185259928873
182.0,9.054622423513278,12.774850688634896,0.6431796093727375,6.775034112352049
183.0,9.058468360607158,12.770354048465222,0.6434761009823019,6.800035869807977
184.0,9.06272711972552,12.766254553865537,0.6437730747000927,6.825184481771468
185.0,9.06731772364536,12.762546189279414,0.6440704447230282,6.850473780534177
186.0,9.07223025698618,12.759232364052934,0.6443681254533088,6.875897275667466
187.0,9.07750522099333,12.756323768653367,0.644666031456668,6.901448426117914
188.0,9.083183051610813,12.753831084013374,0.6449640772986129,6.92712069084892
189.0,9.08920787595825,12.751750629404786,0.6452621772734505,6.952907468402928
190.0,9.095532759107048,12.750078892376127,0.6455602459434703,6.9788018317303955
191.0,9.102197240505314,12.748824717234427,0.6458581982267232,7.0047967549180985
192.0,9.109240859601158,12.747996948286708,0.64615594904126,7.030885212052815
193.0,9.116642810840675,12.74759553433529,0.6464534131521075,7.05706015130719
194.0,9.124320338033144,12.7476103662562,0.6467505055729975,7.083314237879409
195.0,9.132307642950508,12.748047812203758,0.647047141948969,7.109639975726751
196.0,9.140642337293515,12.748914732513303,0.6473432379383014,7.136029867368715
197.0,9.149330348800175,12.750213372429968,0.6476387091187485,7.162476407479463
198.0,9.158272375355587,12.75192993463839,0.6479334712718534,7.188971875924256
199.0,9.167487825513868,12.754066976614599,0.6482274410983655,7.215508334623467
200.0,9.177011504342886,12.756629250563046,0.6485205353697647,7.242077836652719
201.0,9.186866119589387,12.759619767074632,0.6488126708232753,7.2686724341338875
202.0,9.196955527034442,12.76302388897525,0.6491037643223758,7.295284039282775
203.0,9.207276026486287,12.766839220979868,0.6493937339118433,7.321904312244854
204.0,9.217858885141823,12.77106828816252,0.6496824978335312,7.348524888263662
205.0,9.228733466576209,12.775713344395726,0.649969974322746,7.3751374027228405
206.0,9.23982462332867,12.780761372704456,0.6502560816580975,7.4017334156320445
207.0,9.251099372872371,12.786204223202299,0.650540739466432,7.428304235730719
208.0,9.26258486828423,12.792042105272213,0.650823867800967,7.454841122049355
209.0,9.274308262641163,12.798275228297154,0.6511053867149206,7.481335333618439
210.0,9.286222887443866,12.804892933550201,0.651385216193044,7.507778104458175
211.0,9.298259321174843,12.811880265825506,0.6516632776037821,7.534160450615902
212.0,9.310443306505743,12.819235705371295,0.6519394932566499,7.560473292734819
213.0,9.32280098488789,12.826957789952854,0.6522137854633012,7.5867075513285345
214.0,9.335349990580989,12.835043761535834,0.6524860765128327,7.612854146222002
215.0,9.347992620360795,12.843472868818244,0.6527562891737195,7.6389039075133685
216.0,9.360709654701415,12.852235381497925,0.6530243481460429,7.664847495195662
217.0,9.373521334228599,12.861327464797233,0.6532901784467859,7.690675550722899
218.0,9.386447899568102,12.870745283938518,0.6535537050929314,7.7163787155490935
219.0,9.399469724747357,12.88047874188027,0.6538148530368305,7.741947623862216
220.0,9.41249040070726,12.890504832864439,0.65407354866852,7.767372801028318
221.0,9.425520416232954,12.900816457338676,0.6543297201831059,7.7926446928440525
222.0,9.438577531816026,12.911407631638335,0.654583295836058,7.81775374348281
223.0,9.451679507948057,12.922272372098774,0.6548342038828457,7.8426903971179796
224.0,9.464816485578586,12.933400123931188,0.6550823725774241,7.867445091145001
225.0,9.4778911100468,12.944765328697402,0.6553277317888211,7.892008206172043
226.0,9.490901827579473,12.956357619043157,0.6555702134493835,7.916370101448511
227.0,9.503858732436111,12.96816852358254,0.6558097495906787,7.940521136933061
228.0,9.516771918876227,12.980189570929635,0.6560462722442744,7.964451672584351
229.0,9.52963466341278,12.992409278610404,0.6562797133420019,7.988152060942839
230.0,9.54235805692158,13.00480095180881,0.6565100060756207,8.011612646044313
231.0,9.554932985327927,13.01735142044257,0.656737086785523,8.0348238496063
232.0,9.567365927200713,13.03005025328421,0.6569608920902748,8.057776103173039
233.0,9.579663361108834,13.042887019106264,0.6571813586084417,8.08045983828877
234.0,9.591831765621185,13.05585128668126,0.65739842295859,8.102865486497729
235.0,9.60386643805871,13.068930276418737,0.657612021756831,8.124983471893035
236.0,9.615694714712976,13.082096877907295,0.6578220935683367,8.146804279616475
237.0,9.627298855723287,13.095335422386496,0.6580285801935588,8.168318605929036
238.0,9.63867464292469,13.10863307365033,0.6582314236889236,8.18951716980129
239.0,9.649817858152227,13.121976995492787,0.6584305661108576,8.210390690203807
240.0,9.660724283240944,13.135354351707857,0.658625949515787,8.230929886107159
241.0,9.671386755949673,13.148751139973253,0.6588175159693106,8.251125469155125
242.0,9.681774806647057,13.162144537618053,0.6590052096356529,8.27096827996351
243.0,9.691870798470568,13.175517528209136,0.6591889782007136,8.29044951978154
244.0,9.701661577216878,13.188854934559785,0.6593687696501588,8.309560429967851
245.0,9.711133988682676,13.202141579483287,0.6595445319696545,8.328292251881084
246.0,9.720274878664634,13.21536228579293,0.6597162131448666,8.346636226879877
247.0,9.729073860370386,13.228501744155297,0.6598837611756246,8.364583589034417
248.0,9.737540949434289,13.241543058114235,0.6600471262671913,8.382125761399843
249.0,9.745661826991943,13.254469339669269,0.6602062624547091,8.399254687951695
250.0,9.753415400629077,13.267263910987804,0.6603611241269732,8.415962375364966
251.0,9.760780577931412,13.279910094237252,0.6605116656727783,8.432240830314653
