Time,J,A,S,tau
0.0,100.0,10.0,0.711333289544685,196.02904328414544
1.0,99.99359683228734,8.973923087706588,0.7112917028258742,197.02888178724348
2.0,99.98811775501841,8.053577539019956,0.7112534539423659,198.02885219324034
3.0,99.98269283341476,7.227771751818869,0.7112155688670966,199.02882346952254
4.0,99.97731542303245,6.4867621770225234,0.7111780033068013,200.02879549511465
5.0,99.9719790389192,5.821819515965471,0.7111407139072937,201.02876815697658
6.0,99.96667733289749,5.22511360126769,0.71110365812364,202.02874134871124
7.0,99.96140407158865,4.689622825986308,0.7110667940929674,203.02871496937914
8.0,99.95615311569695,4.20905484333386,0.7110300805133748,204.028688922429
9.0,99.95091839933576,3.7777634684773806,0.7109934765219881,205.02866311467497
10.0,99.94569390996489,3.3906852948574135,0.7109569415758111,206.0286374553368
11.0,99.94047366878723,3.043281391855307,0.7109204353347318,207.0286118551246
12.0,99.93525171110433,2.7314778726494398,0.7108839175439085,208.02858622533716
13.0,99.93002206696427,2.4516212648915916,0.7108473479177635,209.0285604769785
14.0,99.92477874160038,2.2004353494081617,0.7108106860228003,210.02853451986164
15.0,99.91951569587408,1.9749790854157285,0.7107738911607377,211.02850826170013
16.0,99.91422682647872,1.7726149621293754,0.7107369222507341,212.02848160716707
17.0,99.90890594543038,1.5909768338188373,0.7106997377081246,213.02845445688865
18.0,99.90354675960006,1.4279405027311627,0.7106622953244172,214.0284267063984
19.0,99.89814284926794,1.2816009903732317,0.710624552142759,215.02839824499142
20.0,99.89268764565087,1.1502486261631835,0.7105864643289558,216.02836895446163
21.0,99.88717440834908,1.0323485868989042,0.7105479870439316,217.02833870775632
22.0,99.88159620089378,0.926524386581961,0.7105090743073527,218.02830736743888
23.0,99.87594586512577,0.8315402595793209,0.7104696788572569,219.02827478397475
24.0,99.87021599508428,0.7462868854986182,0.7104297520100181,220.0282407938603
25.0,99.86439890788978,0.6697693173697852,0.7103892435068387,221.02820521742777
26.0,99.85848661344826,0.6010941124844057,0.7103481013580806,222.02816785639482
27.0,99.85247078282198,0.5394593332678649,0.7103062716850876,223.0281284911282
28.0,99.84634271228816,0.48414566284991567,0.7102636985440322,224.02808687738667
29.0,99.840093286252,0.43450709109849645,0.7102203237505768,225.02804274269644
30.0,99.83371293736069,0.38996387707655467,0.7101760866971103,226.02799578221428
31.0,99.82719160077608,0.34999596921010795,0.7101309241482632,227.02794565377766
32.0,99.82051866719432,0.31413633447493083,0.7100847700408314,228.02789197240816
33.0,99.81368293072141,0.2819659784378829,0.7100375552690995,229.02783430391253
34.0,99.8066725291231,0.2531090443563392,0.7099892074463654,230.02777215723512
35.0,99.79947488222149,0.2272280940597617,0.709939650674105,231.02770497595492
36.0,99.79207662154793,0.2040205632098794,0.7098888052871847,232.0276321282133
37.0,99.78446351029532,0.18321509712331482,0.7098365875761528,233.02755289475024
38.0,99.77662035964282,0.1645682641249313,0.7097829095183509,234.02746645551795
39.0,99.7685309310331,0.14786200558603324,0.7097276784745578,235.02737187360708
40.0,99.76017782606796,0.1329009242952311,0.7096707968670894,236.02726807631703
41.0,99.75154236893395,0.11951001310837016,0.7096121618648863,237.02715383375457
42.0,99.74260446691005,0.10753281946593442,0.7095516650234154,238.02702773288414
43.0,99.73334245459928,0.0968294737522449,0.7094891919143127,239.02688814724004
44.0,99.72373292336583,0.08727513692797809,0.7094246217566558,240.02673320224324
45.0,99.71375051693073,0.07875869627912717,0.7093578269933875,241.02656073287702
46.0,99.70336770451806,0.07118137302828846,0.70928867287009,242.02636823469396
47.0,99.69255452590818,0.06445569467788428,0.7092170170061851,243.02615280691012
48.0,99.68127828433775,0.05850460463741981,0.7091427089050021,244.02591108275087
49.0,99.66950320690653,0.05326052205953279,0.709065589484273,245.02563914943087
50.0,99.65719005274222,0.04866477130668487,0.7089854905846944,246.0253324537322
51.0,99.64429563501356,0.04466698920472306,0.7089022344065772,247.02498568530547
52.0,99.63077231876963,0.041224609012411394,0.7088156330450636,248.02459264878766
53.0,99.61656735700217,0.038302662483411284,0.7087254878492864,249.02414609577815
54.0,99.60162222104644,0.03587346931536872,0.7086315889705006,250.0236375472809
55.0,99.58587170899803,0.03391660105120713,0.7085337147093955,251.0230570593428
56.0,99.56924298448254,0.0324189564312655,0.708431631002905,252.0223929624081
57.0,99.55165430972806,0.03137511102035211,0.7083250907410084,253.02163151797538
58.0,99.53301388789,0.030787605422669097,0.708213833492836,254.02075659015927
59.0,99.51321802783819,0.030667228988706465,0.7080975847249472,255.01974913933913
60.0,99.49214939908936,0.031034075561921896,0.707976055514249,256.0185867214874
61.0,99.46967471939176,0.031918375326455514,0.7078489420664791,257.01724282866246
62.0,99.44564202863313,0.033361985712933084,0.7077159253501513,258.01568610280674
63.0,99.41987765880799,0.03541969489682171,0.7075766709781892,259.0138794492789
64.0,99.39218237426388,0.038161438907462576,0.7074308290513479,260.0117789075013
65.0,99.36232697346473,0.04167453539342529,0.7072780343021896,261.0093323496668
66.0,99.33004700243458,0.0460666168285575,0.7071179064268917,262.006477909107
67.0,99.29503644619606,0.05146921636093261,0.7069500506983082,263.0031420945394
68.0,99.2569402516266,0.05804200466595204,0.7067740589458831,263.9992375427877
69.0,99.21534542048933,0.06597791833036662,0.7065895109706563,264.99466032939677
70.0,99.16977040115712,0.07550934317008846,0.7063959764974069,265.989286751822
71.0,99.1196524880221,0.08691541972125026,0.7061930177840793,266.9829694929806
72.0,99.06433279690543,0.10053088766403911,0.7059801930244719,267.975533030474
73.0,99.00303844763299,0.11675659510584988,0.705757060709736,268.9667681734628
74.0,98.93486134122725,0.1360719649323261,0.7055231851428655,269.95642553534117
75.0,98.85873298006544,0.15904991095761079,0.7052781433358393,270.94420776605983
76.0,98.77339471595818,0.18637437187521752,0.7050215335349131,271.9297603474448
77.0,98.67736254252408,0.21886103741554877,0.704752985675805,272.91266067187996
78.0,98.56888551502333,0.2574816984250019,0.7044721741150456,273.89240511125445
79.0,98.44589679233025,0.3033929952485524,0.7041788330219126,274.868393753468
80.0,98.30595645500613,0.35796968161565007,0.703872774788238,275.8399125298871
81.0,98.1461847363936,0.4228431937263671,0.7035539119270676,276.80611229651527
82.0,97.96318446863268,0.49994592665556664,0.7032222829196303,277.765984477704
83.0,97.75295146084972,0.5915621574737813,0.7028780824911395,278.71833285187364
84.0,97.5107723353101,0.7003851187536732,0.702521696559519,279.66174130589616
85.0,97.23110866752494,0.8295804656545187,0.7021537422428279,280.5945371727394
86.0,96.90746710496559,0.9828555778304626,0.7017751130603073,281.51475002050694
87.0,96.53225554258825,1.1645343879707946,0.7013870292896847,282.4200658853754
88.0,96.09662779533691,1.3796349134825878,0.7009910926478087,283.3077776802116
89.0,95.8186914759583,1.7195510614937164,0.7005893444928628,284.17473236320893
90.0,95.76101907374205,2.194861669908724,0.7001843252531555,285.0172768518582
91.0,95.79082805568947,2.7529427513608202,0.6997791337402567,285.8312035866105
92.0,95.93811718725505,3.4073955163192555,0.6993774806853768,286.61170078486924
93.0,96.23868515284687,4.173557523571636,0.6989837332396722,287.35330987458565
94.0,96.73377153475103,5.068547070978788,0.6986029428066239,288.0498967702546
95.0,97.4687170878972,6.111246421285671,0.6982408503709959,288.69464175191735
96.0,98.49017222213458,7.3221995328484235,0.6979038598786251,289.28005620948625
97.0,99.8413226332947,8.723408999458558,0.6975989730603018,289.7980316916141
98.0,101.55470487048714,10.338011456839002,0.6973336771021529,290.23992894349163
99.0,103.64243855691065,12.189825115469658,0.6971157819135063,290.59670951344145
100.0,106.084307244536,14.302767976089289,0.6969532052506514,290.85911169902306
101.0,108.8150123373389,16.700161535962113,0.6968537101194685,291.0178670041598
102.0,111.71312350255565,19.40394835949123,0.6968246043820638,291.0639487336706
103.0,114.59542823047784,22.433874576269243,0.6968724210520115,290.98883715508606
104.0,117.22053265789027,25.80669118372631,0.6970025988918482,290.78478395928596
105.0,119.3049676845772,29.53543487146657,0.6972191865345032,290.44505619601114
106.0,120.55234969443265,33.628861279226314,0.6975245983512738,289.96413584485845
107.0,120.69166777034619,38.09107594558544,0.6979194397051708,289.33785952202277
108.0,119.51661737227444,42.92139060018668,0.698402413974965,288.5634878023044
109.0,116.91578883995852,48.11440535860286,0.698970312746723,287.6397027336706
110.0,112.88390406331645,53.66032514814949,0.6996180944481253,286.56653046037707
111.0,107.5112806485927,59.54543095021559,0.7003390228762543,285.34521180392267
112.0,100.95442444891452,65.75270703818757,0.7011248709801268,283.9780200857906
113.0,93.3990643005403,72.26250004091311,0.7019661357645554,282.46806741218745
114.0,85.02581916190633,79.05322275931627,0.7028522802037172,280.8190922673169
115.0,75.98753358998785,86.10201206198708,0.7037719606408809,279.0352598384096
116.0,66.40035004282541,93.38532587513235,0.7047132379821429,277.12097857394895
117.0,56.34585127665348,100.87945515282179,0.7056637621010193,275.08074157627465
118.0,45.8791291728994,108.5609382042059,0.7066109259919798,272.9189969356237
119.0,35.03779046991763,116.40688376077435,0.7075419873765968,270.6400463376042
120.0,23.849420873537948,124.3951959418993,0.7084441621031924,268.247972170208
121.0,12.336420556173842,132.50473471920063,0.7093046915717919,265.74658577109403
122.0,0.5187874124458149,140.71539028349392,0.7101108881281332,263.13940080371873
123.0,0.0,149.0081211549468,0.7108501646375525,260.42961834524596
124.0,0.0,157.36494419165624,0.7115100511480439,257.62012729674234
125.0,0.0,165.7688963980905,0.7120782032591931,254.71351345277995
126.0,0.0,174.2039741989384,0.7125424055609489,251.71207513536785
127.0,0.0,182.655061079063,0.712890572653417,248.6178434040909
128.0,0.0,191.10784443158593,0.7131107499472628,245.43260526054848
129.0,0.0,199.5487344625692,0.713191116717328,242.15792695004123
130.0,0.0,207.96477767884372,0.713119991233338,238.79517886895897
131.0,0.0,216.34358291800183,0.7128858415727354,235.34555764505535
132.0,0.0,224.67324103173203,0.7124772982378267,231.81011018626634
133.0,0.0,232.94225839402415,0.7118831746334404,228.18975372451138
134.0,0.0,241.13949553608253,0.7110924887100306,224.4852961326492
135.0,0.0,249.25411406815135,0.7100944949453776,220.6974529778012
136.0,0.0,257.2755228498033,0.7088787173134694,216.82686485894646
137.0,0.0,265.1933423902389,0.7074349910951767,212.87411194626594
138.0,0.0,272.9973648051088,0.7057534985907783,208.8397283631068
139.0,0.0,280.67753295944823,0.7038248176000285,204.72421336643941
140.0,0.0,288.22392095805526,0.7016399825550276,200.5280422784337
141.0,0.0,295.6267102491363,0.6991905313060568,196.2516769381492
142.0,0.0,302.87618458570864,0.6964685603224372,191.8955742210406
143.0,0.0,309.96273295734454,0.6934667673566991,187.46019334237312
144.0,0.0,316.87685201389917,0.6901785516004424,182.9460037267947
145.0,0.0,323.60914010460806,0.6865980432483602,178.35349081554938
146.0,0.0,330.15031605289914,0.6827201457058157,173.68316078779807
147.0,0.0,336.4912455207587,0.67854062485073,168.9355465624593
148.0,0.0,342.6229539094868,0.6740561878915239,164.11121303525888
149.0,0.0,348.5366347414553,0.6692644504817497,159.210757663012
150.0,0.0,354.223719609558,0.6641640683217472,154.23481765451703
151.0,0.0,357.10109962084385,0.6705688522563986,57.51730075540804
152.0,0.0,369.84152345070214,0.6665928164331004,49.0873895725374
153.0,0.0,374.05596589651805,0.6593353361570258,45.739247567974076
154.0,0.0,367.6230126865513,0.6511287638903477,43.56520695131896
155.0,0.0,356.19268442215696,0.6424606811607521,41.925893479864975
156.0,0.0,343.41376206097004,0.6335338450004769,40.59257959556045
157.0,0.0,330.61497758001855,0.624458356045247,39.45759409303319
158.0,0.0,318.12966318411804,0.6153040654143676,38.462043691521025
159.0,0.0,306.0162837522294,0.6061201257851279,37.57043990617378
160.0,0.0,294.2782015836118,0.5969436797519474,36.7599491746026
161.0,0.0,282.91032330716644,0.5878043510228005,36.015070366294275
162.0,0.0,271.9063483006346,0.5787266637856132,35.32485953090905
163.0,0.0,261.2596951724767,0.5697315000511731,34.68132501343451
164.0,0.0,250.9636086344574,0.5608370093470256,34.07845812895491
165.0,0.0,241.01118183273155,0.5520591955923848,33.51162450030948
166.0,0.0,231.3953628069231,0.5434123165201797,32.97716290776291
167.0,0.0,222.10896884881384,0.5349091884863681,32.47211290204423
168.0,0.0,213.14479014756262,0.5265613731158287,31.994057525841235
169.0,0.0,204.49544710379618,0.5183792540356995,31.54097723895618
170.0,0.0,196.15348913782685,0.5103723039971616,31.11113882758971
171.0,0.0,188.11155425584113,0.5025490275982011,30.70308051720253
172.0,0.0,180.36198347359937,0.4949170774863415,30.31550515745924
173.0,0.0,172.8974522393695,0.4874834054900547,29.947288404283196
174.0,0.0,165.71024198469215,0.4802541114420583,29.59742208998424
175.0,0.0,158.79299633072446,0.47323475310292373,29.26500638774888
176.0,0.0,152.1380610720481,0.46643008475257114,28.949232571947398
177.0,0.0,145.73807467341896,0.4598444227675449,28.649360533577337
178.0,0.0,139.5855322720701,0.4534813501579238,28.364724146043706
179.0,0.0,133.6730838154735,0.44734406722623926,28.09470297057902
180.0,0.0,127.99344001359962,0.4414351411284455,27.83873689587454
181.0,0.0,122.53930241769075,0.4357567771233768,27.596299013984428
182.0,0.0,117.30362233095008,0.43031066274307944,27.366910698684386
183.0,0.0,112.27922313416006,0.42509813291236553,27.15012042931129
184.0,0.0,107.45929115633395,0.4201201145627742,26.94551433572085
185.0,0.0,102.83684172057659,0.4153771958556203,26.75270288799859
186.0,0.0,98.4052902751662,0.4108696520353614,26.5713253071017
187.0,0.0,94.15790333223198,0.40659744265136855,26.401043782716258
188.0,0.0,90.08832034206891,0.4025602913116322,26.241542199606474
189.0,0.0,86.19010678437236,0.398757638699103,26.09252637965407
190.0,0.0,82.45712254255893,0.39518874858023645,25.95371859295223
191.0,0.0,78.8832682311328,0.3918526414324193,25.824861776453023
192.0,0.0,75.4626226687677,0.38874820491657947,25.705711781433397
193.0,0.0,72.18944071463676,0.385874125054029,25.596043310642052
194.0,0.0,69.05803792466999,0.3832289884094095,25.49564201645534
195.0,0.0,66.0630123791547,0.3808112190195277,25.404309975526097
196.0,0.0,63.19894918684597,0.3786191673381526,25.321859440923426
197.0,0.0,60.460764649671084,0.376651055200536,25.248116379215453
198.0,0.0,57.843341743642995,0.37490505071362407,25.182916795498777
199.0,0.0,55.341901216068905,0.3733792198125152,25.12610787191946
200.0,0.0,52.95165913925598,0.37207158747845975,25.077546667224862
201.0,0.0,50.66804897575574,0.3709801139333236,25.03709926210239
202.0,0.0,48.48665920980609,0.3701027042994261,25.004641561428507
203.0,0.0,46.40317949635471,0.3694372309037903,24.980057246283693
204.0,0.0,44.41350724469815,0.36898151048993255,24.963238244404607
205.0,0.0,42.513638632641154,0.3687333303902287,24.954084532714056
206.0,0.0,40.69971019712983,0.3686904426801004,24.95250268412073
207.0,0.0,38.968037301457244,0.36885055115492044,24.958406808395033
208.0,0.0,37.31501834206745,0.3692113369781718,24.971717415916352
209.0,0.0,35.73722104121737,0.36977043315041785,24.992360996159086
210.0,0.0,34.23133927086093,0.37052543176788405,25.020270624741475
211.0,0.0,32.79417687728267,0.37147388723879665,25.055384544638418
212.0,0.0,31.42267027037571,0.3726133038078891,25.097646640614585
213.0,0.0,30.11388050694111,0.3739411325426271,25.14700606293256
214.0,0.0,28.864980377015147,0.37545477008110567,25.20341687903827
215.0,0.0,27.67326020440778,0.3771515510702217,25.26683779779898
216.0,0.0,26.536117917517203,0.37902874421428706,25.337232127152323
217.0,0.0,25.451062677117992,0.3810835445844335,25.4145674774872
218.0,0.0,24.41570699651379,0.3833130693112206,25.498815597470273
219.0,0.0,23.427765354550353,0.38571435103155766,25.589952188097733
220.0,0.0,22.485047781770877,0.3882843339151415,25.687956698115354
221.0,0.0,21.58546004634829,0.3910198659952166,25.792812219382146
222.0,0.0,20.727000247320813,0.3939176942722089,25.90450530402232
223.0,0.0,19.907755687476666,0.3969744595464367,26.023025830359305
224.0,0.0,19.125900439639125,0.40018669151073394,26.148366871987346
225.0,0.0,18.37969381237367,0.4035508039394977,26.2805245799933
226.0,0.0,17.66747724247222,0.4070630914900293,26.419498061947365
227.0,0.0,16.987674227340836,0.41071972526643297,26.56528929925282
228.0,0.0,16.33878968807258,0.4145167501276833,26.71790304998033
229.0,0.0,15.719409988279,0.41845008202927614,26.8773467818474
230.0,0.0,15.128204029182774,0.42251550615035716,27.04363061125595
231.0,0.0,14.563924604025287,0.42670867574569804,27.216767259685323
232.0,0.0,14.02541074620753,0.4310251114807503,27.396772028808886
233.0,0.0,13.511590778940551,0.43546020136289937,27.583662795295552
234.0,0.0,13.021486005889784,0.44000920125082915,27.77746002771599
235.0,0.0,12.554214817230832,0.4446672358358921,27.978186829666555
236.0,0.0,12.108997884127705,0.44942930012676946,28.185869013190107
237.0,1.951528263548838,11.685161127232446,0.4542902617814571,28.4005351896203
238.0,5.893729809984115,11.28214095899825,0.45924486251482916,28.622216927201602
239.0,10.03514824465603,10.899490454145129,0.46428772239639576,28.850948912643084
240.0,14.370979186628317,10.536879885672805,0.46941334135063706,29.086769189722755
241.0,18.89416274944527,10.194100112739834,0.47461610236473584,29.329719438962755
242.0,23.595484153207337,9.871063760014835,0.4798902742361975,29.579845321501494
243.0,28.46373363760101,9.567804788442222,0.48523001406823707,29.83719689344024
244.0,33.485926257923815,9.284476456419748,0.49062936933946677,30.101829100552944
245.0,38.647579677696285,9.021347215882791,0.4960822793572392,30.373802364546773
246.0,43.93304393311718,8.778794678075677,0.5015825758870847,30.653183273473203
247.0,49.32587387268924,8.557297370477482,0.5071239827366555,30.940045390631404
248.0,54.80923075433612,8.357424192577843,0.5127001140445384,31.234470197147616
249.0,60.36629644443058,8.179821778777658,0.5183044710348675,31.536548185704202
250.0,65.98068153694527,8.025199577887392,0.523930436971739,31.84638012463608
251.0,71.63680739284744,7.894312831462753,0.5295712700403591,32.16407851236749
252.0,77.32023873828985,7.787943011917875,0.5352200939592997,32.48976919688381
253.0,83.01796908303042,7.706878383002144,0.5408698859843231,32.823593361600956
254.0,88.71862173680792,7.6518899723767,0.5465134613113433,33.16570969924207
255.0,94.41256959313974,7.623706261334271,0.5521434546686058,33.51629687115965
256.0,100.09193786708816,7.62298930387241,0.5577523048050942,33.87555555271327
257.0,105.75063037883585,7.65031133962107,0.5633322244339822,34.243712580632575
258.0,111.3842333997939,7.70610988396157,0.5688751626932851,34.621024724546444
259.0,116.98972149644415,7.790682622070573,0.5743728137732313,35.00777804676628
260.0,122.56548912466602,7.904135009855379,0.5798165216395839,35.404300227525106
261.0,128.1109586591426,8.046357195792279,0.585197314196978,35.81095439219699
262.0,133.6264495042256,8.21699921580872,0.5905058076479368,36.22815404727592
263.0,139.1129993643691,8.415424398865047,0.5957322293605269,36.65635720237913
264.0,144.57216951273773,8.640694889823743,0.6008663659181142,37.09607549697925
265.0,150.0059037847272,8.891512962321023,0.6058975164477168,37.54788089905858
266.0,155.41640832638228,9.166227279784493,0.6108145379171223,38.0124013296444
267.0,160.80605272609841,9.462786363990324,0.6156058186492133,38.490327071359346
268.0,166.1772786308866,9.778729904144402,0.620259323298645,38.98240891403545
269.0,171.53251504678448,10.111175517974422,0.6247626528638902,39.489456064004784
