Time,J,A,S,tau
0.0,100.0,10.0,0.9256619260159312,9.530282669439194
1.0,96.64389049319294,13.444940781488002,0.9230060020184874,9.119654188968006
2.0,92.48414680021513,16.904977610617845,0.9198921576590708,8.670660950388095
3.0,87.76054654412859,20.372215265356303,0.9162815524473569,8.184288887150798
4.0,82.68352561923447,23.838745147425566,0.9121337164761628,7.6614504685278435
5.0,77.39820406041893,27.296331465368354,0.9074080228877934,7.103113842300131
6.0,71.99454701252363,30.736449521872984,0.9020640614326862,6.510293742314951
7.0,68.05726723068976,32.62353444147791,0.8980735895182381,6.2070154119955365
8.0,65.53218042664714,33.04454583433857,0.894755383466622,6.058365486091839
9.0,63.55756198043479,32.87096888008564,0.8912590263761999,5.92174279065501
10.0,61.8588107401868,32.38223256494451,0.8875815734947227,5.796024003919361
11.0,60.27146378799518,31.746049801715486,0.8837202836503824,5.680207017023941
12.0,58.71292479100352,31.047850584359928,0.8796726558766566,5.573395578117031
13.0,57.14070501024094,30.333056133006455,0.8754364637202484,5.4747860025502115
14.0,55.54096489275669,29.61877329563495,0.8710097926385024,5.383656318484584
15.0,53.913135092896255,28.90931773785338,0.8663910786440594,5.299356537771268
16.0,52.25930759137278,28.20690572542721,0.8615791451310789,5.22130090648464
17.0,50.582894062178696,27.513032393863316,0.8565732184912386,5.148959033867804
18.0,48.8882131673524,26.828966095381073,0.8513729970245681,5.081851770100553
19.0,47.18033828117961,26.155960386429822,0.845978654089796,5.019545449068129
20.0,45.464952986913794,25.495399859787376,0.8403908616331198,4.961645488523521
21.0,43.748310615004776,24.84888511963251,0.8346108366788545,4.907793360958982
22.0,42.03719853945676,24.2183048249063,0.8286403832101255,4.857664036371408
23.0,40.338790118725285,23.60587210330131,0.8224818811968267,4.810960985068893
24.0,38.66051962036428,23.01417095988869,0.8161383176932739,4.767413542997315
25.0,37.00986647357088,22.44620885931889,0.8096133154927859,4.726775217463088
26.0,35.39408719245381,21.905435504720383,0.802911145533253,4.688820962230935
27.0,33.81988551280693,21.39573265563706,0.796036732496157,4.653345092172402
28.0,32.29307098741701,20.921367390518373,0.7889956620117352,4.620159476472417
29.0,30.81823017795266,20.48689565869766,0.7817941830888702,4.589091928412649
30.0,29.398458371577394,20.097008874726765,0.7744392064243236,4.5599847568363705
31.0,28.03521592232829,19.756316752573007,0.7669383017930005,4.532693505230785
32.0,26.728318309017624,19.4690661642627,0.7592996859940514,4.507085762840727
33.0,25.476147489251698,19.23883061532235,0.7515322038115215,4.483040029123823
34.0,24.27603417371858,19.06820113092346,0.7436453066459089,4.460444741306059
35.0,23.124730728958884,18.958497006644315,0.7356490300589362,4.439197461615496
36.0,22.01916835888285,18.909596884492924,0.727553963226432,4.419203990894823
37.0,20.956822384072723,18.91976409434368,0.7193712320487745,4.40037798014383
38.0,19.93600000862837,18.985824022508723,0.7111124241950264,4.382639747704717
39.0,18.956176488052193,19.10327656463851,0.702789577210484,4.365916084981273
40.0,18.017952770101683,19.26663268868866,0.6944151243025044,4.350139587146647
41.0,17.1228438449826,19.46978474826513,0.6860018477175495,4.335248187660513
42.0,16.272939090540703,19.706403355579933,0.6775628285538392,4.321184725214622
43.0,15.47050244385469,19.970291974999828,0.6691113921575402,4.307896519938507
44.0,14.717626845228608,20.25566534193755,0.6606610541000003,4.295335002896244
45.0,14.015946383061268,20.557331974408356,0.6522254650831901,4.2834553814261405
46.0,13.3664410949933,20.870784045812897,0.6438183553496446,4.272216333257825
47.0,12.76933889033389,21.19220733943534,0.6354534791354571,4.2615797268647775
48.0,12.224110918758234,21.518432470693263,0.6271445597309552,4.25151036980203
49.0,11.729497281195526,21.846847311694198,0.6189052344483591,4.2419757643762175
50.0,11.283658674780638,22.175302064136137,0.6107490010569109,4.2329459369513405
51.0,10.884227141977703,22.5019992159418,0.6026891685489226,4.224393165643018
52.0,10.528505865385636,22.825413485284805,0.5947388151728793,4.216291831299702
53.0,10.213481755106361,23.144225325866646,0.5869107334137214,4.208618279873985
54.0,9.936018526692093,23.457264367015892,0.5792173950210652,4.201350651371472
55.0,9.692909118503612,23.763475284290486,0.5716709116509313,4.194468742698624
56.0,9.480954607542229,24.061895991930673,0.5642830015473196,4.187953880915354
57.0,9.297023444956007,24.35164642568301,0.5570649599909605,4.181788807679968
58.0,9.138098116649488,24.631924433390765,0.5500276339375081,4.1759575732712
59.0,9.001310897895957,24.902006457103443,0.5431814009075284,4.170445439412315
60.0,8.883970447597118,25.161250832760263,0.5365361521276674,4.1652387901698225
61.0,8.783580835822004,25.409102229776966,0.5301012798417102,4.160325050326801
62.0,8.697855887865183,25.64509600960006,0.523885668024273,4.15569261172469
63.0,8.624720176020626,25.86886310681271,0.5178976876894376,4.151330763820802
64.0,8.562312235962453,26.080132992025682,0.5121451967718444,4.147229629757127
65.0,8.508982447536976,26.27873565370662,0.5066355427610139,4.1433801089876425
66.0,8.463284875803113,26.46460270564856,0.5013755693335405,4.139773823611027
67.0,8.42396885212989,26.637767958256088,0.49637162120528894,4.1364030750407705
68.0,8.389964056834438,26.79836419084921,0.49162956527202323,4.133260788139918
69.0,8.360384946211385,26.946617111042567,0.4871547904625384,4.130340486779437
70.0,8.334490072200529,27.08285195372979,0.4829522186076935,4.1276362611388375
71.0,8.311651194345833,27.20748577227595,0.4790263569515462,4.1251426967615865
72.0,8.291413380998737,27.321002040669406,0.4753812713159636,4.122854886633982
73.0,8.27336619518963,27.423989655981167,0.4720206116738221,4.120768408428768
74.0,8.257234755267167,27.51707323731271,0.4689476928188575,4.1188792146962925
75.0,8.242747582714705,27.600987473449486,0.46616538581167993,4.117183775218742
76.0,8.229874566471752,27.67644045356966,0.4636762359014833,4.115678886764517
77.0,8.21832962236067,27.744285717136815,0.4614825235194215,4.114361719420599
78.0,8.208162757144345,27.805328495214038,0.4595860649638983,4.11322989764217
79.0,8.199169338842447,27.860466277401176,0.45798856552034756,4.112281249935196
80.0,8.191317582452374,27.91058221292663,0.45669124116403637,4.11151412826876
81.0,8.184539602710815,27.95656886556689,0.4556951905910495,4.110927036491245
82.0,8.17861623305706,27.99935298096455,0.4550011482384676,4.110518952097456
83.0,8.173544497180892,28.03979679063034,0.4546096019039224,4.110289077491658
84.0,8.168965934379171,28.078813153395743,0.4545208459173543,4.110236954565648
85.0,8.16478895421365,28.117212086066342,0.4547347928235666,4.1103624824956535
86.0,8.160606818750226,28.155837583957872,0.45525127316898556,4.110665762592623
87.0,8.156099151759271,28.195420658786837,0.4560696768207029,4.111147362652547
88.0,8.150878398706038,28.236669917197332,0.4571892787456211,4.111808006761813
89.0,8.144365864680053,28.280213428258016,0.45860901105432017,4.112648857700646
90.0,8.135990615437203,28.326610974863186,0.4603275973510772,4.11367131010596
91.0,8.125070935104175,28.376299639682312,0.4623433954746904,4.114877179126423
92.0,8.110867041970131,28.429639363435022,0.4646545427579695,4.116268540970384
93.0,8.092538005067468,28.48685782173325,0.46725882759888565,4.117847867773919
94.0,8.069173067891006,28.548056501362726,0.470153722486837,4.119617990551771
95.0,8.039810026200033,28.613202067282348,0.4733363747468847,4.121582099265637
96.0,8.003409729222449,28.682097155182607,0.4768035512772083,4.123743801848951
97.0,7.958909719319164,28.754386073785152,0.48055165167003044,4.126107119055591
98.0,7.905225299001317,28.829545781294883,0.4845766962890814,4.128676488464316
99.0,7.84127344030017,28.90686816910898,0.48887428356428114,4.131456821641744
100.0,7.766009048890811,28.985460021592022,0.49343958355164985,4.134453517245981
101.0,7.678461215288253,29.06424360129316,0.49826732628071113,4.137672483840876
102.0,7.577764284700202,29.141958347777315,0.503351787037047,4.141120169979367
103.0,7.4631759727020315,29.217162580738044,0.5086867652313574,4.144803608620396
104.0,7.334153153106748,29.2882490070472,0.5142655725417772,4.148730456132997
105.0,7.190381956680215,29.353464052678326,0.5200810250546198,4.152909032825479
106.0,7.031821689823746,29.41093764972131,0.5261254599708383,4.157348328859712
107.0,6.858595387196117,29.45869113766644,0.5323906792432319,4.162058145017375
108.0,6.671294886469466,29.494711620981622,0.5388679948399858,4.167049061434414
109.0,6.470644465239291,29.516959237294717,0.5455482351101938,4.172332501681013
110.0,6.257805420360154,29.523443468882046,0.5524217063809658,4.177920863836639
111.0,6.034193536600293,29.512259867973555,0.559478249600251,4.183827510691932
112.0,5.801471137186031,29.48164565205291,0.5667072324597126,4.190066889173074
113.0,5.561490961309798,29.43002857595946,0.5740975765360555,4.196654595572853
114.0,5.316280544478487,29.35607956542813,0.581637775498793,4.2036074703634005
115.0,5.06794821261949,29.258750729647627,0.5893159266063183,4.21094368840207
116.0,4.818629053584468,29.137309548210016,0.5971197612857493,4.21868286236566
117.0,4.570420610948506,28.9913619034306,0.6050366807305195,4.22684615360621
118.0,4.325323023851402,28.820863692807173,0.6130537952008689,4.235456392032905
119.0,4.0851871214172215,28.626120330731418,0.6211579667562608,4.244538205744666
120.0,3.8516730056551283,28.407774611385946,0.629335855068094,4.254118160879346
121.0,3.6262202530182086,28.166783823319506,0.637573965975995,4.264224912737238
122.0,3.4100305475451886,27.904387790730535,0.6458587023341872,4.27488936885731
123.0,3.204062172879269,27.622069938012103,0.6541764166926441,4.286144864894339
124.0,3.00903641370153,27.321513613248204,0.6625134646478057,4.298027346702004
125.0,2.825448060582698,27.00455673637748,0.6708562604442909,4.31057558449239
126.0,2.653587075930474,26.673146002434756,0.679191333091101,4.323831408225632
127.0,2.493566565380065,26.329292122832562,0.6875053791359567,4.337839925283142
128.0,2.3453437763299023,25.975030494757473,0.6957853151521018,4.352649678322117
129.0,2.208753647155387,25.61238414024475,0.7040183495412593,4.36831326576797
130.0,2.0835372064541127,25.243336572549474,0.7121919957437663,4.38488711355276
131.0,1.9693621051237344,24.869805236485373,0.7202941475354869,4.402432131510264
132.0,1.8658495120900844,24.493620732677883,0.7283131278481243,4.421014048328538
133.0,1.7725930748803602,24.116514315316078,0.7362377222489139,4.440703692802864
134.0,1.6891774166820526,23.74010994556947,0.744057214869011,4.4615773309153814
135.0,1.615194383870189,23.365919220353298,0.7517614246498471,4.483717072401247
136.0,1.5502587713404161,22.995337659248218,0.7593407516728705,4.507211459382896
137.0,1.4940149031168581,22.629647807595788,0.7667861938397315,4.532155845866809
138.0,1.4461475235803616,22.270024933495662,0.774089363429588,4.558652799302845
139.0,1.4063904956227775,21.91754278761967,0.7812425059377569,4.5868125985943395
140.0,1.3745378360018898,21.573179699168353,0.7882385300364761,4.6167539586594515
141.0,1.3504425085764324,21.23782773768591,0.7950710031772775,4.648604488545128
142.0,1.334025527928939,20.91230168258675,0.8017341678847845,4.6825014769025834
143.0,1.3252938992272323,20.597354629163284,0.8082229165919392,4.718591868587299
144.0,1.3243254583641473,20.293678760787145,0.8145328265123775,4.757033858318867
145.0,1.3312869347061234,20.001921914294037,0.8206601232656617,4.79799694233497
146.0,1.3464416193238937,19.72269716251483,0.826601672608206,4.841662530506356
147.0,1.3701505566367576,19.45659040545054,0.8323549785277605,4.888225055530452
148.0,1.4028863176204698,19.20417192599784,0.8379181599218881,4.937892443577019
149.0,1.4452407793617785,18.96600522126437,0.8432899327336898,4.990886878430565
150.0,1.4979289811744811,18.742654706308215,0.8484695819618212,5.047445493117194
151.0,1.561803815967145,18.534694396188826,0.8534569430371518,5.10782109623883
152.0,1.6378637817755548,18.342714570471554,0.8582523733723131,5.172282831726976
153.0,1.7272636662425287,18.167327835093314,0.8628567260328566,5.241116841257325
154.0,1.8313212240084351,18.009173328248643,0.8672713169175201,5.314626774645629
155.0,1.9515284149030432,17.868920344287236,0.8714978994823034,5.393134459546579
156.0,2.0895606929988317,17.74727008349749,0.875538634663842,5.476980297464265
157.0,2.2472818931146,17.644954952188325,0.8793960579248336,5.566523550891285
158.0,2.4267499568267135,17.562736119785356,0.8830730500900549,5.662142676009794
159.0,2.6302233096264365,17.501398961037374,0.8865728093785711,5.764235418984119
160.0,2.8601607195834884,17.461745382353403,0.8898988192126935,5.8732186578041805
161.0,3.119220994403893,17.444583669992475,0.8930548192874573,5.989528227475184
162.0,3.410264722630887,17.45071602152424,0.8960447803282593,6.113618486326256
163.0,3.7363486586805976,17.480923101234346,0.8988728746210107,6.245961514918374
164.0,4.1007192630707765,17.535946042528924,0.9015434489004552,6.387046206169731
165.0,4.5068096333557195,17.616466708656855,0.904061002475443,6.537377076372977
166.0,4.958228400214953,17.723086549631525,0.9064301617392951,6.697472628763189
167.0,5.458745519553388,17.856303923370774,0.9086556559024234,6.867863508668106
168.0,6.012279762587274,18.016491126103336,0.9107422984682875,7.0490903651813115
169.0,6.622875160088974,18.20387298214563,0.9126949662967755,7.241701261459813
170.0,7.294667792761255,18.418505847883868,0.9145185786831911,7.446248799311324
171.0,8.031846503260471,18.660258161225006,0.9162180817169544,7.663286950353036
172.0,8.838595543301258,18.928795842793022,0.9177984311759607,7.893367534158529
173.0,9.71902094340127,19.223569933465914,0.9192645773505403,8.137036457299619
174.0,10.677052656321665,19.543808120556513,0.9206214483060968,8.394829593210469
175.0,11.716331583723905,19.888511605511162,0.9218739401524113,8.667268656862575
176.0,12.840063949764591,20.25645630797866,0.92302690104159,8.95485671223021
177.0,14.050860694636258,20.646199320080413,0.9240851217488779,9.258073811657008
178.0,15.35055104091795,21.05608977969299,0.9250533225773593,9.57737239720083
179.0,16.740008933595156,21.484287318199794,0.9259361438050155,9.91317340378486
180.0,18.218906528799398,21.928772997205378,0.9267381499283135,10.265861763786514
181.0,19.785534381921373,22.387383295239594,0.9274637913231292,10.635781336945941
182.0,21.436700126756325,22.85783497752944,0.9281174283842607,11.023234626685184
183.0,23.16748615562799,23.3377508929659,0.9287032971926381,11.428475504868098
184.0,24.9712068480612,23.824693401797983,0.9292255211154845,11.851708960713266
185.0,26.83939386116817,24.31619804847579,0.9296880960867658,12.29308826563012
186.0,28.761830455908385,24.80980486350463,0.9300948897713506,12.75271364365489
187.0,30.72668784660044,25.303090800728654,0.930449635525215,13.230631307581032
188.0,32.72073931322958,25.79370035158182,0.9307559284245314,13.726833201524938
189.0,34.729652155654456,26.27937391727664,0.9310172220522999,14.241257414424386
190.0,36.7383454033881,26.75797329270518,0.9312368259808126,14.77378923472551
191.0,38.731395584021534,27.227503835806136,0.931417903954533,15.324262814793764
192.0,40.69346872465598,27.686132698148374,0.9315634727733886,15.892463399082969
193.0,42.60975378622463,28.132203110384502,0.9316764018707089,16.478130057642332
194.0,44.46637285852084,28.564244515078702,0.9317594135734246,17.08095885656716
195.0,46.25074554648366,28.980978448711934,0.9318150840250302,17.70060638978512
196.0,47.9518848391673,29.38132065246533,0.9318458448334466,18.336693559075282
197.0,49.56062518234093,29.76437965211345,0.9318539851603278,18.98880965723805
198.0,51.069760597653804,30.129452089078296,0.9318416542589898,19.656516434851923
199.0,52.47410423736905,30.476015950794842,0.9318108641325595,20.339352200637563
200.0,53.77041632597685,30.803718160824015,0.9317634956994381,21.03683594977495
201.0,54.95730880239418,31.112359492626307,0.9317013057873782,21.748472180395034
202.0,56.03532835935313,31.40190796845939,0.9316259080864547,22.473752179048596
203.0,57.00633558170733,31.67243225295661,0.931538820729829,23.212164716359855
204.0,57.87359069925236,31.924141837451,0.931441432178579,23.96318927098618
205.0,58.641378993045336,32.15733671670851,0.9313350324469045,24.72630648138261
206.0,59.31491729893347,32.372417305785774,0.9312207941191989,25.500999316944846
207.0,59.89995183864379,32.56985067339751,0.9310998041564987,26.28675440236665
208.0,60.402687140865865,32.7501696865737,0.9309730486449277,27.08306704812109
209.0,60.82952302950798,32.91395897314775,0.9308414267095941,27.88944059899684
210.0,61.186933423810196,33.0618383072231,0.9307057608504742,28.705389284281836
211.0,61.48129937270497,33.194460457712324,0.9305667866743327,29.530441002497806
212.0,61.718844960241654,33.31249570926994,0.9304251775449139,30.364135231444564
213.0,61.90550258474208,33.41665425870747,0.9302815316077013,31.206028610197833
214.0,61.52188880924759,30.497727452145593,0.9301363908317436,32.05569077560215
215.0,61.125412121112845,27.70382589196848,0.9299902365747486,32.9127081676185
216.0,60.74679490115396,25.1842877369822,0.9298434973201896,33.776683497824116
217.0,60.38518679184079,22.91106665301925,0.929696552609545,34.64723584474641
218.0,60.03975789605509,20.859100040684545,0.929549736763121,35.52400080694293
219.0,59.709701219098754,19.005939450509054,0.9294033427994266,36.40663034522746
220.0,59.39423474764741,17.331508784609287,0.92925762592083,37.29479262417967
221.0,59.09260296293227,15.817821917698915,0.9291128067654143,38.18817174711761
222.0,58.80407779441996,14.44876353217827,0.9289690746471301,39.08646733192606
223.0,58.52795947998435,13.209903216091154,0.9288265902526724,39.98939419061411
224.0,58.26357666821812,12.088292222056912,0.9286854885270976,40.89668174032328
225.0,58.01028671523056,11.072328508502792,0.9285458809622706,41.808073614906014
226.0,57.7674752307064,10.151591059674319,0.9284078580797046,42.72332700419733
227.0,57.53455594421991,9.31673441102823,0.9282714913722434,43.642212217960974
228.0,57.31096988852922,8.559360888067673,0.9281368354082319,44.564512000834796
229.0,57.09618494208636,7.871930205762422,0.9280039294748961,45.49002106495806
230.0,56.88969480392775,7.247664552672413,0.9278727993329424,46.418545416848914
231.0,56.69101830663989,6.680470272814972,0.9277434586031217,47.34990187409141
232.0,56.49969828851038,6.1648668279960095,0.9276159102102565,48.28391742504674
233.0,56.3153007595331,5.695922618054809,0.9274901475459568,49.22042874460743
234.0,56.1374138057226,5.269202963829232,0.9273661556240579,50.159281623200286
235.0,55.96564650546802,4.880708092366432,0.9272439121007026,51.10033042664892
236.0,55.79962804505639,4.526839080961253,0.9271233881413504,52.043437652197824
237.0,55.63900652864882,4.204352834059786,0.9270045492909704,52.98847337866097
238.0,55.48344804201131,3.910322077647958,0.9268873561831695,53.935314833159474
239.0,55.332635669727544,3.642110383703044,0.926771765200193,54.883845949059896
240.0,55.18626843907721,3.3973388512175906,0.9266577290792223,55.83395690698952
241.0,55.04406043327755,3.173858508249676,0.9265451974211848,56.7855437510882
242.0,54.90573986944927,2.969731671889101,0.9264341171593617,57.73850799815254
243.0,54.771048146687654,2.7832079221340646,0.9263244329807344,58.69275624295499
244.0,54.63973900499973,2.6127040505747687,0.9262160876837738,59.64819981213268
245.0,54.51157773483301,2.456790282981908,0.9261090224928282,60.604754441873794
246.0,54.38634033507908,2.314174997405033,0.9260031773429842,61.562339940570396
247.0,54.26381272868112,2.183690148655859,0.9258984911228869,62.52087987750719
248.0,54.14379003430477,2.0642783886014797,0.9257949018822151,63.480301296124146
249.0,54.02607586788933,1.9549831889783675,0.9256923470108228,64.44053444128106
250.0,53.910481638531145,1.8549393796057942,0.9255907633935894,65.4015124870018
251.0,53.79682589001343,1.763364162696107,0.9254900875394786,66.36317128372303
