Time,J,A,S,tau
0.0,100.0,10.0,0.8926707184483748,16.46160375133715
1.0,98.51074550168414,10.880635395136025,0.8892460361691898,16.27397158230786
2.0,96.8551332834423,11.751896363522057,0.8853492683987424,16.06583725925383
3.0,95.04679022314986,12.611755877925845,0.8809691013129902,15.837525716976371
4.0,93.09804818172069,13.458452674337249,0.8760833827321994,15.588821528930827
5.0,91.02162971753958,14.290168325277172,0.8706703221127504,15.319513358022009
6.0,88.8300814484197,15.10503296291036,0.864708662223879,15.029394544109609
7.0,86.53543915073467,15.901131071682515,0.8581778692297561,14.718263666041713
8.0,84.14905729264177,16.676508205029158,0.8510583376402207,14.385925083522164
9.0,81.68155721210222,17.42917862452053,0.8433316203522884,14.032189499577605
10.0,79.14285829665081,18.157134153002808,0.8349806848623238,13.656874538561706
11.0,76.54228071463073,18.858353847389573,0.8259901381947303,13.259805052061829
12.0,73.88863879173428,19.530814513129517,0.8163464632041765,12.840813567818413
13.0,71.35180652163905,20.011961195257044,0.8075617968429106,12.492574288495588
14.0,69.10493616527367,20.143475395789608,0.8006318991540606,12.273628221096779
15.0,66.95078437844187,20.131839025053367,0.7935559302388754,12.060758471490447
16.0,64.87465184155351,19.998691774582895,0.7863380202500321,11.853811248138834
17.0,62.862399768311555,19.764839273628805,0.778982735099987,11.652638598039363
18.0,60.90179118843074,19.44912046557551,0.7714950747563595,11.457097612044073
19.0,58.98311846984924,19.067925105677737,0.7638804737418159,11.267049887226523
20.0,57.099345598616495,18.635149824054878,0.7561447922802443,11.082361055773642
21.0,55.24600524041493,18.162356632750384,0.7482943126891529,10.902900510926147
22.0,53.420913176494956,17.659075957224765,0.7403357251738002,10.728541134959302
23.0,51.62383764195335,17.13312407521473,0.7322761160801861,10.559159131636285
24.0,49.85248242966118,16.594518882479925,0.724122952121026,10.394633890831908
25.0,48.10284920273869,16.05475539861467,0.7158840587115725,10.234847854628567
26.0,46.376870779977835,15.519151466055268,0.7075676036405272,10.079686477913185
27.0,44.67721253951418,14.992001619600913,0.6991820736090858,9.929038155655155
28.0,43.00663709789748,14.477060648467239,0.690736244579424,9.782794130098084
29.0,41.36763908684411,13.977756127843678,0.6822391607023837,9.640848494016357
30.0,39.76217062035556,13.497309315891846,0.6737001007491066,9.503098109285368
31.0,38.19145840817308,13.038790915074042,0.6651285493232479,9.369442580875797
32.0,36.655901238712794,12.60513232328198,0.6565341652480124,9.239784219445166
33.0,35.155080761353126,12.199072551991833,0.6479267488808899,9.114028004596804
34.0,33.68807857673167,11.822864017276796,0.6393162076638348,8.992081538696173
35.0,32.25366884688762,11.47817842680579,0.6307125234442752,8.873855036050667
36.0,30.850409150500514,11.166151501364546,0.6221257148642543,8.759261243118242
37.0,29.476888343814796,10.88731785817019,0.6135658082891148,8.648215377943075
38.0,28.132159711713737,10.641466679365946,0.6050428146463059,8.540635410444311
39.0,26.815688397157206,10.427704980608953,0.5965666718894783,8.436441437547185
40.0,25.527687258867076,10.244341160907968,0.5881472183409984,8.335556058283407
41.0,24.26927810112892,10.08895813468915,0.5797941754051881,8.23790429294729
42.0,23.04234161549465,9.958507785154625,0.5715170994503135,8.1434134039976
43.0,21.849505021384786,9.849459643749327,0.5633253655052964,8.052012966760516
44.0,20.693915413102705,9.75799075253391,0.5552281369524321,7.963634794104409
45.0,19.578996666617776,9.680181970999673,0.5472343398099399,7.878212895477404
46.0,18.50818567158679,9.612213172143424,0.5393526395883852,7.795683435333816
47.0,17.484681957404323,9.55053288019151,0.5315914203202636,7.71598469167121
48.0,16.511229563271954,9.491994501337755,0.5239587658694049,7.639057014776077
49.0,15.58995391272805,9.433945292898898,0.5164624436008196,7.564842786269102
50.0,14.722257957024215,9.374267275588068,0.5091098905373843,7.493286374649402
51.0,13.908783457233753,9.311377686065129,0.5019082007910917,7.424334105896322
52.0,13.149422926459726,9.24418977683894,0.49486411655556883,7.357934218166711
53.0,12.443362296013866,9.172047814787078,0.48798402687903936,7.294036784492921
54.0,11.789296675298516,9.094659270893645,0.4812739603742399,7.232593787060634
55.0,11.185297647716528,9.012016677873307,0.4747395684302591,7.173558975851604
56.0,10.629141883887904,8.924310352457237,0.4683861611238285,7.116887809162461
57.0,10.118257392222151,8.831882139109943,0.46221867122487326,7.062537510980482
58.0,9.649924640595374,8.73515716167955,0.45624167778123614,7.010466992553488
59.0,9.221326805910635,8.634604493215775,0.4504594096912811,6.960636815005919
60.0,8.829627327603832,8.530706433652465,0.44487575427534726,6.913009155833514
61.0,8.472027105094561,8.423938414572213,0.43949426663448954,6.867547776351374
62.0,8.145810185655622,8.314757235512426,0.4343181803012186,6.824217990382431
63.0,7.848386202539469,8.203594913788061,0.42935041774566823,6.7829866408086374
64.0,7.57728924576153,8.090859756367864,0.4245936029579957,6.743822067530473
65.0,7.330200994325612,7.976937760726125,0.4200500773782725,6.70669407143708
66.0,7.104962182743711,7.862195628072965,0.4157219144372777,6.67157388607587
67.0,6.899576530034591,7.746984311153863,0.4116109343812757,6.638434150319793
68.0,6.712214089292383,7.631642091802407,0.4077187191935289,6.60724888261111
69.0,6.541213020562824,7.516497041872585,0.40404662648910705,6.577993462451544
70.0,6.385058777667501,7.401870148951744,0.4005958063027775,6.550644601782469
71.0,6.242387703398635,7.288075730050357,0.3973672171387906,6.5251803159754935
72.0,6.111981308854964,7.175421862773126,0.3943616407635909,6.501579900680668
73.0,5.992758685174954,7.064210426111808,0.39157969658452707,6.479823909518508
74.0,5.8837641064905295,6.954737044910449,0.3890218561541506,6.459894131439931
75.0,5.784180190029673,6.847289520175691,0.3866884523568544,6.4417735816604695
76.0,5.693284593037616,6.742149060853631,0.3845796960752771,6.425446486373709
77.0,5.610440769547651,6.639589067879948,0.38269569335725717,6.410898220197602
78.0,5.535151565390701,6.539872828432758,0.3810364418046412,6.398115307268177
79.0,5.466968073214598,6.443255872225526,0.37960184838424454,6.387085499007151
80.0,5.405494603437601,6.349983821321682,0.3783917555829883,6.377797516310719
81.0,5.35049400000501,6.260293139626916,0.3774058948081973,6.370241392758387
82.0,5.301676114589459,6.174409611242427,0.37664397306276587,6.364408021016305
83.0,5.258905922002378,6.092552441468068,0.376105591313063,6.360289591357182
84.0,5.221985730280255,6.014926815783753,0.37579033672190737,6.35787916488935
85.0,5.190867686475574,5.941735929110182,0.3756976944792641,6.357171007207261
86.0,5.16542696791972,5.873165487901104,0.3758271422667173,6.358160294363417
87.0,5.145674608321356,5.809404467539907,0.3761780578055782,6.360843307542086
88.0,5.131533599420222,5.7506202028923665,0.37674981336504004,6.365217285350055
89.0,5.123071238879281,5.696992901175229,0.37754166715314574,6.371280509007153
90.0,5.120247120205864,5.6486751928254435,0.37855287854184827,6.379032165195506
91.0,5.123140284764592,5.605837791766776,0.3797825835329874,6.388472525089029
92.0,5.131741224739761,5.568623554925553,0.38122990821860286,6.399602681896246
93.0,5.146129231716166,5.537196537647488,0.3828938453437858,6.41242484463453
94.0,5.1663107640975,5.511693793650488,0.3847733633334578,6.426941973048324
95.0,5.192351307842905,5.492274886517278,0.38686728353958505,6.443158169600247
96.0,5.2242579584061115,5.479074791637614,0.3891743858051372,6.4610782235850355
97.0,5.26206739894867,5.472250114180799,0.3916932854498558,6.480708087909003
98.0,5.305770555761602,5.471936680497731,0.3944225374600404,6.502054346948776
99.0,5.3553583370154065,5.478288563800553,0.397360511559405,6.525124761874239
100.0,5.410785995481985,5.491444216690513,0.40050549760999704,6.549927679682292
101.0,5.47197892364739,5.511554107794066,0.4038555770484442,6.576472627851362
102.0,5.538833699304379,5.538759411509185,0.4074087319152783,6.604769685005618
103.0,5.611187486109804,5.573204005532306,0.4111627114905856,6.6348301025831224
104.0,5.688851376952927,5.615029555094075,0.4151151466676451,6.666665660758512
105.0,5.771549319940228,5.66436827130519,0.4192634114652115,6.700289291664506
106.0,5.858977778380449,5.7213602457778805,0.42360473792558817,6.735714465399563
107.0,5.950727805523666,5.786120117621257,0.4281360999177658,6.772955693036111
108.0,6.046331258707995,5.858755758164823,0.43285428415353483,6.812028148973117
109.0,6.145232142088506,5.939371623260821,0.43775582273137587,6.8529479014802375
110.0,6.246784338950851,6.028042055625612,0.44283702560217003,6.895731755915152
111.0,6.3502524581225845,6.124826038440802,0.44809396154948317,6.940397292370347
112.0,6.454803325070559,6.22975689966999,0.4535224425374645,6.986962890910405
113.0,6.559510317585713,6.342833857356508,0.4591180310319753,7.035447674000719
114.0,6.66336056261707,6.464023816874091,0.4648760441859756,7.08587148255751
115.0,6.765254920895437,6.593253894686476,0.47079153579581445,7.138254924959001
116.0,6.864022773454149,6.730400878792156,0.47685930647232533,7.19261930933075
117.0,6.958436745841488,6.875291585488636,0.4830739044132066,7.248986650725937
118.0,7.047231887725284,7.027697064635469,0.48942963022028513,7.307379650823167
119.0,7.129128873978538,7.187327637168016,0.4959205405535123,7.367821691857722
120.0,7.202861935305849,7.353827567136159,0.5025404526123785,7.430336820020042
121.0,7.267209963429308,7.526773510393948,0.509282955670518,7.4949497219760355
122.0,7.321028929573208,7.70567319391648,0.5161414215236096,7.561685707885821
123.0,7.363285383655699,7.889965159970163,0.5231090161953004,7.6305706946862255
124.0,7.393091811786474,8.079019433987957,0.5301787126897344,7.70163119544781
125.0,7.409738420667302,8.272140969822848,0.5373433029865895,7.774894290007169
126.0,7.41272504499218,8.468575031574122,0.5445954155642411,7.850387615620095
127.0,7.401769765817013,8.66751782095532,0.5519275402833529,7.92813931258822
128.0,7.376840724872129,8.868121206115019,0.5593320417072483,8.008178055769777
129.0,7.338162601133662,9.069507735729102,0.5668011712282969,8.09053299003183
130.0,7.28620299490039,9.270784128300495,0.5743270981642379,8.175233697067558
131.0,7.221671076763307,9.471053815022664,0.5819019346527179,8.262310213208169
132.0,7.145508128770046,9.669436052312356,0.5895177447697829,8.351792975115323
133.0,7.058844542656432,9.86507930210918,0.5971665761484658,8.443712776715
134.0,6.9629818677191935,10.057178626792275,0.604840479040385,8.538100761847952
135.0,6.859348969083289,10.244991065451563,0.6125315351384731,8.634988396311028
136.0,6.749467370475678,10.42785010363333,0.6202318754602976,8.734407424343082
137.0,6.6349096425704746,10.605176959948153,0.6279337048450819,8.836389837273808
138.0,6.517261910246664,10.776489935537166,0.6356293242770675,8.940967841080827
139.0,6.398088260203896,10.941411558939206,0.6433111536403833,9.048173825089382
140.0,6.27889808383316,11.099674129864448,0.6509717559011382,9.158040330758988
141.0,6.161123595172971,11.251120182683655,0.6586038532023797,9.270600002704992
142.0,6.046098423208946,11.395699904145795,0.6662003475477429,9.385885556298454
143.0,5.93504358232118,11.533466860568247,0.6737543390698062,9.503929741587935
144.0,5.829058000502544,11.664571796597327,0.6812591446725436,9.624765310015814
145.0,5.729114039556342,11.789255072294276,0.6887083172838008,9.748424977559182
146.0,5.636062000717013,11.907835645468849,0.6960956553068691,9.874941374230518
147.0,5.550634547069635,12.020699851903322,0.7034152162172803,10.004347014111373
148.0,5.473455008525052,12.128290465538084,0.7106613272616625,10.136674253563172
149.0,5.4050458149626435,12.231095468077227,0.7178285997504188,10.271955287655338
150.0,5.345840002176355,12.329638079986136,0.7249119464631306,10.410222087822365
151.0,5.296200104461301,12.424463926021867,0.7319065623938714,10.5515063406443
152.0,5.256424705681271,12.51613371447084,0.7388079463926227,10.695839534833757
153.0,5.226761700056885,12.60521392000995,0.7456119340476413,10.843252814084765
154.0,5.207426368718382,12.692269762495533,0.7523146100447673,10.99377700567744
155.0,5.1986044248009255,12.777858418729787,0.758912452665536,11.147442729331708
156.0,5.200468754635558,12.862525384199074,0.7654021595782875,11.304280142448185
157.0,5.213186630592598,12.946798866842121,0.7717808169349863,11.464319311886479
158.0,5.236925021898522,13.0311880228844,0.778045744031261,11.62758981093568
159.0,5.271863620359234,13.116181133773278,0.7841946131571739,11.79412127834633
160.0,5.318192985391834,13.202242252132212,0.7902253498511461,11.963942945033738
161.0,5.3761269543607355,13.289814814803679,0.7961361841695286,12.13708428262204
162.0,5.445900746734524,13.379315257443881,0.8019256183862334,12.313574649785728
163.0,5.527776470829621,13.471141496603607,0.8075924060895676,12.493443841085247
164.0,5.622047147905418,13.565664185522007,0.8131355842615384,12.676722140740372
165.0,5.729031082770645,13.663237718169439,0.8185543900359111,12.863440509536604
166.0,5.849085120231526,13.764191242620887,0.8238483419036446,13.053631404293654
167.0,5.982587063651788,13.86883912557171,0.8290171160336656,13.247328373303908
168.0,6.129957019021144,13.977474038357943,0.8340606490016309,13.444567881766615
169.0,6.291631673478301,14.090374496894968,0.8389790049839368,13.645388379138117
170.0,6.468088646469973,14.20780114243463,0.8437724692489287,13.849833010688615
171.0,6.65981850456292,14.330000500731856,0.8484414324447909,14.057948696356226
172.0,6.867347122011178,14.457204378634955,0.8529864562563664,14.26978918468991
173.0,7.091209778890783,14.589629823485028,0.8574081851229677,14.485415208342589
174.0,7.33196852481132,14.72748117258151,0.8617073806268488,14.704896851912041
175.0,7.590190799272609,14.870946251989547,0.8658848576087832,14.928316472990996
176.0,7.866460739994937,15.02020072195096,0.8699414947079217,15.15576884392912
177.0,8.161363311213451,15.175400258785572,0.8738781834086491,15.387369107095456
178.0,8.475489787518166,15.33668703908967,0.877695827504814,15.623248851491535
179.0,8.809427881037124,15.504177434558924,0.881395291463532,15.86357151118526
180.0,9.163762030383015,15.677970362361801,0.8849774003445514,16.10852309585251
181.0,9.539070204030224,15.858130246533777,0.8884428788476786,16.358336155118046
182.0,9.935920109914424,16.044696040549734,0.8917923554923995,16.61327637705203
183.0,10.354872664857414,16.23766065177507,0.8950262951310064,16.8736727003517
184.0,10.796476253642064,16.436977219721264,0.8981449988423349,17.139904971600863
185.0,11.261276505360927,16.642538705261728,0.9011485480089699,17.412433740755347
186.0,11.749811126543845,16.854175278104293,0.9040367803450658,17.691797470504905
187.0,12.262623989072585,17.071640988367577,0.9068092740867272,17.978631928524255
188.0,12.800264945329731,17.294593514775087,0.9094652814115788,18.273687108810353
189.0,13.363302449209115,17.522597859478804,0.9120037787940714,18.577824179029413
190.0,13.952334149628498,17.75507970065719,0.9144233586465775,18.892059678295883
191.0,14.56798913880839,17.99135612681588,0.9167223511806765,19.217530345646114
192.0,15.210951722493327,18.230560366429277,0.91889871572547,19.555562057039914
193.0,15.881947522808376,18.471699386055377,0.920950202675956,19.90760564108195
194.0,16.581764457446706,18.71358232358521,0.9228743317811262,20.27529365118963
195.0,17.311230996636358,18.954862536437158,0.9246685375819647,20.66038659715825
196.0,18.07121198429416,19.19402695381454,0.9263302847165152,21.064769262072954
197.0,18.862569862121138,19.42941055580106,0.9278572663662394,21.490407377463598
198.0,19.686130168071998,19.6592464719466,0.9292475244554019,21.93929362430441
199.0,20.54261678969679,19.881692277214654,0.9304997789869307,22.41338400003177
200.0,21.43256979112988,20.094908382571408,0.9316135863948387,22.91450890970529
201.0,22.356299886841906,20.297107159823458,0.9325894930977001,23.444318975015637
202.0,23.31373381851181,20.48666082822611,0.933429434507284,24.00414178501845
203.0,24.30440138883332,20.662144515197426,0.934136580265118,24.594967649475148
204.0,25.32733780282746,20.822416260045227,0.9347155827436682,25.217355682319717
205.0,26.38098820815831,20.966701877274353,0.9351725531097449,25.87136151424042
206.0,27.463322704071714,21.094538385725656,0.9355147191051448,26.556633469192345
207.0,28.5716808357708,21.205897752943777,0.9357505522995874,27.272287297652525
208.0,29.702988915502335,21.301048627802032,0.9358891826212188,28.017096737324458
209.0,30.853732460182712,21.380593504182194,0.9359403194531791,28.789468776355395
210.0,32.02008973621245,21.445390160304907,0.9359138563632958,29.58755573747664
211.0,33.198052612842794,21.496478354585456,0.9358196027271247,30.409349181825046
212.0,34.38352378324717,21.53502645750866,0.9356670607360051,31.25275040419709
213.0,35.57243206096118,21.562268996729884,0.9354651758443487,32.11565093144971
214.0,36.760823609529425,21.579450721666973,0.9352222365182178,32.99599321352858
215.0,37.94493017556874,21.587790240222812,0.9349457973654629,33.89181119850756
216.0,39.1212500048578,21.588442780921962,0.9346425755365352,34.801274064477454
217.0,40.28657753322815,21.58248219925753,0.9343184929431237,35.72269899031599
218.0,41.43801913815312,21.570892463550734,0.9339787219139708,36.65455511363886
219.0,42.57303605727785,21.554553380535165,0.9336276681420531,37.59547873306427
220.0,43.689434971518764,21.53424452418574,0.9332690630650616,38.54426162211484
221.0,44.78532441584297,21.510658737907136,0.9329060869944391,39.49982759866959
222.0,45.8591947918923,21.484382906918846,0.9325412876812514,40.4612589209542
223.0,46.90976141925641,21.455942836399064,0.9321768613683131,41.427728327687696
224.0,47.93611851450223,21.425765496169902,0.9318144621839273,42.39855376786349
225.0,48.93750892177304,21.39423989717353,0.9314555407174515,43.37310871318841
226.0,49.91352758120977,21.361669160783872,0.9311011075288397,44.35089203033911
227.0,50.8639053832744,21.32832392175964,0.9307520126474125,45.331449940203754
228.0,51.78856945159375,21.294429494370267,0.9304088857961762,46.31439487797728
229.0,52.51423378461742,20.863722622786568,0.9300721648694295,47.299399240337024
230.0,52.48308981290316,18.848253022252667,0.9297421479889374,48.286181082103006
231.0,52.45379554616524,17.02806239603422,0.9294190141015359,49.27449889032811
232.0,52.426158386387044,15.384170548731772,0.9291028447993214,50.26414574022693
233.0,52.40000938425755,13.89944545499553,0.9287936429593519,51.25494414837532
234.0,52.37520010224315,12.558425713309186,0.9284913477304626,52.246741904248104
235.0,52.351599683301316,11.34715475689412,0.9281958477436598,53.239408215939825
236.0,52.32909255478319,10.253043421836542,0.9279069914633274,54.23283069181786
237.0,52.30757624925672,9.26472012893387,0.9276245962899576,55.22691251890961
238.0,52.28695971447478,8.371931015470558,0.9273484556430044,56.2215702736749
239.0,52.26716171674101,7.565409826747627,0.9270783450854663,57.21673188707163
240.0,52.24810958494636,6.836802000478859,0.9268140271143306,58.21233504558667
241.0,52.22973805126577,6.17855617542894,0.9265552551865968,59.20832573838863
242.0,52.21198830807358,5.583863147264292,0.9263017768937782,60.20465708140184
243.0,52.194807168944514,5.046568519760511,0.9260533365429989,61.20128828525106
244.0,52.17814635372549,4.561120969400284,0.9258096771891061,62.19818378563136
245.0,52.16196187984067,4.122504160375339,0.9255705422369862,63.195312510263214
246.0,52.146213516028304,3.7261910448254927,0.9253356766681848,64.19264723340136
247.0,52.13086433679517,3.3680924983511265,0.9251048279858869,65.19016405251367
248.0,52.11588030264237,3.044515834190893,0.924877746879626,66.18784190843306
249.0,52.101229928549095,2.752127342940656,0.9246541877281614,67.18566220762195
250.0,52.08688396042397,2.487914460027772,0.9244339088807892,68.18360846577868
