Time,J,A,S,tau
0.0,100.0,10.0,0.6196048371805468,30.141321033497924
1.0,99.67562945395136,8.993891310094867,0.6183133344743272,31.109956947034835
2.0,99.35724900929183,8.092935618180622,0.6170307274341503,32.07986004109867
3.0,99.04488133738509,7.286309505474544,0.6157571357434438,33.050856999934204
4.0,98.73811989515404,6.56403860321462,0.6144923613353013,34.022855940563836
5.0,98.4365793809336,5.917221976375368,0.6132361697400452,34.995771224827045
6.0,98.13989392798906,5.337905679354325,0.6119882946837252,35.96952286937161
7.0,97.84771542748759,4.81898532003876,0.6107484422186861,36.94403600031987
8.0,97.55971204908948,4.354118396870792,0.6095162943288307,37.9192403702535
9.0,97.27556678758141,3.9376348315286998,0.6082915122926166,38.89506988776294
10.0,96.99497612847884,3.5644691187308344,0.6070737396708326,39.87146218655532
11.0,96.71764885244606,3.230097119097766,0.6058626049399215,40.848358237377916
12.0,96.44330485226656,2.930473063772072,0.6046577239457456,41.825701967808016
13.0,96.17167405285261,2.6619821029925093,0.6034587020762681,42.803439914611126
14.0,95.90249542290609,2.421394515974635,0.6022651362084529,43.781520903238665
15.0,95.63551599361242,2.2058215865791904,0.6010766165219887,44.75989573267814
16.0,95.37048996079506,2.0126822688574113,0.5998927281207901,45.738516884730615
17.0,95.10717784159687,1.8396695074695106,0.5987130525239398,46.71733824806801
18.0,94.84534563741009,1.6847202850608156,0.5975371690598581,47.696314846415376
19.0,94.584764065101,1.5459926015117604,0.596364656150904,48.67540258327359
20.0,94.32520779537268,1.4218379794557805,0.5951950925367253,49.654557988810396
21.0,94.06645472549529,1.31078509423491,0.5940280584331767,50.63373797452789
22.0,93.80828527263627,1.211518126714292,0.592863136667569,51.61289958969676
23.0,93.5504816737444,1.1228626351915856,0.5916999137705761,52.59199978006654
24.0,93.29282730745348,1.0437693041273175,0.5905379811032896,53.57099514336113
25.0,93.03510601275048,0.9733023116129325,0.5893769359427802,54.54984168652747
26.0,92.77710141383253,0.9106264504608338,0.5882163826691852,55.528494570738054
27.0,92.51859624411304,0.8549979687017134,0.5870559339188371,56.5069078589551
28.0,92.25937166265017,0.8057533922275706,0.5858952118580567,57.485034247766116
29.0,91.999206549884,0.7623038641739353,0.5847338495474139,58.462824785246355
30.0,91.73787681851341,0.7241258083310665,0.5835714922950438,59.440228593174176
31.0,91.47515466096264,0.6907548514233961,0.5824077992982074,60.417192546075015
32.0,91.21080780027108,0.66178095432701,0.5812424452975181,61.393660951009814
33.0,90.94459872734282,0.6368423999160532,0.5800751223552516,62.36957521259809
34.0,90.67628387484716,0.6156207402068481,0.5789055419080058,63.34487345781974
35.0,90.40561274121146,0.5978383709042875,0.5777334370307619,64.31949013105319
36.0,90.13232702595428,0.5832536478071708,0.5765585647665491,65.29335558643592
37.0,89.85615965326373,0.5716584268068233,0.5753807088818458,66.26639561600523
38.0,89.57683381963543,0.5628749272508891,0.574199682655563,67.2385309816631
39.0,89.29406187438713,0.556753720589506,0.5730153322800937,68.20967685309796
40.0,89.0075442134253,0.5531716370083071,0.5718275403438993,69.17974224301555
41.0,88.71696798039176,0.5520302909918581,0.5706362300344785,70.14862933299484
42.0,88.4220075751653,0.5532553709116361,0.5694413683531968,71.11623297426837
43.0,88.20440769274059,0.6058525156111011,0.5682429721484252,72.08243973221565
44.0,88.00295396356829,0.6665995147330953,0.5670411122401791,73.04712725988921
45.0,87.8085700865687,0.7295682375561154,0.5658359196069778,74.0101633424117
46.0,87.62187568043838,0.7949832835624836,0.5646275911980796,74.9714050163162
47.0,87.44358291946493,0.8630862514529363,0.5634163964844784,75.93069757911609
48.0,87.27450642512339,0.9341373129721298,0.5622026846400308,76.88787350802829
49.0,87.1155742536238,1.0084168672000084,0.5609868922067831,77.84275131100166
50.0,86.96784010320845,1.0862272989441057,0.5597695513346066,78.7951342947207
51.0,86.83249679650062,1.167894838735444,0.5585512985875468,79.74480924978262
52.0,86.71089110153429,1.2537715212774594,0.557332884307561,80.69154505306292
53.0,86.60453993670221,1.3442372362019368,0.5561151825121642,81.63509118903487
54.0,86.51514797715231,1.4397018612819983,0.5548992012848741,82.5751761940257
55.0,86.44462664122918,1.5406074635037132,0.5536860935950101,83.51150603025499
56.0,86.39511438144119,1.6474305483815006,0.5524771684587625,84.44376239963918
57.0,86.36899811877416,1.7606843330268953,0.551273902325992,85.37160101085207
58.0,86.3689355815177,1.8809210052862457,0.5500779505240021,86.29464982046309
59.0,86.39787816653396,2.0087339292788617,0.5488911585676498,87.2125072714739
60.0,86.45909378320134,2.14475974433764,0.5477155730854077,88.12474056078973
61.0,86.55618893641108,2.2896802938347665,0.5465534520581141,89.03088397426777
62.0,86.69312905338424,2.4442243083953366,0.545407274007333,89.93043733612208
63.0,86.8742557542812,2.609168755148859,0.5442797457057463,90.82286462831307
64.0,87.10429940407897,2.785339751383815,0.5431738079147065,91.70759284485457
65.0,87.38838486133106,2.973612927782913,0.5420926385864195,92.584011155408
66.0,87.73202786091855,3.1749131140491955,0.5410396529035881,93.45147046163837
67.0,88.14111894212034,3.390213209123331,0.54001849947212,94.30928343797044
68.0,88.6218912790722,3.6205320905023486,0.5390330519382264,95.15672515483232
69.0,89.18086821949014,3.8669314137756876,0.5380873952764733,95.99303438627945
70.0,89.82478583727048,4.130511155948734,0.5371858059976046,96.81741570398763
71.0,90.56048542297614,4.412403766082129,0.5363327255622832,97.62904245483439
72.0,91.39477132901193,4.7137667897549616,0.5355327263488981,98.42706071975643
73.0,92.33422621533944,5.0357739357591305,0.5347904698027136,99.21059425639511
74.0,93.38498336567979,5.379604494260163,0.5341106560642538,99.97875063115426
75.0,94.55245217886444,5.746431061909075,0.5334979657099522,100.73062832804455
76.0,95.84098984858704,6.137405634668143,0.5329569927924681,101.46532499666357
77.0,97.25353113712593,6.553644742475198,0.5324921715825068,102.18194656768517
78.0,98.79117840424857,6.996212883552594,0.5321076965745436,102.87961720822645
79.0,100.45272677082318,7.46610493611106,0.5318074330869181,103.55749031563968
80.0,102.23423350679529,7.964228704252416,0.5315948328172798,104.21475917959549
81.0,104.12850424738836,8.491385699780656,0.5314728346333507,104.85066903224404
82.0,106.1248166551715,9.04825882985778,0.5314438017912245,105.46452516919237
83.0,108.20833268127045,9.635388993776493,0.531509391899349,106.05570788793649
84.0,110.36006249806532,10.253165848926553,0.5316705217440578,106.62367738839116
85.0,112.55667151543285,10.901813467663615,0.5319272767293852,107.16798384108874
86.0,114.77060521290149,11.58138169693623,0.5322788613460009,107.6882728399495
87.0,116.97038001649558,12.291738865194048,0.5327235510656396,108.1842902228342
88.0,119.12112215785656,13.032567802334983,0.533258664471377,108.65588428307753
89.0,121.18537867120727,13.803366691358514,0.5338805512334799,109.10300573834455
90.0,123.1241327298946,14.603452263062293,0.5345845954163078,109.5257056684479
91.0,124.89801594202989,15.431966450687822,0.535365234461511,109.92413137611781
92.0,126.46865260999145,16.287885935368358,0.5362159924647208,110.29852040634522
93.0,127.80005783916386,17.170034186974995,0.5371295262226206,110.64919297974187
94.0,128.8599986556979,18.077095503530604,0.5380976819648954,110.97654316441107
95.0,129.62120827808718,19.007630636864036,0.5391115617009626,111.28102904870904
96.0,130.06242514000272,19.960092752539794,0.540161590941927,111.56316272306296
97.0,130.16910753090778,20.932844374262693,0.5412375946187399,111.82349962150076
98.0,129.9336579153407,21.924174546380662,0.5423288810409645,112.06262776982072
99.0,129.35564416546532,22.932314591753205,0.5434243017654459,112.28115884704911
100.0,128.44140283061256,23.955451843910396,0.5445123310523978,112.47971782391333
101.0,127.20297098010329,24.9917456538931,0.5455811523616362,112.65893473294777
102.0,125.65769059262269,26.03933928116347,0.5466186977382768,112.81943729304793
103.0,123.82678248281579,27.096369025431663,0.5476127250654964,112.96184400009491
104.0,121.73426846705048,28.160975320038165,0.54855086890398,113.08675862289182
105.0,119.40581746592004,29.231309874709115,0.5494206911506037,113.19476570428684
106.0,116.86769630412651,30.30554196659568,0.5502097260230944,113.28642687365074
107.0,114.14583024961749,31.38186374457496,0.5509055221520092,113.3622777547645
108.0,111.26506515197688,32.458493228645395,0.5514956806003389,113.42282618535891
109.0,108.24864525841642,33.53367682659337,0.5519678886830732,113.46855110970803
110.0,105.11787863764057,34.60569081846287,0.5523099512023129,113.499901965975
111.0,101.89196444577668,35.6728421405008,0.5525098200845013,113.51729855158402
112.0,98.58794686719116,36.733468987818135,0.5525556249375104,113.52113108244426
113.0,95.22080474220375,37.785940322933534,0.5524357031031295,113.51176083542481
114.0,92.77632318013187,37.861003066357995,0.5760825581594488,92.849332964941
115.0,90.0355715861024,38.20893906878399,0.615526278254832,61.337148197093725
116.0,84.48859316808678,41.30153118152614,0.6300885287569351,50.72650785097187
117.0,77.87704366043374,45.3911868326136,0.6361495570241018,45.302090021556246
118.0,70.73244697411268,49.96154752365118,0.6383107729996664,41.830784515131526
119.0,63.39276849234865,54.688633380029444,0.6382023022253508,39.34738499549887
120.0,56.11709897614662,59.32422777779164,0.6365852169360527,37.44964034277536
121.0,49.11136560825069,63.67160895351804,0.6338785725312128,35.93460692935018
122.0,42.5354470056401,67.57949721436047,0.6303395426362999,34.6865819226755
123.0,36.505458282394045,70.9400793669372,0.6261386914845635,33.633740679603704
124.0,31.095698443883776,73.6869697359044,0.6213959437028985,32.728646138295964
125.0,26.341819205006193,75.79183260889388,0.6161996211095626,31.93844752149786
126.0,22.245527313451657,77.25948966554103,0.6106172777517342,31.23953597996866
127.0,18.780737485911125,78.12164704859063,0.6047022777563137,30.614424657277876
128.0,15.900330346753206,78.43009077270108,0.5984979137610625,30.049849031402744
129.0,13.543212126967399,78.24964945484459,0.5920401553352028,29.53554538643742
130.0,11.64085080734559,77.65173438670485,0.5853595124253421,29.063438198813866
131.0,10.122905553122548,76.7088197114236,0.5784823365533351,28.627085873422732
132.0,8.921650638407154,75.49014602593061,0.5714317602482981,28.22128802212577
133.0,7.9750871320732974,74.05873647290116,0.5642283790214087,27.841804573028465
134.0,7.228810129616421,72.46964862236321,0.5568907610457965,27.485148836880946
135.0,6.636792337842116,70.76929337280922,0.549435832911358,27.148432090830397
136.0,6.1613507461866375,68.99555109564358,0.5418791728403691,26.829246189552965
137.0,5.7725254546028495,67.17845638117572,0.5342352396962696,26.525572188405132
138.0,5.4471298076934955,65.34119317614065,0.5265175502385893,26.2357092783815
139.0,5.167660119876142,63.50121591934016,0.5187388187325307,25.958218597805505
140.0,4.916842444644826,61.67572834136458,0.5109110677593647,25.691878174173958
141.0,4.6829973277801935,59.876381663895536,0.5030457153856019,25.43564646786151
142.0,4.481311887632737,58.0878447422571,0.4951536442117605,25.188633145635173
143.0,4.298774480348734,56.32292285877264,0.48724525705413413,24.9500747909265
144.0,4.125002321836555,54.59184386017002,0.47933052001561105,24.71931492789764
145.0,3.9558350738393058,52.89864309359679,0.47141899625717953,24.495787580412202
146.0,3.7900924415747714,51.24437839760097,0.4635198737235584,24.279003280209352
147.0,3.627601281683456,49.62909233689948,0.4556419870670567,24.068537672411733
148.0,3.4684803163700475,48.052523506705484,0.4477938122263879,23.864023862404444
149.0,3.3129384585587296,46.51433097025141,0.4399835470435623,23.665138915437137
150.0,3.1612247507146662,45.01411900315232,0.4322190081704317,23.471604810574753
151.0,3.0136169031442326,43.55147920287031,0.42450775482468356,23.283173501595062
152.0,2.870434121475023,42.125979905325224,0.416857001948319,23.099629734081994
153.0,2.73204627553488,40.7371724531466,0.40927366044414404,22.920782995374918
154.0,2.598889118783354,39.384597300764376,0.40176435014977413,22.746464213200717
155.0,2.471485268555278,38.067777563056666,0.3943353750391941,22.576523597964844
156.0,2.3504711876188464,36.78622642996861,0.3869927384551828,22.410827653235486
157.0,2.236616152077396,35.539441413559246,0.37974213643828464,22.249256710019786
158.0,2.1308587402693946,34.326910504298354,0.37258896219998977,22.09170327410994
159.0,2.034332227704018,33.14810944072555,0.3655383029469591,21.938070249243975
160.0,1.9484013933581577,32.00250469662614,0.35859494165855366,21.788269621919497
161.0,1.874692193811502,30.889553886886393,0.351763358638412,21.642221203960393
162.0,1.815117953541087,29.808705922009874,0.34504773192662985,21.499851593678176
163.0,1.7719051585319,28.75940260206256,0.33845193898907755,21.361093321854813
164.0,1.7476090858065576,27.741080291129038,0.33197956143098134,21.22588406734493
165.0,1.7451168890778006,26.753170265762087,0.3256338862387904,21.094166013315693
166.0,1.7676420584677877,25.79510092130698,0.3194179121569323,20.96588527933874
167.0,1.8187035583762077,24.866299494835506,0.3133343536606911,20.840991451598796
168.0,1.9020832040624935,23.966193937818662,0.3073856470113716,20.71943715948756
169.0,2.021771909785423,23.094215933061673,0.3015739576225809,20.601177722854878
170.0,2.181895008533432,22.249804024048135,0.2959011864691238,20.486170853688055
171.0,2.386617037380346,21.432407324072436,0.2903689787216162,20.37437638695654
172.0,2.640039865601972,20.64149060226571,0.28497873284352776,20.265756059912363
173.0,2.9460784770285646,19.876539674075314,0.2797316090156064,20.160273321984324
174.0,3.3083308667405236,19.137067865988293,0.2746285397985113,20.057893164473903
175.0,3.729947385169645,18.422623754395076,0.2696702404340858,19.958581982071934
176.0,4.213486658439788,17.732799282943798,0.26485721886847424,19.862307452453205
177.0,4.760797469177088,17.067239276426488,0.2601897881239306,19.769038429828363
178.0,5.372879338627266,16.42564998433411,0.2556680768581511,19.678744854223794
179.0,6.049748060586005,15.807806692683908,0.2512920408965084,19.591397669688185
180.0,6.79053107721583,15.213575042148799,0.2470614767690204,19.506968798754176
181.0,7.593142267075157,14.642899327519986,0.24297603340634025,19.425431012030785
182.0,8.454345837283816,14.095820361413958,0.23903521985475917,19.346757940864855
183.0,9.36979305778716,13.572476591839482,0.2352384222892888,19.27092400884521
184.0,10.333983524417595,13.07310359312532,0.23158491257652988,19.197904405726483
185.0,11.340377075587535,12.598031475666243,0.22807386190258017,19.127675051762306
186.0,12.381473273980276,12.14767675435564,0.22470435155729443,19.0602125721588
187.0,13.44894550150073,11.7225303815982,0.22147538415577575,18.995494273942512
188.0,14.533805156566443,11.32314143115599,0.21838589452336585,18.933498126098424
189.0,15.626604540561022,10.950097158203034,0.21543476041516832,18.874202742246858
190.0,16.717654805286916,10.603999355981177,0.21262081280692052,18.817587364777214
191.0,17.79725558809649,10.28543812537271,0.2099428457604052,18.763631851205382
192.0,18.85592799897377,9.994963996182562,0.20739962589658975,18.712316662099358
193.0,19.88463789463816,9.733059337188704,0.2049899014379812,18.66362285025452
194.0,20.874997772177768,9.500110105115997,0.20271241080215865,18.6175320509002
195.0,21.819430339368903,9.296378672885005,0.20056589074405837,18.574026472878295
196.0,22.711318294497747,9.121979724383255,0.19854908401211538,18.533088890554748
197.0,23.545056945614334,8.976857735218516,0.19666074661526953,18.494702636124682
198.0,24.316127150831118,8.860770893260181,0.19489965434616457,18.45885159092652
199.0,25.021076382839595,8.77327666216831,0.19326460896131795,18.42552017937997
200.0,25.657485656186793,8.713721271655944,0.19175444422217325,18.394693367547795
201.0,26.223846501017512,8.681238364680999,0.19036803168368313,18.36635665226072
202.0,26.71956846435407,8.674761545237057,0.18910428143826316,18.340496031545836
203.0,27.144822841485997,8.693007867789794,0.1879621527989039,18.317098056386875
204.0,27.500389908824996,8.734518506074869,0.18694065307296712,18.296149761456782
205.0,27.787642007573655,8.797662835607252,0.18603884346404828,18.27763869691727
206.0,28.008454962516602,8.880668760617075,0.18525584008264276,18.261552907444923
207.0,28.165120195363354,8.981650753376472,0.18459081779424796,18.24788093364316
208.0,28.260284837867072,9.098645136933857,0.1840430117189527,18.236611800911277
209.0,28.29690454698816,9.229645554380719,0.18361171835907888,18.227735011528033
210.0,28.278197640534373,9.37263867426483,0.1832962966259471,18.22124053801844
211.0,28.207597881838865,9.525639408426114,0.1830961682979019,18.217118816919537
212.0,28.088709599437145,9.686724616514216,0.18301081920973902,18.21536074648148
213.0,27.92526860414542,9.854060984880158,0.1830397988314624,18.215957676057897
214.0,27.721097373125094,10.025926704830018,0.18318271918853746,18.2189013969251
215.0,27.480061978299865,10.200726879582058,0.18343925393246807,18.224184135037326
216.0,27.20602475035421,10.377002794130556,0.18380913690032957,18.231798543794813
217.0,26.902806681186437,10.55343578105765,0.18429216115817593,18.241737700626427
218.0,26.574167894140192,10.728843335729854,0.18488817703666624,18.253995097335945
219.0,26.223773811142987,10.902171221725844,0.18559708911099546,18.268564629663143
220.0,25.855173182082215,11.0724839274238,0.18641885353536675,18.28544058949426
221.0,25.471784714755803,11.238953695748943,0.18735347518168027,18.304617657217918
222.0,25.076850768417614,11.400849906951587,0.18840100389648365,18.326090896135145
223.0,24.673486050029418,11.557530847301262,0.18956153238425416,18.349855747009666
224.0,24.264642658179337,11.708434312604417,0.190835190550104,18.37590801133598
225.0,23.853091006054868,11.85307225110639,0.19222214132001653,18.404243843885986
226.0,23.441416609179875,11.99102951972951,0.193722577104689,18.43485975339983
227.0,23.03203161493153,12.121963263882208,0.195336715108846,18.467752595424386
228.0,22.62717659225045,12.24559895041932,0.19706479109512137,18.50291954795027
229.0,22.228868049332952,12.361730884027407,0.19890705441319192,18.540358111698843
230.0,21.838938298497215,12.470227707706332,0.20086376366002356,18.580066122234953
231.0,21.459064972444303,12.571024078330966,0.20293517991870683,18.622041709291324
232.0,21.09068164086328,12.664119559435266,0.20512156092258577,18.66628330144717
233.0,20.735071063181977,12.749584256598268,0.20742315477386647,18.71278965057715
234.0,20.39336053953753,12.827539431794856,0.20984019574822865,18.76155975688612
235.0,20.066425555906648,12.89816677009338,0.21237289338312929,18.81259294430927
236.0,19.755126573575417,12.961693938135138,0.21502143234218613,18.86588877942108
237.0,19.460002957082057,13.018391367783446,0.21778595817280882,18.92144713424052
238.0,19.181673252691137,13.068567077270227,0.220666581464503,18.979268103235615
239.0,18.92043920530154,13.112562341650532,0.22366335047761263,19.03935212809482
240.0,18.676576076498367,13.150732384005488,0.22677628522169668,19.101699775696023
241.0,18.450356285204883,13.183473293412685,0.2300053084586328,19.16631203360023
242.0,18.24179537520661,13.211177317886701,0.233350310027377,19.233190015754662
243.0,18.051051263762336,13.234267007008983,0.2368110787021665,19.302335171769204
244.0,17.878033031976763,13.253161571985423,0.2403873304549797,19.373749214279357
245.0,17.72273386486992,13.268293439289979,0.24407870854835959,19.44743404532479
246.0,17.585050692702996,13.280096729023649,0.2478847232282698,19.52339197973016
247.0,17.464830727972814,13.289003276592991,0.2518048423308351,19.60162544696565
248.0,17.36196888466747,13.29544970488214,0.2558383630956707,19.68213732425313
249.0,17.276255484218748,13.299860930757777,0.25998452708433395,19.764930695683343
