Time,J,A,S,tau
0.0,100.0,10.0,0.5837260140677213,26.70542781526196
1.0,99.15870359343057,9.205994700404272,0.5815676337186519,27.61305740682976
2.0,98.33526188959816,8.489345695777686,0.5794244539419228,28.5230299038266
3.0,97.52949098478004,7.842418677347232,0.5772964232866278,29.435157805674514
4.0,96.74049353001436,7.258095886398415,0.5751833758378826,30.34931269825955
5.0,95.96741262755954,6.730006191736903,0.5730851129592304,31.26537164931087
6.0,95.20942972327123,6.2524638558078545,0.5710014061631361,32.18321690950062
7.0,94.46576207751347,5.820376921165194,0.5689320002105887,33.10273555187035
8.0,93.73566096347943,5.429196287194151,0.5668766155763444,34.02381920579802
9.0,93.01840935573094,5.074852160852578,0.5648349511827745,34.94636371933759
10.0,92.31332022206156,4.753697269870993,0.5628066866232031,35.87026889906161
11.0,91.6197346861718,4.462471620108978,0.5607914843918941,36.79543823034337
12.0,90.93702018194158,4.198251677776722,0.5587889920137059,37.721778594689845
13.0,90.26456902866164,3.958417865759041,0.5567988438559798,38.64920003944408
14.0,89.60179678117544,3.740626898867662,0.5548206629839803,39.57761551700876
15.0,88.94814073064543,3.5427760261616297,0.5528540628472532,40.50694064213193
16.0,88.30305857123523,3.3629776655139993,0.5508986488164664,41.43709346851585
17.0,87.66602712643804,3.199540763122223,0.548954019637367,42.36799427068332
18.0,87.03654101411325,3.050949428521857,0.5470197688292326,43.29956531824779
19.0,86.41411146941718,2.915842381992065,0.5450954859625353,44.23173066773437
20.0,85.7982652040063,2.79299670817234,0.5431807578655011,45.16441595774343
21.0,85.18854336048607,2.6813164289240117,0.5412751697591616,46.09754821292942
22.0,84.58450044448352,2.5798166599862578,0.5393783063405498,47.03105564510771
23.0,83.9857033421663,2.4876132879043737,0.5374897528042,47.964867462157606
24.0,83.39173038105956,2.4039120936473566,0.5356090958197598,48.89891367960765
25.0,82.8021704085754,2.3280013260696846,0.5337359244598434,49.833124933880626
26.0,82.21662192752062,2.259241060800473,0.5318698310970739,50.76743229869587
27.0,81.63469227441975,2.1970566072327036,0.5300104122829203,51.70176710227406
28.0,81.0559967916801,2.1409335231687376,0.5281572695761855,52.63606074549158
29.0,80.48015806757743,2.0904097682655305,0.5263100103793857,53.570244520437534
30.0,79.90680517519017,2.0450698615469163,0.5244682487379926,54.5042494294257
31.0,79.33557297252555,2.004545064678548,0.5226316061833883,55.438005999850574
32.0,78.76610137448063,1.9685028104517652,0.5207997125002366,56.3714441025594
33.0,78.19803470491591,1.9366475998690926,0.5189722066433888,57.304492753723125
34.0,77.63102096699195,1.9087144859774323,0.5171487373843464,58.23707994315665
35.0,77.06471123335076,1.884466103203978,0.5153289641406267,59.16913244616652
36.0,76.49875903541933,1.863697799162405,0.5135125579944609,60.100575606023206
37.0,75.93281973343304,1.846223741206329,0.5116992026357939,61.03133311972456
38.0,75.36654986974166,1.831877837553218,0.5098885949849161,61.96132686773686
39.0,74.79960661728119,1.8205199745523541,0.5080804456273723,62.890476783547626
40.0,74.23164711434394,1.8120284049119038,0.5062744820014492,63.8187002948906
41.0,73.6623280862203,1.8062870634528514,0.5044704454313854,64.74591270863218
42.0,73.09130487263313,1.8032172020842134,0.5026680970369397,65.67202621920791
43.0,72.51823147497731,1.802723654288382,0.5008672136748982,66.59695048681131
44.0,71.94275903936928,1.804764232174045,0.4990675950253074,67.52059141870578
45.0,71.3645372530725,1.8092532949842293,0.49726905439235386,68.44285265615855
46.0,70.78320968265488,1.8161785567933946,0.49547144111058394,69.36363168084007
47.0,70.1984186831826,1.8255318289225848,0.4936746119254001,70.282824700141
48.0,69.6098010294548,1.8372578005308284,0.49187845656165896,71.20032216234151
49.0,69.01698795794623,1.8513743698156706,0.49008289061360255,72.11600993823087
50.0,68.41960719722866,1.8678476756175446,0.48828784973470357,73.02977031609934
51.0,67.81727622208862,1.8867134904573628,0.48649331491359815,73.94147739552345
52.0,67.20961020370662,1.9080006902076758,0.4846992782718942,74.85100325015519
53.0,66.59621438953188,1.9317123378325138,0.48290577793145234,75.75821151865014
54.0,65.97668780865357,1.9578941984290996,0.48111287754833193,76.6629611296364
55.0,65.35061981326132,1.9865751367356872,0.4793206837684054,77.5651030040229
56.0,64.7175922122276,2.017818828780254,0.47752933387757324,78.46448233984512
57.0,64.07717633310263,2.0516669716908527,0.4757390111857404,79.36093564830057
58.0,63.42893462809227,2.0882002296754187,0.47394993443826217,80.25429274410423
59.0,62.77241843734692,2.127472543607334,0.47216237118790144,81.14437411096121
60.0,62.107168827300455,2.1695812781842063,0.4703766297625479,82.03099243876197
61.0,61.43271529976806,2.214592189918806,0.46859306982625637,82.91395047387124
62.0,60.74857541754793,2.2626213098664953,0.4668120984989494,83.79304178273878
63.0,60.05425513334388,2.313750889454315,0.4650341752563046,84.66804965286259
64.0,59.349248154678065,2.3680946854630145,0.46325981026462787,85.53874742380148
65.0,58.63303392138881,2.4257634247866573,0.461489576438978,86.40489596771766
66.0,57.905081005762106,2.486873556609229,0.45972409438241724,87.26624662787826
67.0,57.16484194057939,2.5515618766494956,0.4579640549858621,88.12253659165036
68.0,56.411758158569455,2.6199488047812696,0.45621020134553647,88.97349238724367
69.0,55.64525560409478,2.692189962184463,0.454463345180216,89.81882649558818
70.0,54.86474728630752,2.768418488308693,0.45272436190904464,90.65823810116596
71.0,54.069632874377845,2.848797729343611,0.4509941885519237,91.49141350179764
72.0,53.25929702511344,2.933483767088022,0.44927383795452586,92.31802280091995
73.0,52.43311337094884,3.0226365546044023,0.4475643791721632,93.13772397145841
74.0,51.590439879957756,3.11643991515991,0.4458669620351264,93.95015727745971
75.0,50.73062459828045,3.2150526717295427,0.444182794851503,94.7549498375208
76.0,49.85300170176745,3.3186759283725182,0.44251316055021983,95.55171185348433
77.0,48.956895773256164,3.4274777685316287,0.4408594089413558,96.34003778331892
78.0,49.87050149636708,3.7569611424912948,0.4392229550667376,97.11950656703031
79.0,52.13236515153602,4.2303806119176,0.43760527904014174,97.88968097568308
80.0,54.649247418805686,4.71579898227354,0.43600792464407545,98.65010752804936
81.0,57.40319641075726,5.213741744459127,0.434432495448383,99.40031677596961
82.0,60.37431700819519,5.724740031049985,0.432880651126595,100.13982350217458
83.0,63.540749111023366,6.249329162958668,0.4313541030667577,100.86812701646524
84.0,66.87867870081739,6.7880469193552715,0.42985460906894674,101.58471159243032
85.0,70.36238340440889,7.34143158501155,0.42838396715097593,102.28904703777371
86.0,73.96431644144396,7.910019766065293,0.42694400841348445,102.98058940762387
87.0,77.65523236631165,8.494343966814075,0.42553658892091256,103.65878186945223
88.0,81.40435731523274,9.094929922112836,0.42416358056164133,104.32305572721094
89.0,85.17960552581857,9.712293682279737,0.4228268608588646,104.97283161099573
90.0,88.9478427025425,10.346938450115164,0.4215283017136201,105.60752083693075
91.0,92.67519536443703,10.999351172705282,0.42026975707285646,106.22652694005414
92.0,96.32740365482755,11.669998894098585,0.41905304952842415,106.82924738075566
93.0,99.87021326029478,12.359324878684523,0.4178799558673774,107.41507542279464
94.0,103.26980014157996,13.067744519126446,0.4167521916098464,107.98340217813082
95.0,106.49321980827195,13.79564104695239,0.4156713945877946,108.53361881076849
96.0,109.50887093129329,14.543361068161985,0.41463910763783113,109.06511888847338
97.0,112.2869582706901,15.311209913423232,0.41365676061413514,109.57730086151152
98.0,114.79995849338212,16.099447015438344,0.41272565121632554,110.06957068441179
99.0,117.02303342149489,16.908281010328995,0.4118469263492464,110.54134446752803
100.0,118.9344456298044,17.73786492079175,0.41102156127105316,110.9920513182826
101.0,120.51586070987358,18.588291418344575,0.41025034136198035,111.4211360099025
102.0,121.75267478869824,19.45958752845956,0.4095338390248963,111.82806206288343
103.0,122.63418358291383,20.3517098506712,0.4088723945603042,112.2123145127617
104.0,123.15352232008293,21.26454337090799,0.4082661089117806,112.57340139959375
105.0,123.30811792601278,22.197890533595203,0.40771479476183603,112.91085935248672
106.0,123.09914476033863,23.151471194254935,0.40721798838220913,113.22425330706417
107.0,122.5316773994238,24.124920987629064,0.4067749106365322,113.51318076776835
108.0,121.61419163602777,25.117782800711662,0.40638446967456543,113.77727243156147
109.0,120.35830933055806,26.129511120347775,0.40604524814942905,114.01619364752011
110.0,118.77866576543008,27.159457235016472,0.4057554493809148,114.22965063458692
111.0,116.89209399678327,28.206880362698705,0.4055129407627765,114.41738607708794
112.0,114.71739130242958,29.27093932475981,0.40531521479990734,114.57918346365506
113.0,112.27480122655385,30.350692496218997,0.40515938479394226,114.71486766319836
114.0,109.58554093557174,31.445096489290076,0.4050421789405766,114.82430561878282
115.0,106.87246546378293,32.35294503668559,0.4064649960570706,113.99847436300992
116.0,105.89071873321983,31.46274212494307,0.42406198053235317,103.28301216268157
117.0,104.9229669469934,30.58392788683478,0.445960957751201,89.97237101560493
118.0,103.97166048696711,29.716736560285725,0.4694468153867161,76.42959049552455
119.0,103.0393550509626,28.861398480214785,0.4908976794268715,65.19320031448503
120.0,102.12870656963206,28.018139403604216,0.5088000875127018,56.72561605404803
121.0,101.24246421130078,27.187179822483248,0.5233324397737235,50.3971552842029
122.0,100.38346133896003,26.36873426236247,0.5351095268212643,45.55231857609467
123.0,91.98611915534786,32.76446182125767,0.5446985760384564,41.733538844812614
124.0,80.22868715436428,41.767113215727825,0.5525374248536619,38.64336183153372
125.0,68.23134483319444,50.6564756151612,0.558951847573642,36.08725828233471
126.0,56.93977778712574,58.69218026323589,0.5641852011168853,33.93443947741835
127.0,46.79630218565988,65.51086911868673,0.5684221901089928,32.09417435080579
128.0,37.966109394096506,70.98227318186164,0.571805749364417,30.501595737766653
129.0,30.45900641850819,75.1178841277094,0.574448583099054,29.109082727769707
130.0,24.197586538086192,78.01145078927482,0.5764412575325997,27.88080462972297
131.0,19.058662385463123,79.79978440832386,0.577857770895129,26.789233850893595
132.0,14.89958038519047,80.63704478874541,0.5787594950624977,25.812838586691228
133.0,11.574827634477504,80.67838428647059,0.5791980639333715,24.934496246151156
134.0,8.946162533500903,80.0700022535034,0.5792174735866724,24.140397102152924
135.0,6.88827618217544,78.94367746685676,0.5788556581506029,23.419260526755927
136.0,5.291421086716797,77.41433907595466,0.5781456811572803,22.76176723033964
137.0,4.062037361093309,75.57963550859391,0.5771166491009067,22.16014067492426
138.0,3.0009917164790063,73.64161667211542,0.5757944231110579,21.60783206712736
139.0,1.9409700082595722,71.76877619834148,0.5742021760594955,21.099282612343675
140.0,0.8798848461598785,69.9639149630573,0.5723608332025899,20.629740547615988
141.0,0.0,68.22935314947925,0.5702894365074979,20.19511340323594
142.0,0.0,66.56685534255193,0.5680054224051976,19.79185710676861
143.0,0.0,64.46691621404803,0.565524859749272,19.416885940508383
144.0,0.0,61.95040634542333,0.5628626405415805,19.067499425539886
145.0,0.0,59.39511605038992,0.5600326381516594,18.741323553518086
146.0,0.0,56.89233546687726,0.5570478383079653,18.436262548428946
147.0,0.0,54.459354048097616,0.5539204482819037,18.15045917005576
148.0,0.0,52.09929868911126,0.5506619892369162,17.88226132627754
149.0,0.0,49.81244250264856,0.5472833680736916,17.630196281563233
150.0,0.0,47.59836026205778,0.5437949540316385,17.392945307690017
151.0,0.0,45.4563726757797,0.5402066195584878,17.169325528075976
152.0,0.0,43.38567858795551,0.53652779581967,16.95827235462985
153.0,0.0,41.38539174371738,0.5327675069158453,16.75882636165784
154.0,0.0,39.45456070160772,0.5289344073205515,16.57012037843826
155.0,0.0,37.59216678428297,0.5250368079063433,16.391369373613863
156.0,0.0,35.7971230469257,0.5210827016906223,16.22186115139101
157.0,0.0,34.0682885446692,0.5170797842335024,16.06094857392951
158.0,0.0,32.404472018195115,0.5130354714417753,15.908042653578756
159.0,0.0,30.804481299341003,0.5089569150151142,15.762606503027598
160.0,0.0,29.267198763306634,0.504851015459825,15.624150052202127
161.0,0.09580669812537507,27.7914720634766,0.5007244334186669,15.492225370033257
162.0,0.40955144629527934,26.376143723406837,0.4965835993743593,15.366422538132719
163.0,0.7795416425814169,25.020089865244824,0.49243472206870625,15.246365994349258
164.0,1.214453413648589,23.72224813322368,0.48828379579715614,15.131711277357185
165.0,1.7232405200646783,22.48164626831723,0.4841366067843457,15.022142127585749
166.0,2.3148538567156374,21.297433801740343,0.4799987387522899,14.91736790077575
167.0,2.9978884516132522,20.168916901888377,0.475875577933779,14.817121242513734
168.0,3.780160929145819,19.09559628253778,0.4717723174364606,14.72115601933186
169.0,4.668221559586202,18.07720631352858,0.4676939613136058,14.629245443104839
170.0,5.666804220788292,17.113753137014935,0.4636453281639647,14.541180389322435
171.0,6.778267593298208,16.205552303166897,0.45963105473752636,14.45676787619408
172.0,8.001998148743464,15.353257776295106,0.4556555990521442,14.375829690426086
173.0,9.333999308811345,14.557897230129225,0.4517232437270613,14.298201191627552
174.0,10.766165392251981,13.820855974301697,0.44783809817331016,14.2237301183824
175.0,12.286191574006878,13.143887111601384,0.44400410276699737,14.152275587425413
176.0,13.877306290002917,12.529073088017265,0.44022503105601135,14.083707173071279
177.0,15.51846248701393,11.978781724079127,0.4365044927009128,14.01790409056019
178.0,17.18462167001065,11.495577515640168,0.4328459370090543,13.954754378628918
179.0,18.847426854680293,11.082118535926814,0.4292526553245398,13.89415424885682
180.0,20.47597846778985,10.741009949712293,0.4257277848750089,13.836007399647404
181.0,22.037913598572672,10.47463975536842,0.4222743112260119,13.780224478095334
182.0,23.500434359310713,10.28497821852665,0.4188950723568099,13.726722503910027
183.0,24.831520827671945,10.173363003351497,0.41559276121634503,13.675424422842422
184.0,26.00095843288349,10.140267497396554,0.4123699300221811,13.626258621590502
185.0,26.98151331137297,10.185068053918547,0.4092289929316962,13.579158556137015
186.0,27.74990128043962,10.30582969800363,0.4061722305887497,13.534062340491971
187.0,28.287947792881514,10.49911298735813,0.4032017927752714,13.490912440671787
188.0,28.583618336002797,10.759856548756959,0.40031970298788266,13.449655332293043
189.0,28.63187191947729,11.081315422367057,0.3975278620193884,13.410241217338076
190.0,28.43539664212632,11.455096137307814,0.39482805140605925,13.37262377082867
191.0,28.00486519591735,11.871301539275995,0.392221937448454,13.336759891505432
192.0,27.358597460432488,12.318773757108382,0.38971107554914486,13.302609465870002
193.0,26.521754074212527,12.785411010523115,0.3872969136042343,13.270135176416007
194.0,25.52500112244874,13.258547061672258,0.3849807956001048,13.239302317708875
195.0,24.40281279219615,13.725349205209453,0.3827639661312545,13.210078606208638
196.0,23.191741924694846,14.173205241297852,0.3806475734947992,13.18243403842825
197.0,21.928727246829023,14.590078578288667,0.37863267389008515,13.156340732728582
198.0,20.649633929318483,14.964836397272013,0.37672023464218096,13.131772803970867
199.0,19.388112900894452,15.287566362157632,0.3749111379628652,13.108706237314525
200.0,18.17470466096169,15.549886447988564,0.3732061844303519,13.087118773619384
201.0,17.036196338250424,15.745275131973345,0.37160609601164196,13.066989813112414
202.0,15.995231139689704,15.869368475874406,0.37011151963969713,13.048300314097611
203.0,15.070059013271013,15.920200076888536,0.36872302995999834,13.0310327114154
204.0,14.274557773559467,15.898322999767403,0.3674411323669048,13.01517083837667
205.0,13.618381756723984,15.80674078075243,0.36626626563990416,13.000699853067383
206.0,13.107377318114295,15.650675305678938,0.3651988047389777,12.987606174412312
207.0,12.744006801830606,15.437161219579464,0.3642390626369443,12.975877427329118
208.0,12.52796250006772,15.174544676308905,0.3633872930224041,12.965502386450591
209.0,12.456664827726357,14.87195097268123,0.36264369212272235,12.956470930195513
210.0,12.525696133018084,14.538792493911087,0.36200840048805527,12.948773998928264
211.0,12.729109517170563,14.184363278962454,0.36148150456722417,12.942403558002505
212.0,13.059606475793949,13.817541996820266,0.36106303807119305,12.93735256544352
213.0,13.508607890368053,13.44660215379926,0.3607529829279592,12.933614945331337
214.0,14.066234494477866,13.079119497739212,0.3605512707843479,12.93118555918352
215.0,14.721250659308403,12.72193898540361,0.36045778325064337,12.93006019283105
216.0,15.461044236429721,12.381194788765983,0.36047235226138313,12.930235539200863
217.0,16.271627565715466,12.062355118236647,0.36059476063936263,12.93170918342278
218.0,17.13768684289389,11.770270193455016,0.3608247422196482,12.934479595198164
219.0,18.04272432263897,11.509214360080255,0.36116198142297234,12.93854612816169
220.0,18.969312044390865,11.282921022329829,0.36160611290097444,12.943909016226668
221.0,19.899376089202473,11.094597552210372,0.3621567211732594,12.95056937434759
222.0,20.81453394527293,10.946918935925376,0.36281333983662467,12.958529206649912
223.0,21.69654436556015,10.842009122837991,0.36357545024450194,12.967791418497704
224.0,22.527733133180774,10.781410256990547,0.3644424806098683,12.97835982569513
225.0,23.291413297999398,10.766041275923364,0.3654138047650275,12.990239170733817
226.0,23.97231775323956,10.796151862107088,0.3664887404464739,13.00343514689033
227.0,24.557046397084285,10.871286566235467,0.36766654755408135,13.017954420699828
228.0,25.03442925080487,10.990255877963907,0.3689464264991407,13.033804657966925
229.0,25.395867765566525,11.15112245748714,0.3703275162044179,13.050994555639843
230.0,25.635650622981426,11.351207104677693,0.371808891653605,13.06953388051136
231.0,25.75110079593781,11.587116962829136,0.3733895621114215,13.08943350481001
232.0,25.742697290202482,11.854797960389309,0.37506846861429405,13.110705451509965
233.0,25.614057282642,12.149610065850597,0.37684448155066586,13.133362942185197
234.0,25.371790241427625,12.466422163436535,0.37871639816097075,13.157420449534024
235.0,25.025227924638475,12.799722918144866,0.38068293997558517,13.182893754582418
236.0,24.586045764531903,13.143743185032388,0.3827427499479574,13.209800011962477
237.0,24.0677942046555,13.492586335799661,0.384894390645664,13.238157806292714
238.0,23.485405272993834,13.840359855332764,0.38713634074139075,13.267987236420469
239.0,22.854653954364373,14.181309047053627,0.38946699252832395,13.299309990572237
240.0,22.19164437708889,14.50994810068278,0.3918846494229711,13.332149428166694
241.0,21.512337258655524,14.821187981370066,0.3943875233879419,13.366530669122705
242.0,20.832132212893427,15.11045884485458,0.3969737323912943,13.402480689577265
243.0,20.165517777361778,15.37382387976765,0.3996412979304257,13.440028424209949
244.0,19.525787256743786,15.608080092880563,0.4023881424811678,13.479204878733132
245.0,18.924821477827273,15.810836797756744,0.40521208725273444,13.520043245556613
246.0,18.372956998992723,15.980567432853606,0.40811085015193105,13.562579024872718
247.0,17.878916161692597,16.116629156158115,0.4110820437723011,13.606850155473309
248.0,17.449805548586426,16.2192479401382,0.4141231736015487,13.652897151323105
249.0,17.09114187718935,16.28946960498928,0.4172316360902438,13.700763254955566
250.0,16.806941910455716,16.329078435163183,0.42040471739632546,13.7504945864799
251.0,16.599822128028904,16.340493347362585,0.42363959206047114,13.80214030925262
252.0,16.471117400928485,16.3266517155058,0.42693332111529725,13.855752830760533
