Time,J,A,S,tau
0.0,100.0,10.0,0.9950673217380087,29.495846530472033
1.0,99.99509382043252,9.04695880342169,0.9950634199897358,30.493766074782826
2.0,99.9904219943005,8.184629930165782,0.9950596846011323,31.49188676030207
3.0,99.98613280310929,7.404636318255508,0.9950561026770876,32.49016805530807
4.0,99.98218609297763,6.699110416057991,0.9950526649177988,33.488592807329645
5.0,99.9785462770471,6.060930424080048,0.9950493625297536,34.48714583887534
6.0,99.97518180526198,5.483663069362491,0.9950461872058733,35.48581371645347
7.0,99.9720646432034,4.961484453059731,0.9950431310978006,36.48458452389013
8.0,99.96916986860506,4.489133949591361,0.995040186795273,37.48344768679609
9.0,99.96647527516271,4.061848709251415,0.9950373472991838,38.482393800496254
10.0,99.9639610641077,3.675326669042566,0.9950346060011237,39.48141449605323
11.0,99.96160954221652,3.325672471251786,0.9950319566579547,40.48050230932063
12.0,99.95940488506542,3.0093676899073962,0.9950293933721202,41.47965057827652
13.0,99.95733290613191,2.7232262670696823,0.9950269105681245,42.47885334308011
14.0,99.95538087423705,2.4643704686827683,0.9950245029739546,43.47810526705151
15.0,99.95353733637829,2.230194235629125,0.995022165599622,44.47740156013394
16.0,99.95179197624151,2.018343701876169,0.9950198937198597,45.47673791777696
17.0,99.95013547770618,1.8266871115353094,0.9950176828547312,46.47611046209399
18.0,99.94855941456413,1.653298980947964,0.9950155287536495,47.475515694334206
19.0,99.94705614485538,1.4964354505548463,0.9950134273779552,48.474950449436136
20.0,99.9456187243534,1.354521366674954,0.9950113748862286,49.474411858836085
21.0,99.9442408242947,1.2261301222817578,0.9950093676186819,50.473897315172664
22.0,99.94291666299495,1.1099730859056245,0.995007402083685,51.47340444297074
23.0,99.94164094133264,1.0048831425244624,0.9950054749437822,52.47293107103902
24.0,99.9404087882052,0.9098060157237629,0.9950035830033255,53.47247520915795
25.0,99.93921570946902,0.8237868526030301,0.9950017231959102,54.47203502629974
26.0,99.93805754394718,0.7459630783901233,0.9949998925729922,55.4716088318877
27.0,99.93693042252816,0.6755534809402385,0.9949980882925332,56.47119505840579
28.0,99.93583073218282,0.6118523101069242,0.9949963076084708,57.470792246123246
29.0,99.93475508266695,0.5542204110956317,0.9949945478603661,58.470399028985554
30.0,99.93370027655794,0.5020803384509259,0.9949928064635915,59.470014121940075
31.0,99.93266328155394,0.45490916589011177,0.9949910808997795,60.469636309239476
32.0,99.93164120494674,0.4122344301946822,0.9949893687075956,61.46926443368171
33.0,99.93063126990786,0.37362831052159845,0.9949876674737917,62.468897386630445
34.0,99.92963079310672,0.33870425344145694,0.9949859748244313,63.46853409861068
35.0,99.92863716365476,0.30711226912546524,0.9949842884163613,64.46817353047311
36.0,99.92764782278094,0.2785361173150812,0.9949826059287572,65.46781466487532
37.0,99.92666024429116,0.2526895129512092,0.9949809250548308,66.46745649809833
38.0,99.92567191534343,0.2293137755932492,0.9949792434935675,67.46709803200005
39.0,99.92468031738686,0.20817477448382574,0.9949775589414893,68.46673826603893
40.0,99.92368290714545,0.18906096210713896,0.994975869084457,69.46637618931547
41.0,99.92267709703866,0.17178091963861328,0.9949741715893107,70.46601077237412
42.0,99.92166023549103,0.15616170991607856,0.9949724640956082,71.46564095895253
43.0,99.92062958580705,0.14204690978904327,0.9949707442069661,72.46526565712003
44.0,99.91958230487482,0.12929522953172798,0.9949690094826037,73.46488373033246
45.0,99.91851541936944,0.11777893969632898,0.9949672574282035,74.4644939874229
46.0,99.917425801808,0.10738271351996288,0.9949654854871307,75.46409517251162
47.0,99.91631014278136,0.09800237327434339,0.9949636910306275,76.46368595328832
48.0,99.91516492313502,0.08954391997798017,0.9949618713485732,77.46326490924693
49.0,99.91398638066542,0.08192253857566384,0.9949600236388215,78.46283051758343
50.0,99.91277047693141,0.07506178563375472,0.9949581449973645,79.46238113910742
51.0,99.91151285647712,0.06889280453111561,0.9949562324066195,80.46191500091608
52.0,99.91020880639935,0.06335364708517181,0.9949542827248524,81.4614301791685
53.0,99.90885320577173,0.058388646061597466,0.9949522926732594,82.46092457752503
54.0,99.90744047511801,0.05394789975577692,0.9949502588243614,83.46039590555014
55.0,99.90596451367534,0.04998671950195689,0.994948177587924,84.45984165188155
56.0,99.90441863396957,0.046465270144507735,0.994946045197707,85.45925905618655
57.0,99.90279548667205,0.043348067378196145,0.9949438576970757,86.45864507691603
58.0,99.90108697147507,0.040603748362051016,0.9949416109227421,87.45799635302266
59.0,99.8992841456274,0.038204720976559,0.9949393004901125,88.45730916458457
60.0,99.89737711054418,0.03612687950102756,0.9949369217753915,89.45657938397736
61.0,99.89535488765874,0.034349437420992654,0.9949344698979752,90.45580242232602
62.0,99.8932052794822,0.03285472865495892,0.9949319397024278,91.45497316950186
63.0,99.89091471140678,0.03162801264479057,0.9949293257394833,92.45408592573581
64.0,99.88846804367033,0.030657432061677137,0.9949266222446841,93.45313432027879
65.0,99.88584836593834,0.029933861331177387,0.9949238231179911,94.45211122241177
66.0,99.88303676101121,0.029450908891651383,0.9949209219021667,95.4510086389991
67.0,99.88001207905508,0.02920475158219088,0.9949179117667922,96.4498176163965
68.0,99.87675043327337,0.02919498489094403,0.9949147854564634,97.44852802204632
69.0,99.87322515380083,0.02942332586164246,0.9949115353132276,98.44712852330221
70.0,99.86940615167492,0.029894583869038406,0.994908153218262,99.44560631167641
71.0,99.86525954677755,0.030616755617819954,0.9949046305809017,100.4439469405032
72.0,99.86074709793299,0.03160100462857657,0.9949009583105247,101.44213407677776
73.0,99.85582559988532,0.032862132164781045,0.9948971267944804,102.44014923823197
74.0,99.85044619590214,0.03441880779063792,0.9948931258770403,103.43797149343486
75.0,99.84455355317797,0.03629393130267296,0.9948889448369693,104.43557710190606
76.0,99.83808495508286,0.03851513679671983,0.9948845723702814,105.4329391176016
77.0,99.83096919563559,0.041115342501230986,0.9948799965717613,106.43002690589086
78.0,99.82312536749644,0.044133443648847,0.9948752049245682,107.42680561356353
79.0,99.81446149360374,0.04761494995235271,0.9948701842955135,108.42323557013994
80.0,99.80487280601888,0.051612994158913905,0.9948649209298874,109.41927153478494
81.0,99.7942399624936,0.05618936202249883,0.9948594004631631,110.41486191519137
82.0,99.78242682652242,0.06141560914542162,0.9948536079358731,111.40994779524473
83.0,99.76927799326037,0.06737463151615976,0.9948475278238045,112.4044618507462
84.0,99.7546159688874,0.07416207151651295,0.9948411440832412,113.39832711273534
85.0,99.73823780408193,0.08188842331020141,0.9948344402115077,114.39145549115223
86.0,99.71991137019965,0.09068093561946075,0.9948273993318913,115.38374614094579
87.0,99.69937101120273,0.10068629058396211,0.9948200043018062,116.3750835538305
88.0,99.67631244288975,0.11207346415530807,0.9948122378516513,117.36533531908863
89.0,99.65038713039847,0.12503685259680267,0.9948040827593225,118.3543496542655
90.0,99.62119570324296,0.1398001742884237,0.9947955220645152,119.34195251261959
91.0,99.58828029877537,0.15662075982446977,0.9947865393331254,120.3279442190286
92.0,99.55111615798668,0.17579423489406654,0.9947771189728094,121.31209577603936
93.0,99.50910178905563,0.19766030478202024,0.9947672466123908,122.29414453974314
94.0,99.46154768878009,0.2226089428185644,0.9947569095556802,123.27378926054179
95.0,99.40766403874781,0.25108718775130356,0.9947460973041883,124.25068467145167
96.0,99.34654637535361,0.2836074227773316,0.9947348021743302,125.22443518447382
97.0,99.2771594746487,0.3207559199295583,0.994723020012319,126.1945878001383
98.0,99.19831996452062,0.363202221560928,0.9947107509915918,127.16062445514255
99.0,99.11445244800571,0.4198228977013379,0.9946980005378655,128.12195315513847
100.0,99.04697167531563,0.5191022804089858,0.9946847803383309,129.0778985295115
101.0,98.97630449746711,0.6321613274121507,0.9946711094614273,130.0276913655097
102.0,98.90308550921192,0.7609497711461369,0.9946570155646918,130.9704573361477
103.0,98.82825361652527,0.907676836382465,0.9946425361728406,131.905204995698
104.0,98.75313153637212,1.0748384323130038,0.9946277199853263,132.83081331121633
105.0,98.6795186146496,1.2652449606943053,0.9946126281790055,133.74601884383313
106.0,98.60979616938101,1.4820487601481467,0.994597335636551,134.64940300383716
107.0,98.54704289637579,1.7287699605707854,0.9945819320112496,135.53937991120344
108.0,98.49515517480738,2.0093194243412973,0.9945665225239452,136.4141854356202
109.0,98.45896339921902,2.328016904855065,0.9945512283545113,137.2718682315138
110.0,98.44432937466111,2.6896022668851587,0.9945361864673208,138.11028371578914
111.0,98.45820483258214,3.099237416926402,0.9945215486921131,138.92709201382866
112.0,98.50862048053716,3.562496243010398,0.9945074798599296,139.7197610698526
113.0,98.60456704320376,4.08533993486633,0.9944941547942348,140.48557608375964
114.0,98.7557211644173,4.674075221775395,0.9944817539644574,141.22165636050264
115.0,98.97196167467403,5.3352930762788855,0.9944704576387561,141.92498067794625
116.0,99.26261974136226,6.075787128594137,0.9944604384314105,142.59242151375383
117.0,99.63542776933085,6.90245140822879,0.9944518522980788,143.2207883725681
118.0,100.09512268390425,7.822158571105714,0.994444827831834,143.80687959133087
119.0,100.64178266504001,8.841622583165886,0.9944394545588052,144.34754116208876
120.0,101.26891485101808,9.967248367960144,0.9944357698223362,144.83973117588462
121.0,101.96161016896225,11.204980793600921,0.9944337458724816,145.28058487087728
122.0,102.69485585355292,12.560150539444559,0.9944332761475494,145.66748085152528
123.0,103.4325858713895,14.037335936699275,0.9944341628498898,145.99810070437724
124.0,104.12775773880918,15.640246165348389,0.9944361059624548,146.27047928283207
125.0,104.72376996718704,17.371628620079772,0.9944386937352074,146.48304443281765
126.0,105.15746362642986,19.233210455109187,0.9944413955855786,146.63464189306296
127.0,105.36358605841322,21.225675630679884,0.9944435574438222,146.72454469721865
128.0,105.28029110835146,23.348677608154723,0.994444399557409,146.75244700016657
129.0,104.85494035379259,25.600885235347263,0.9944430165560411,146.71844340653186
130.0,104.04916866008318,27.980059172537285,0.9944383797733273,146.62299499475466
131.0,102.84236717881801,30.48314748975603,0.9944293406625303,146.46688684537816
132.0,101.23283816064973,33.10639695383668,0.9944146351057169,146.25117866073668
133.0,99.23628581759466,35.84547553124834,0.99439288920497,145.97715118157964
134.0,96.88233505613208,38.69558980336563,0.9943626238711457,145.64625343660973
135.0,94.20955966127038,41.651600594527544,0.9943222594018285,145.26005207595594
136.0,91.26019255731867,44.70812871397015,0.9942701194170329,144.82018446411152
137.0,88.07546351475264,47.8596483140313,0.9942044338083215,144.32831732110617
138.0,84.69222443087678,51.10056629128345,0.9941233406663377,143.78611150265212
139.0,81.14110631023927,54.42528722492165,0.9940248871723455,143.19519314854696
140.0,77.44606891774659,57.82826424147299,0.9939070295085531,142.55713103771527
141.0,73.6249669616611,61.304036526192895,0.9937676320852538,141.87341989520772
142.0,71.02529964882437,63.51532983420748,0.9940751814067672,35.92150409205834
143.0,66.55616326375431,67.56008297499139,0.9940132479267367,27.827798464059722
144.0,60.43743826925901,73.20506346008122,0.9938268505230606,24.417350998620723
145.0,53.99643953622354,79.11826356628573,0.9935811969976289,22.299425448050844
146.0,48.06432816083479,84.46858125717186,0.9932930285822898,20.792213587023472
147.0,43.114672942701716,88.78570603261414,0.9929691275466392,19.638648748057108
148.0,39.317953928723384,91.90446773587719,0.9926127123920352,18.713901066351692
149.0,36.619893749557974,93.88521550671763,0.992225375578248,17.947988066648524
150.0,34.834461976722714,94.91972357260259,0.9918078538708303,17.297841096462076
151.0,33.72878236359726,95.24562066157749,0.9913603895238292,16.735141512270154
152.0,33.083357094345544,95.08592438321492,0.9908829213231717,16.240354195758183
153.0,32.723324713447646,94.61786331904159,0.9903751942904565,15.79948934200585
154.0,32.52594144511034,93.96563854048308,0.9898368278830387,15.402233391539896
155.0,32.4137399863205,93.20754680911648,0.9892673609382117,15.040802781934202
156.0,32.3422617794117,92.38849251289766,0.9886662833896914,14.709210372257107
157.0,32.286638909806875,91.53357841372315,0.988033059458352,14.402778047995609
158.0,32.23786105704254,90.65195582888448,0.9873671457410748,14.117798116743028
159.0,32.19061319059173,89.74907020877345,0.9866680068207617,13.851301959198233
160.0,32.14167310285118,88.82827126015428,0.9859351275660911,13.60088768348294
161.0,32.0900298911161,87.89071672769177,0.9851680241613329,13.364594825355532
162.0,32.03534770566774,86.93692039043019,0.9843662541124933,13.14080950081036
163.0,31.977443058102693,85.96727793428079,0.9835294243698742,12.928191014272764
164.0,31.916164715164786,84.98218913287546,0.9826572037800598,12.725624262086315
165.0,31.851368795173585,83.98208463660961,0.9817493300097687,12.532175372836647
166.0,31.782913661072868,82.96742816014613,0.9808056104972737,12.34704730102623
167.0,31.71065881320481,81.9387210292925,0.9798259441158257,12.169569500402302
168.0,31.634465150513176,80.89650298713046,0.9788103181645561,11.99916810317923
169.0,31.554194970598708,79.8413453991443,0.9777588104816236,11.835343895985483
170.0,31.469713543187467,78.7738625523325,0.9766716222637388,11.677675609577287
171.0,31.380888295112445,77.69469430649114,0.9755490360421607,11.525784533671173
172.0,31.287591870587608,76.60452481001433,0.9743914905615159,11.379352702849236
173.0,31.189699703153497,75.50405860825279,0.9731995002979899,11.238087780786982
174.0,31.087095139132646,74.39404370235494,0.9719737563715564,11.10174278081099
175.0,30.979665187505553,73.27524524981749,0.9707150384742839,10.97008927037728
176.0,30.867306501516133,72.14846498850343,0.9694242854171898,10.842927989221106
177.0,30.749923081554318,71.0145264156654,0.968102588426018,10.720080122819873
178.0,30.62742568407773,69.87427200240573,0.9667511151643833,10.601378550885014
179.0,30.499741003420752,68.72857616471339,0.9653712829165665,10.486680618501369
180.0,30.36679866921269,67.57831879388932,0.9639645484076194,10.375847629681562
181.0,30.22854578385363,66.42440394181823,0.9625325591415259,10.268756677828177
182.0,30.08494361432207,65.2677498403934,0.961077156927502,10.165296693970324
183.0,29.935957113881155,64.1092776930606,0.9596002059786418,10.06535879223507
184.0,29.781577074187165,62.949922860591805,0.9581038148324384,9.968847552913335
185.0,29.621805265055187,61.790625167328166,0.9565902199607882,9.875672977922349
186.0,29.456651304979143,60.63232321181023,0.9550617000001864,9.78574777221331
187.0,29.28615570882213,59.475955197190785,0.9535207820898506,9.698994762678538
188.0,29.110366087024598,58.32245949978242,0.9519700603477704,9.615339034875664
189.0,28.92934488909751,57.172763149244375,0.9504122021972388,9.534709095179647
190.0,28.74318619237269,56.027781377731756,0.9488500808129511,9.457040529453499
191.0,28.551988433741133,54.88842707149845,0.9472865987881406,9.382269864492482
192.0,28.355873297092607,53.75558622984278,0.9457247506248757,9.310337541068067
193.0,28.154991027099502,52.630128497417125,0.9441676683602748,9.241188632418275
194.0,27.949495516734384,51.51291651403183,0.9426184965461798,9.174768774429353
195.0,27.739572426446422,50.40476912323591,0.9410804617295785,9.111027715971021
196.0,27.525430570652386,49.306491366309686,0.9395568584845875,9.049918000172294
197.0,27.307284182897742,48.218871058752185,0.9380509877716505,8.991392853057429
198.0,27.085387068153885,47.1426407763046,0.9365661887054842,8.935409496368441
199.0,26.860009898704924,46.07852564298077,0.9351058166851571,8.881926653337542
200.0,26.631433608496277,45.02721639529426,0.9336732236353372,8.830904142109238
201.0,26.39998490280764,43.98934974838889,0.9322717303608452,8.782305317432648
202.0,26.166001324656847,42.96555869505914,0.9309046490813943,8.736094252873617
203.0,25.92983931884026,41.95642315753524,0.9295752568506597,8.692236641572293
204.0,25.69190387003515,40.96248228313592,0.9282867299593973,8.65070099903437
205.0,25.45260625525649,39.98426975562451,0.9270422306177469,8.611456214205164
206.0,25.212387740212588,39.022253331524595,0.9258448236247765,8.574473253888359
207.0,24.971736306302326,38.07688092622527,0.9246974276660332,8.53972512490735
208.0,24.731143052927468,37.148586683209494,0.9236029454907518,8.507185168526682
209.0,24.491139090049867,36.2377397756701,0.9225640955791878,8.476829098915927
210.0,24.252294942085264,35.34471100783429,0.9215834412933216,8.448633944467794
211.0,24.01518403134256,34.469845588504256,0.9206635032287955,8.422577321053472
212.0,23.780419828732597,33.61344530662692,0.9198065468785556,8.39863912205414
213.0,23.548635158562075,32.77581791181165,0.9190147366588437,8.376799881704295
214.0,23.32047288612721,31.957234034010778,0.9182900493999838,8.35704170667496
215.0,23.096605888416576,31.157974414879526,0.9176342513914022,8.339347919125752
216.0,22.877696585572444,30.37829283157908,0.9170489981439998,8.323702776431178
217.0,22.664424131851938,29.618452070911722,0.9165356433507038,8.310092217813514
218.0,22.457459509435875,28.878709001995333,0.9160954581656546,8.298502720330195
219.0,22.257448186064682,28.159316551639275,0.9157294096379223,8.288922521630331
220.0,22.065038197441364,27.460547195681542,0.9154383178839883,8.281340488326498
221.0,21.880813044778215,26.782656890717366,0.9152227853954075,8.275746852335491
222.0,21.705342697109927,26.1259360725687,0.915083154529857,8.272132922480907
223.0,21.539127558057032,25.490657667158175,0.9150196493928906,8.270490817286474
224.0,21.38259702395135,24.87712194005269,0.9150321589829418,8.270814157702668
225.0,21.23613836415241,24.285629356792967,0.9151204817985676,8.273097034867943
226.0,21.099995053396242,23.71647727479756,0.9152841111222273,8.277335111263879
227.0,20.97438256617522,23.16998346309546,0.9155223880582677,8.283524610136666
228.0,20.85933977989819,22.64643461139887,0.9158344591165657,8.291662967467866
229.0,20.754833203160572,22.146137096282388,0.9162191756155036,8.301748775718394
230.0,20.66075637190394,21.66938214326854,0.9166753456720267,8.313780962201841
231.0,20.57675813728435,21.21640807846718,0.9172014799762553,8.327760140960207
232.0,20.502486663344502,20.787460039947135,0.9177959153399045,8.343687528615238
233.0,20.437424500813503,20.382735735684893,0.9184569035456528,8.361565055977175
234.0,20.380902495361855,20.00236581505898,0.9191824333532445,8.381396082797622
235.0,20.332201731991454,19.64645695321639,0.9199704175584885,8.403184395116668
236.0,20.29044741523204,19.31501535575471,0.920818569071619,8.426935120836236
237.0,20.25475778030418,19.008010991623145,0.9217245055436457,8.452653906461894
238.0,20.224110907096758,18.725298849016657,0.9226857055304128,8.480347590377066
239.0,20.19752760082081,18.466667937071925,0.9236995360209075,8.51002371792034
240.0,20.17392800040915,18.231804183639134,0.9247632805715523,8.541690776794747
241.0,20.152324352892453,18.02028683895124,0.9258741102507098,8.575358214303115
242.0,20.13167911913315,17.831617387082918,0.9270291507439676,8.611036158268073
243.0,20.111090430501246,17.665160074831938,0.9282254356721005,8.64873592712765
244.0,20.089679872934457,17.52022134276345,0.9294599711084519,8.688469357795018
245.0,20.066702820943846,17.39597706180579,0.9307297105624062,8.730249508022801
246.0,20.041498976886235,17.291541912195516,0.9320315883900919,8.774090056112838
247.0,20.013589878411135,17.205931530410666,0.9333625210636849,8.820005815158588
248.0,19.982587220399058,17.13811122208628,0.9347194228439993,8.868012278884105
249.0,19.94830572364211,17.086979338046067,0.9360992194309162,8.91812607291638
