Time,J,A,S,tau
0.0,100.0,10.0,0.6697949336030063,38.58263154351515
1.0,99.77150808594786,8.97709810850107,0.6686137170643012,39.56836548969662
2.0,99.54827357708521,8.060671375117158,0.6674498483656037,40.55493367334721
3.0,99.33036377251469,7.2398037338858146,0.6663026844472599,41.54222272681698
4.0,99.11744956878067,6.504435470387226,0.6651716214628649,42.530172583721765
5.0,98.90922231752515,5.845580717073148,0.6640560518326368,43.518728302501785
6.0,98.7053920283965,5.255202274300003,0.6629553662680268,44.507839564298564
7.0,98.50568576423608,4.726116445020839,0.6618689554709909,45.49746022712336
8.0,98.30984623297694,4.251903345102861,0.6607962115759682,46.4875479352078
9.0,98.11763041991419,3.8268186911707707,0.6597365293459679,47.47806374516298
10.0,97.92880837719775,3.445726926022114,0.6586893071516323,48.46897179705752
11.0,97.7431621477413,3.1040362649619775,0.6576539477833913,49.46023902310202
12.0,97.56048471550795,2.797636824675636,0.6566298590728722,50.45183486848669
13.0,97.3805790822288,2.5228534297829275,0.6556164543801155,51.44373104725509
14.0,97.20325743283198,2.2763983858617203,0.65461315297039,52.4359013230606
15.0,97.0283403206105,2.0553282900178944,0.6536193802459064,53.42832129928254
16.0,96.85565595175585,1.8570105274780908,0.652634567902989,54.420968235723784
17.0,96.68503952587962,1.6790889029260154,0.6516581540128599,55.413820881209716
18.0,96.51633259367529,1.519453568982351,0.6506895829965111,56.406859313785986
19.0,96.34938249044507,1.3762170920345274,0.6497283055650636,57.40006480041241
20.0,96.1840418030442,1.2476895160209407,0.648773778604435,58.39341966640507
21.0,96.02016785275974,1.1323573862607281,0.647825464987553,59.38690717112751
22.0,95.85762223415715,1.0288665921443692,0.6468828333771054,60.380511397373056
23.0,95.69627037218662,0.9360043239171218,0.6459453579862057,61.374217146337195
24.0,95.53598109363321,0.8526842534788027,0.6450125182937129,62.36800983752185
25.0,95.37662624036675,0.7779347156837074,0.6440837987690087,63.361875418019835
26.0,95.21808028545038,0.7108848922217368,0.6431586885557588,64.35580027363899
27.0,95.06021996911399,0.6507557230177052,0.6422366811449299,65.34977114495597
28.0,94.9029239563594,0.5968493113433541,0.6413172740575658,66.3437750475224
29.0,94.74607249202379,0.5485410950945513,0.6403999684893901,67.33779919282647
30.0,94.58954708144957,0.5052721578627853,0.6394842689939821,68.33183091281032
31.0,94.4332301629813,0.46654209125867063,0.6385696831241067,69.32585758417319
32.0,94.27700479842609,0.4319036506289088,0.6376557211192222,70.31986655360369
33.0,94.12075435843637,0.4009563064398013,0.6367418955641214,71.31384506317475
34.0,93.96436221292093,0.37334279106195717,0.6358277210904633,72.30778017315086
35.0,93.80771142261457,0.3487434284112255,0.6349127140628517,73.30165868631772
36.0,93.65068442140942,0.32687312284887093,0.6339963923108298,74.29546706513482
37.0,93.49316270621797,0.3074776162901548,0.6330782748561151,75.28919135204582
38.0,93.33502650630486,0.29033025122214723,0.6321578816852772,76.28281707929895
39.0,93.17615445325718,0.27522992392300744,0.6312347335366012,77.27632917839388
40.0,93.01642324777167,0.2619977896199259,0.6303083517256834,78.2697118858363
41.0,92.85570728861526,0.25047553429863006,0.6293782580102772,79.2629486339139
42.0,92.69387831027841,0.24052369313178387,0.6284439744910388,80.25602194250405
43.0,92.53080500314908,0.23201944871498453,0.6275050235648827,81.24891330184302
44.0,92.36635259618582,0.2248554846489707,0.6265609279300844,82.2416030401074
45.0,92.2003824283119,0.21893845413570737,0.6256112106524009,83.23407018381525
46.0,92.03275148376036,0.2141879695301753,0.6246553952989959,84.22629230269581
47.0,91.86331192081593,0.21053567726048833,0.6236930061437878,85.21824534838748
48.0,91.69191053309581,0.20792414873542805,0.6227235684662408,86.20990346571497
49.0,91.5183881988332,0.2063063654105611,0.6217466089373261,87.20123879533705
50.0,91.34257929668026,0.20564482267114492,0.620761656109796,88.19222125927845
51.0,91.16431113045277,0.20591120557590673,0.6197682409871575,89.18281834499513
52.0,90.9834030639748,0.20708651172147308,0.6187658978165765,90.17299478298544
53.0,90.79966554154325,0.20915841109732264,0.617754165217107,91.16271216582656
54.0,90.61290011216782,0.21212870314476853,0.6167325865438325,92.15192894452876
55.0,90.42289751182992,0.21600083003364076,0.6157007119865734,93.14059967776873
56.0,90.22943763879755,0.220787563764105,0.6146580992368623,94.12867499343709
57.0,90.03228777450153,0.2265125545208442,0.613604315596559,95.11610089562649
58.0,89.83120172526957,0.23320521228318056,0.61253893979596,96.1028183748778
59.0,89.62591854847665,0.24090432129230516,0.6114615641107691,97.08876287704453
60.0,89.41616122098075,0.24965753721624492,0.6103717967982255,98.07386372793316
61.0,89.2016351698025,0.259522236352025,0.6092692648292405,99.05804349631525
62.0,88.98202651103759,0.27056484457107005,0.6081536172310803,100.04121722107382
63.0,88.75700036340966,0.28286250797108914,0.6070245285076734,101.02329165925889
64.0,88.52619888805847,0.2965034379115761,0.6058817026471741,102.00416440477326
65.0,88.28923916825126,0.31158769622554405,0.604724877576002,102.98372292499774
66.0,88.04571090798589,0.3282280566273539,0.6035538301093781,103.96184350389773
67.0,87.79517381721159,0.34655149115356393,0.6023683816128955,104.93839003586335
68.0,87.53715518393336,0.366698933186859,0.6011684036543782,105.91321286909454
69.0,87.27114660995744,0.38882779842106074,0.5999538251698354,106.88614728355789
70.0,86.99660089778725,0.4131129284935176,0.5987246397267423,107.85701199714514
71.0,86.71292856592457,0.43974812388052315,0.5974809136604888,108.82560748644134
72.0,86.41949412111212,0.46894768425601796,0.5962227949071013,109.79171417059895
73.0,86.11561204460692,0.5009481104809628,0.5949505226141895,110.7550904367791
74.0,85.80054229816344,0.5360105790882899,0.5936644378585636,111.7154704292292
75.0,85.52945325935177,0.6082890961453151,0.5923649938322854,112.67256198077484
76.0,85.29821290519203,0.7090385338888345,0.5910527684969963,113.62604398104875
77.0,85.07567223487587,0.8173821548794248,0.5897284775918407,114.57556367547714
78.0,84.8639711666191,0.9340516872532771,0.5883929868321295,115.52073414538003
79.0,84.66559081706289,1.0598458138826277,0.5870473269099425,116.4611311385646
80.0,84.48339320794793,1.1956344174988967,0.5856927062323252,117.39629038736322
81.0,84.32067039234076,1.3423640590922972,0.5843305269148469,118.32570415702774
82.0,84.18118786611136,1.50106204232881,0.5829623973170593,119.24881851770328
83.0,84.06923791959147,1.6728413312596062,0.5815901471527857,120.16502996719561
84.0,83.9896846282054,1.8589045312349564,0.5802158399216045,121.07368256514343
85.0,83.94801010613239,2.0605470317177033,0.5788417838269071,121.97406528985427
86.0,83.9503559622118,2.2791604615252323,0.577470543118259,122.86540915830274
87.0,84.00354782701815,2.5162334323024336,0.5761049427727574,123.74688567989938
88.0,84.11511380451535,2.7733525846687272,0.5747480739655444,124.6176049200734
89.0,84.29327229661669,3.05220112608119,0.5734032927540053,125.47661486254498
90.0,84.54689105039743,3.3545551044309896,0.5720742130307288,126.32290181478419
91.0,84.88541147652151,3.6822780769099723,0.570764695304157,127.15539143032416
92.0,85.31871341925844,4.037312947262561,0.5694788273001231,127.97295124742169
93.0,85.85691814838783,4.421670383953292,0.5682208955522235,128.7743949420527
94.0,86.51011966900312,4.8374141971515785,0.5669953488028127,129.55848806767145
95.0,87.28802612436532,5.286643352028179,0.5658067521079048,130.32395547012797
96.0,88.19949569834809,5.771470247299717,0.5646597299814579,131.06949080543563
97.0,89.2519781637627,6.293995468170153,0.5635588996592579,131.79376802629363
98.0,90.4508591407843,6.856279097576839,0.5625087951469501,132.4954546114045
99.0,91.79869177571737,7.460308955913767,0.5615137811719331,133.17322666171768
100.0,93.29439897260333,8.10796697619584,0.5605779621331464,133.8257852669462
101.0,94.93238781532925,8.800992631878891,0.5597050810716991,134.4518744984945
102.0,96.70177677146572,9.540947998632731,0.5588984232162673,135.05029911186764
103.0,98.58558534836988,10.329178928633088,0.5581607063943993,135.61994416942719
104.0,100.56030093330037,11.166784816351901,0.5574939941393299,136.15979132349233
105.0,102.59557091262015,12.054586346668618,0.5568996010657514,136.66893595277548
106.0,104.65426864632998,12.993096434137652,0.556378010145185,137.14660233699826
107.0,106.6930829362031,13.982501033604251,0.5559288084298425,137.59215545738465
108.0,108.66354995309642,15.022643569455894,0.5555506363304427,138.0051102322416
109.0,110.51359345985388,16.113016946830825,0.5552411555417944,138.38513726678397
110.0,112.18951416744088,17.252762908350917,0.5549970363928802,138.7320649653578
111.0,113.6383200263205,18.440678715634437,0.5548139648850853,139.04587796417718
112.0,114.81023375084808,19.67523078837743,0.5546866687731806,139.32671202375175
113.0,115.66117199344168,20.954574619484507,0.5546089612060672,139.57484568715296
114.0,116.15496749839109,22.276580091425313,0.5545737999866857,139.79068911458728
115.0,116.2651365304324,23.638860689657424,0.5545733587192191,139.97477079348081
116.0,115.97597998774904,25.038806216031315,0.5545991092759208,140.1277223734437
117.0,115.28290898699153,26.473617856545246,0.5546419112395105,140.25026251724304
118.0,114.19236605982199,27.940339289596974,0.5546920897115246,140.34318223310072
119.0,112.72029798966314,29.435895449006978,0.5547395476795012,140.40732583552736
120.0,110.89061046519137,30.957124437755752,0.5547738501056002,140.4435765554232
121.0,108.73336634843152,32.50080484806799,0.5547843033567281,140.4528426021848
122.0,106.28249497545848,34.06368625619964,0.5547600426503343,140.43604327156447
123.0,103.57373392507236,35.64251327741251,0.5546901068779072,140.39409725145913
124.0,100.64278590240914,37.23404694608734,0.5545635078091458,140.3279124224618
125.0,97.52383547724456,38.83508281687494,0.5543692924362263,140.2383772949611
126.0,94.24848199880999,40.44246587787297,0.5540965986237333,140.1263540293733
127.0,90.84508906620243,42.05310243675098,0.553734704485798,139.9926729553444
128.0,87.33850695155398,43.663969258128695,0.5532730720509637,139.83812846822434
129.0,83.75009652357377,45.27212025239937,0.5527013858752332,139.66347616197538
130.0,80.09797099720281,46.8746910374187,0.5520095873177288,139.46943104686818
131.0,76.39737451357075,48.46890160925327,0.5511879049627538,139.2566667285821
132.0,72.66111864608462,50.05205774479029,0.5502268834950144,139.0258152235456
133.0,68.90004071031352,51.62155096060989,0.5491174063831089,138.77746778804627
134.0,65.12341475944176,53.17485763558318,0.5478507216658226,138.51217579479757
135.0,61.33931148532519,54.70953916563867,0.5464184690712358,138.2304517727382
136.0,57.55492834703712,56.22323729881586,0.5448126953705262,137.93277198469622
137.0,53.776820211200416,57.713672629152214,0.5430258746236696,137.61957830219268
138.0,51.53148732052241,57.661044310671464,0.604571400248924,68.5654732273732
139.0,47.48480752493331,59.40911167193848,0.6289204041582046,50.37341275767827
140.0,40.8395013237162,63.73723909191729,0.6358963979200588,44.39809771835001
141.0,33.330722599876715,68.90699568065637,0.6380279158863732,40.93359765368748
142.0,25.738059622086848,74.1428870206375,0.6377295298962476,38.54990899592497
143.0,18.569297631284464,78.94454408994898,0.6359313526113386,36.76259556183801
144.0,12.14730213019187,82.99808224118756,0.6330995449592743,35.35020996150144
145.0,6.647132226494405,86.137761434005,0.6295051197789417,34.193403144347684
146.0,2.126043103404908,88.31509836609867,0.6253217640059902,33.22070115056713
147.0,0.0,89.56838595968286,0.6206688899949394,32.386020457372474
148.0,0.0,89.9933140859947,0.6156330902230909,31.65799261340179
149.0,0.0,89.71673615354887,0.6102798726944384,31.01436248547058
150.0,0.0,88.87548196845731,0.6046605440848717,30.43881484360901
151.0,0.0,87.60105810229888,0.598816467597688,29.919071078140774
152.0,0.0,86.01013628824397,0.5927818188430232,29.445690018019206
153.0,0.0,84.19998201738532,0.5865854340516593,29.011282419513584
154.0,0.0,82.24759963174286,0.5802520898083945,28.60997814519724
155.0,0.0,80.21128015292474,0.5738034104811804,28.23705507588783
156.0,0.0,78.1334263383804,0.5672585275019612,27.888673528586622
157.0,0.0,76.0437892177789,0.5606345674336957,27.561682324201236
158.0,0.0,73.9625570109256,0.5539470184152543,27.253474505119303
159.0,0.0,71.90300085808465,0.5472100102528054,26.96187825101218
160.0,0.0,69.87357572508266,0.5404365293615786,26.685073207873852
161.0,0.0,67.87950155243607,0.533638591768337,26.421524275973944
162.0,0.0,65.92387113001391,0.5268273712022069,26.16993140106169
163.0,0.0,64.00840373106978,0.5200133077643916,25.929188273523337
164.0,0.0,62.13426512588812,0.5132061920140852,25.69834951727488
165.0,0.0,60.30162052685766,0.5064152365551041,25.47660352548633
166.0,0.0,58.50996229292134,0.4996491241847987,25.263250879021772
167.0,0.0,56.75956143675859,0.49291606566315915,25.057689133025352
168.0,0.0,55.050301969099,0.48622381258186137,24.859395515956663
169.0,0.0,53.381831005118116,0.4795797275353845,24.6679115821306
170.0,0.0,51.75372639222225,0.472990765605701,24.48284285881561
171.0,0.0,50.165513882820754,0.4664635190844833,24.30383874574538
172.0,0.0,48.61673487093873,0.4600042440941791,24.13059579445458
173.0,0.0,47.10686994968056,0.45361885335383506,23.962840961404595
174.0,0.0,45.63543519424087,0.44731292537226325,23.800340329089696
175.0,0.0,44.20187757818122,0.44109179610437693,23.64287506839143
176.0,0.0,42.80567077289454,0.4349603534472171,23.49026462355948
177.0,0.0,41.44630771515333,0.42892339397058915,23.342336797916648
178.0,0.0,40.123196279457964,0.42298530010313784,23.198939878153208
179.0,0.0,38.83577076283443,0.41715022059266393,23.05993780268295
180.0,0.0,37.583447635111916,0.41142200955585756,22.92520830561147
181.0,0.0,36.365644325774944,0.4058043036105308,22.794639257622002
182.0,0.0,35.18176268076116,0.400300462095475,22.6681293146397
183.0,0.0,34.031201426478766,0.39491360516131424,22.54558584010293
184.0,0.0,32.91335272080131,0.38964662040678083,22.42692376295453
185.0,0.0,31.8276042773676,0.38450216340760757,22.312064920008044
186.0,0.0,30.773340181310747,0.3794826697469069,22.20093711931464
187.0,0.0,29.749941367263048,0.3745903601732055,22.09347350978428
188.0,0.0,28.756787705590398,0.36982725011017775,21.989611968222906
189.0,0.0,27.793257453004607,0.36519515708103006,21.88929457044209
190.0,0.0,26.858730056841015,0.3606957083477066,21.792467181889272
191.0,0.0,25.95258696299797,0.35633035084936404,21.699079030674877
192.0,0.0,25.074212840805608,0.3521003579905292,21.609082397454387
193.0,0.0,24.222998185632242,0.3480068395755129,21.52243230813213
194.0,0.0,23.398340528791557,0.3440507495117257,21.439086284876495
195.0,0.0,22.59964749946636,0.34023289496580456,21.35900412140449
196.0,0.0,21.826339327456516,0.3365539450183051,21.282147686461784
197.0,0.0,21.07785220923384,0.333014439205339,21.2084807557519
198.0,0.2331928633180046,20.353642031279293,0.32961479619355316,21.13796886147809
199.0,0.6159748896764982,19.653188571512217,0.32635532227938013,21.070579161321476
200.0,1.034767818288251,18.976000391910947,0.32323621975898176,21.006280323693172
201.0,1.4923994688317088,18.32162001488813,0.3202575951815422,20.945042425604953
202.0,1.9914632224888125,17.689629543394382,0.31741946736033727,20.886836863462577
203.0,2.5342529188172644,17.07965674905047,0.31472177515063005,20.831636274302554
204.0,3.122691613492834,16.49138085739522,0.31216438511051336,20.779414465016
205.0,3.7582748020061,15.92453917638041,0.3097470986635305,20.730146350997508
206.0,4.442000865948475,15.378932199851699,0.30746965936326587,20.683807897955234
207.0,5.174308240620569,14.854428702282682,0.30533175961227677,20.640376073921505
208.0,5.955040037113384,14.350970358151404,0.3033330470795151,20.599828798879624
209.0,6.783408964029129,13.86858213742566,0.3014731278959096,20.562144953449344
210.0,7.658012386479135,13.407362359533414,0.29975157733527935,20.527304229325196
211.0,8.576618112709374,12.967488383232586,0.29816794245988343,20.49528721427409
212.0,9.536348308145548,12.549219094130015,0.29672174613559765,20.4660753094343
213.0,10.533567170177145,12.152886262614965,0.2954124936045533,20.43965070515455
214.0,11.563957308378646,11.778893565259443,0.2942396750190372,20.41599636195214
215.0,12.62253221020583,11.427708518137374,0.293202769579553,20.395095986080594
216.0,13.703681570017313,11.099853724172458,0.29230124881391945,20.37693400905093
217.0,14.801232913615392,10.795896386217818,0.2915345794353365,20.361495568408813
218.0,15.908526945525395,10.516436243809245,0.2909022257902434,20.348766489917825
219.0,17.01850439166047,10.262092151668883,0.2904036518978343,20.338733270999132
220.0,18.123801328410842,10.033487541423659,0.29003832308450395,20.331383065301225
221.0,19.21684940354996,9.83123502149192,0.289805707217819,20.32670366829425
222.0,20.289977084646086,9.655920372178565,0.28970527554586123,20.32468350380215
223.0,21.335508209194344,9.50808618867941,0.2897365031489675,20.32531161140285
224.0,22.345854714706814,9.388215402166457,0.2898988690120084,20.32857763464211
225.0,23.313601419600076,9.296714926883853,0.2901918557264033,20.334471810020986
226.0,24.231582112388484,9.233899622201493,0.2906149488320766,20.342984956730113
227.0,25.092947620192366,9.199976828551907,0.29116763581051863,20.354108467116554
228.0,25.891227939974282,9.195031693662441,0.2918494047410354,20.367834297881146
229.0,26.620383590903216,9.219013756742195,0.2926597428094401,20.384154961591985
230.0,27.274889555317092,9.271723810817706,0.29359813382265554,20.403063521277673
231.0,27.849770683306293,9.352804397299112,0.29466405651564803,20.424553580509485
232.0,28.340686703917754,9.461729607129708,0.29585698172113645,20.44861928318213
233.0,28.743990410264818,9.597801018603706,0.2971763699228729,20.475255302064614
234.0,29.056840468043593,9.760145489910624,0.29862166736553136,20.504456830677533
235.0,29.277305837112806,9.947704782918535,0.3001923021503006,20.536219607240934
236.0,29.404312052425492,10.15925026327897,0.3018876840200193,20.570539882943844
237.0,29.437826679248197,10.393387471535222,0.30370719745607017,20.607414416594352
238.0,29.378902851139973,10.648551554490917,0.30565019739082777,20.646840521794225
239.0,29.229582791605413,10.923036003678135,0.30771600893168316,20.688816019836835
240.0,28.992976313416033,11.214998167434256,0.3099039203898834,20.73333926701128
241.0,28.673204871889876,11.522476883314217,0.3122131790612568,20.780409154204435
242.0,28.275314353793256,11.84340894810818,0.3146429870413831,20.830025125172455
243.0,27.8051618815926,12.175649095868879,0.31719249717910564,20.882187179398443
244.0,27.269290399027696,12.516987745460508,0.31986080916400683,20.93689587648136
245.0,26.67480012697995,12.865166617464737,0.32264696390726355,20.99415236862558
246.0,26.029193998970637,13.217895507032251,0.32554993952245376,21.053958410086466
247.0,25.340232561285966,13.572866960260471,0.3285686467932825,21.11631638207138
248.0,24.61579433698235,13.927770060923454,0.3317019246482849,21.181229319997072
249.0,23.86375007965665,14.280303860165162,0.3349485357840166,21.248700944838777
250.0,23.09185113095999,14.628190799346694,0.3383071623447394,21.31873569883526
251.0,22.307634774285845,14.969191073505106,0.34177640167317697,21.391338787171268
252.0,21.518346622188517,15.301118644213274,0.3453547621694186,21.466516225841467
253.0,20.73087908471269,15.621859465735078,0.34904065926935046,21.544274896373153
254.0,19.951724398472106,15.929392271383836,0.35283241155538236,21.62462260818837
255.0,19.186940724871327,16.221811657028326,0.3567282370103205,21.707568169472367
256.0,18.44212960577488,16.497353031377017,0.36072624942309134,21.79312146751054
257.0,17.722422765722577,16.754419043416835,0.3648244549528197,21.881293559640685
258.0,17.032478152270443,16.99160465576258,0.36902074880274666,21.97209677729463
