Time,J,A,S,tau
0.0,100.0,10.0,0.7673370736186453,24.862537727098587
1.0,97.76775459662778,15.409178234952028,0.7651717087885759,24.805772189079367
2.0,92.51668610195856,20.602774637005712,0.7629360224131935,24.747244433463433
3.0,86.09634781896028,25.58725582109938,0.7606332802296851,24.68703217694825
4.0,79.29998904201041,30.369210319063427,0.7582642667772277,24.625151339269557
5.0,72.42965388277014,34.95503643968206,0.7558298204684564,24.56161841015895
6.0,65.59684513669808,39.35094783302479,0.7533308330824436,24.49645044557736
7.0,58.84294078806227,43.56297899083867,0.7507682493194335,24.429665065321014
8.0,52.1838108887186,47.5969903555811,0.7481430658758437,24.361280446356115
9.0,45.62585342074172,51.458669021425365,0.7454563309615546,24.291315321875956
10.0,39.17189839344886,55.153535849366676,0.7427091438627876,24.219788981309666
11.0,32.82337216684516,58.686966717494776,0.739902652212547,24.146721244870623
12.0,26.58109069921532,62.064144434706996,0.7370380528253452,24.07213248321615
13.0,20.445594052633183,65.29013286231948,0.7341165908709751,23.996043610146813
14.0,14.417270812487851,68.36986694368763,0.731139556088526,23.91847604935385
15.0,8.496410002248657,71.30808109099243,0.7281082833368865,23.83945175578209
16.0,2.6832130571773334,74.1094161601116,0.7250241529672247,23.758993222060635
17.0,0.0,76.77839826296794,0.7218885837257,23.677123406734417
18.0,0.0,79.31934185227819,0.7187030383948175,23.593865824275163
19.0,0.0,81.73653149621083,0.7154690168530556,23.50924445711348
20.0,0.0,84.03406020813577,0.7121880546549745,23.42328376423277
21.0,0.0,86.21593442732575,0.7088617272931843,23.336008747831517
22.0,0.0,88.2860404380148,0.7054916373334765,23.24744479501744
23.0,0.0,90.24812402340346,0.7020794259882871,23.15761786573554
24.0,0.0,90.64339404599808,0.7003530095426949,23.11613546140942
25.0,0.0,88.57705029805024,0.6989535363051055,23.08409037364135
26.0,0.0,85.59572771791146,0.6975725549318822,23.052623080049074
27.0,0.0,82.36698439430269,0.6962107094378285,23.02174041683068
28.0,0.0,79.13402489128418,0.6948686370727195,22.991449027184554
29.0,0.0,75.98023721374948,0.6935469678202845,22.961755362516598
30.0,0.0,72.93225456848235,0.6922463238861772,22.932665683310383
31.0,0.0,69.99685439442756,0.6909673192340899,22.904186060918942
32.0,0.0,67.1738200862745,0.689710559128041,22.876322379188156
33.0,0.0,64.46048980626973,0.6884766392735951,22.849080328624087
34.0,0.0,61.85336798450339,0.6872661464301912,22.82246542805117
35.0,0.0,59.34877877259257,0.6860796560442783,22.796482990134095
36.0,0.0,56.942947631500154,0.6849177339695444,22.771138163879666
37.0,0.0,54.63225468158045,0.6837809346826316,22.74643590895073
38.0,0.0,52.413110830351265,0.6826698006123004,22.722380997832097
39.0,0.0,50.282079290677224,0.6815848637140454,22.698978043839798
40.0,0.0,48.23583850802329,0.6805266415560233,22.676231453708265
41.0,0.0,46.27114300371266,0.6794956413200254,22.654145489998392
42.0,0.0,44.38492611246278,0.6784923549773194,22.63272421180902
43.0,0.0,42.574152661476205,0.677517262495059,22.61197152472671
44.0,0.0,40.83597310130941,0.6765708293253835,22.591891152889428
45.0,0.0,39.1675789268814,0.6756535067762183,22.57248665117829
46.0,0.0,37.566273529645215,0.6747657322616668,22.55376141219249
47.0,0.0,36.02948451882071,0.6739079275466833,22.53571865157904
48.0,0.0,34.55470242560671,0.6730804998136484,22.518361425118375
49.0,0.0,33.139519304039226,0.6722838406340591,22.501692621788255
50.0,0.0,31.781615563188808,0.6715183260188711,22.48571496867744
51.0,0.0,30.47875493343963,0.6707843159395436,22.470431030183793
52.0,0.0,29.228785569410537,0.6700821541694322,22.455843210330414
53.0,0.0,28.029636745340543,0.6694121680898513,22.441953754492367
54.0,0.0,26.879315606855446,0.6687746684144197,22.428764750209428
55.0,0.0,25.775909573467302,0.6681699490161294,22.416278128805324
56.0,0.0,24.717586866502085,0.6675982867205158,22.404495666534583
57.0,0.0,23.70259640082986,0.6670599411937079,22.393418986412563
58.0,0.0,22.729276778092938,0.6665551546522401,22.383049558336463
59.0,0.0,21.796062938087786,0.6660841518591343,22.373388701548965
60.0,0.0,20.90149847570439,0.6656471399264456,22.364437585253896
61.0,0.0,20.044255169248405,0.6652443081708164,22.356197229562547
62.0,0.0,19.2231544181205,0.6648758281182341,22.348668507514436
63.0,0.0,18.43720102193135,0.6645418532953927,22.341852145189396
64.0,0.0,17.685619984303333,0.6642425192440377,22.335748723498877
65.0,0.0,16.967903525169366,0.6639779434374959,22.330358679025487
66.0,0.0,16.283865791454893,0.6637482252285963,22.325682304975178
67.0,2.2516286920852338,15.633703532359476,0.6635534458385635,22.32171975230533
68.0,5.835673300968354,15.018062402315692,0.6633936683527516,22.31847103075811
69.0,9.715934834735148,14.438107019497359,0.6632689377224666,22.31593600979761
70.0,13.888782051555047,13.895597206424178,0.6631792806716609,22.314114418680184
71.0,18.343840334932057,13.392951561366877,0.6631247058296571,22.313005848119385
72.0,23.063006087350914,12.933305823547185,0.6631052038400418,22.31260975161544
73.0,28.01938820898157,12.520568729168085,0.6631207472930513,22.31292544530633
74.0,33.176535263854824,12.159460304313974,0.663171290805665,22.31395210880782
75.0,38.48768830048761,11.855523816952465,0.6632567711946524,22.315688786622164
76.0,43.895356754563274,11.615131595857113,0.6633771074203798,22.31813438766887
77.0,49.331171351109006,11.445446522576649,0.6635322008759515,22.3212876873077
78.0,54.71611861513418,11.354377020659923,0.6637219353588696,22.32514732681287
79.0,59.961188571832544,11.350491379292501,0.6639461772726353,22.329711814465544
80.0,64.9686340711501,11.442910625887526,0.6642047757816942,22.33497952616437
81.0,69.63393636090166,11.641175299841521,0.6644975629146522,22.340948705504097
82.0,73.84879207287872,11.955081571574313,0.6648243537885051,22.347617464660868
83.0,77.50548391079592,12.394498747348681,0.6651849467827863,22.35498378476777
84.0,80.50269358694113,12.969158585223255,0.6655791236913963,22.363045515980026
85.0,82.75253547820805,13.688420162828164,0.6660066499927605,22.37180037835586
86.0,84.18830951730317,14.561014572932892,0.666467275024405,22.38124596185427
87.0,84.7714271894621,15.594752909569156,0.6669607322261768,22.391379726758668
88.0,84.49618745127734,16.796210677001792,0.6674867393584565,22.402199003772264
89.0,83.39072464740295,18.170367878838245,0.6680449987258752,22.41370099401563
90.0,81.51332314724043,19.720228816737894,0.6686351975906469,22.42588277055535
91.0,78.9453619931748,21.446367842537818,0.6692570082810112,22.43874127719663
92.0,75.78137454501142,23.346472289346675,0.6699100885125965,22.452273328960775
93.0,72.11911420439078,25.414849772702638,0.6705940817530877,22.466475612880046
94.0,68.05144201294031,27.641907638198447,0.6713086174154557,22.481344687114472
95.0,63.661486797230204,30.01368593568985,0.6720533112691516,22.49687698195854
96.0,59.021117337980385,32.51140083807231,0.6728277656812455,22.51306879914722
97.0,54.19227557047793,35.111109350706435,0.6736315700097701,22.529916312507403
98.0,49.22983036320108,37.78347050600438,0.6744643008983676,22.5474155675413
99.0,44.18496143759498,40.493677005391,0.6753255226490582,22.565562481679873
100.0,39.10816102973375,43.20156538817871,0.6762147875719032,22.584352844209473
101.0,34.051456296594566,45.86192976491582,0.677131636336464,22.603782316097128
102.0,29.06967135603557,48.42510879299894,0.6780755983680526,22.623846430226635
103.0,24.22075658025481,50.8378931697895,0.6790461921958428,22.644540590981695
104.0,19.565164721750744,53.04491997063791,0.6800429258674637,22.665860074518193
105.0,15.164282359874482,54.9906707012782,0.681065297322258,22.68780002845205
106.0,11.077848452452399,56.622250788324514,0.6821127947938553,22.710355471816285
107.0,7.3604112303335105,57.89294137215016,0.6831848972114898,22.733521294913484
108.0,4.057077678885225,58.76631370741217,0.6842810746170368,22.757292259321666
109.0,1.1990609263040248,59.220410854129774,0.6854007885673907,22.781662997596236
110.0,0.0,59.25114519814125,0.6865434925616243,22.806628013272782
111.0,0.0,58.874069201220486,0.6877086324594232,22.832181680673422
112.0,0.0,58.123768986490575,0.6888956469094276,22.85831824480933
113.0,0.0,57.050686361806086,0.690103967776707,22.885031821211808
114.0,0.0,55.71580017736339,0.6913330205757269,22.912316395814297
115.0,0.0,54.184187503928015,0.69258222490479,22.94016582482358
116.0,0.0,52.51875645845435,0.6938509948823227,22.968573834597787
117.0,0.0,50.77529451538946,0.6951387395840329,22.997534021517463
118.0,0.0,48.9995006666285,0.6964448634813909,23.027039851876506
119.0,0.0,47.22607322721231,0.6977687668801635,23.057084661773114
120.0,0.0,45.47943873229297,0.6991098463594027,23.08766165703038
121.0,0.0,43.775465080231754,0.7004674952095976,23.11876391315099
122.0,0.0,42.12351665136514,0.7018411038682035,23.150384375187535
123.0,0.0,40.528395706747304,0.7032300603543716,23.18251585770332
124.0,0.0,38.991922251416,0.7046337507039867,23.21515104491784
125.0,0.0,37.51408437300116,0.7060515593971823,23.248282490179044
126.0,0.0,36.093818273868365,0.707482869789412,23.281902616125645
127.0,0.0,34.72949460527935,0.7089270645335408,23.31600371552701
128.0,0.0,33.419208915855876,0.710383526000528,23.350577950091278
129.0,0.0,32.160946360251856,0.7118516366868051,23.385617351997524
130.0,0.0,30.952674099411983,0.7133307796300661,23.42111382263256
131.0,0.0,29.792390712951267,0.7148203388172336,23.4570591331363
132.0,0.0,28.678148850033516,0.7163196995717286,23.493444925130618
133.0,0.0,27.608068241529836,0.717828248954865,23.53026271017567
134.0,0.0,26.58034143049436,0.7193453761453071,23.567503870495607
135.0,0.0,25.593235153897535,0.720870472819378,23.605159658924922
136.0,0.0,24.645092086396385,0.72240293351744,23.643221199499926
137.0,0.0,23.73433128405899,0.7239421560075795,23.681679487605763
138.0,0.0,22.85945032953493,0.7254875416396558,23.720525390413687
139.0,0.0,22.019028033322588,0.7270384956870513,23.75974964732889
140.0,0.0,21.211729881168733,0.7285944276831313,23.79934287046443
141.0,0.0,20.436315236763953,0.7301547517455484,23.839295545155988
142.0,0.9182626978679556,19.69164750668891,0.731718886891833,23.879598030534485
143.0,2.286723002794747,18.97670708651953,0.7332862573448086,23.920240560136214
144.0,3.8387861931386067,18.290607508142234,0.7348562928284176,23.961213242561858
145.0,5.589381369830333,17.632614760485268,0.7364284288518589,24.002506062189784
146.0,7.5528325019859235,17.002170249828026,0.7380021069821007,24.044108879973532
147.0,9.742490102451713,16.398917267353283,0.7395767751038792,24.086011434294885
148.0,12.17031252152995,15.822731759542627,0.7411518876799893,24.128203341703685
149.0,14.846380923779483,15.27375491711861,0.7427269059711169,24.17067409816017
150.0,17.77836149963173,14.752431333986097,0.7443012982948882,24.213413079569925
151.0,20.97089805463421,14.259544616562057,0.7458745401934315,24.256409543560878
152.0,24.424953714059505,13.796253993485559,0.7474461146084047,24.299652630916704
153.0,28.13708798547848,13.3641615278775,0.7490155124567056,24.3431313618114
154.0,32.09883949293745,12.965299416763523,0.7505822320850842,24.386834646859224
155.0,36.29569754811801,12.602202212371274,0.7521457800433295,24.430751279792744
156.0,40.70663117781435,12.2779226482007,0.7537056709850887,24.47486994280348
157.0,45.3033381718748,11.996057978875994,0.7552614278789145,24.51917920693084
158.0,50.04973953419291,11.760764221981171,0.7568125821184432,24.56366753392524
159.0,54.90157978187692,11.576765033893382,0.7583586736777013,24.608323277436227
160.0,59.806304141075415,11.44934600650111,0.7598992511900179,24.653134685090084
161.0,64.70312161917862,11.384336697708852,0.7614338720236995,24.698089900417383
162.0,69.52341424048132,11.388087074305217,0.7629621024234978,24.74317696407485
163.0,74.19166312606964,11.46742620955663,0.7644835175484699,24.788383816225096
164.0,78.62672373885668,11.629605664029015,0.7659977015271316,24.83369829851386
165.0,82.74392687311091,11.882236403210948,0.7675042475573493,24.87910815570794
166.0,86.45783379283709,12.23320247795826,0.7690027578722548,24.924601038577762
167.0,89.6859013363712,12.69056619150312,0.7704928438490463,24.970164505327126
168.0,92.35290429293237,13.262455974701181,0.7719741259684326,25.01578602454803
169.0,94.39572901676681,13.956933181907342,0.7734462338396761,25.061452977381606
170.0,95.76830174485832,14.78184633380585,0.7749088062372966,25.107152659737668
171.0,96.44531259182027,15.744662060164007,0.776361491024329,25.152872285438857
172.0,96.42446627941067,16.852267689217722,0.7778039451631558,25.198598988528264
173.0,95.7263976398172,18.110755620305714,0.7792358347125651,25.244319825887654
174.0,94.39179034867541,19.52517294278665,0.7806568347516798,25.290021780330942
175.0,92.4763942795488,21.099243345552793,0.7820666293382027,25.33569176348491
176.0,90.04469692527194,22.835056914040965,0.7834649114514918,25.3813166188039
177.0,87.16347435299728,24.732729794180575,0.784851382927316,25.426883124675687
178.0,83.89639234454131,26.790038659893888,0.7862257543874117,25.472377997592922
179.0,80.30046643878497,29.002020939125114,0.7875877451695644,25.51778789539474
180.0,76.42469353426212,31.360594994312905,0.7889370832284572,25.563099420731884
181.0,72.31058603377419,33.85417366162315,0.7902735050376509,25.608299124559046
182.0,67.9939848448372,36.467309850338076,0.7915967554878074,25.653373509704554
183.0,63.50747473241256,39.18039347180439,0.7929065877785623,25.698309034533878
184.0,58.88282029023229,41.96942343171431,0.7942027633047168,25.743092116701614
185.0,54.15304429916969,44.80587570820729,0.7954850515461925,25.787709136968722
186.0,49.35396148215401,47.656703394398846,0.796753229945521,25.83214644317351
187.0,44.52510190464411,50.4845138819749,0.7980070837526418,25.876390354360336
188.0,39.71009666760055,53.24792488106144,0.7992464058923402,25.920427164878728
189.0,34.9565717503624,55.90215231762034,0.8004709968562266,25.964243148550914
190.0,30.315511225938685,58.399937401191366,0.8016806645222108,26.007824563093948
191.0,25.840134838757056,60.69283662116747,0.8028752240380719,26.05115765448904
192.0,21.584213645923686,62.732968522042825,0.8040544976388229,26.094228661537247
193.0,17.599827052149625,64.47524373009468,0.80521831451562,26.137023820447205
194.0,13.934597032327252,65.88003483915661,0.8063665106514757,26.17952936955409
195.0,10.628578880843069,66.91611209189328,0.8074989286597494,26.221731554115888
196.0,7.711123973324828,67.56352924202415,0.8086154176216762,26.26361663120027
197.0,5.198173140862548,67.81601292392051,0.8097158329201432,26.30517087464929
198.0,3.090449299482144,67.6823959875187,0.810800036083961,26.34638058020939
199.0,1.3731431471086453,67.18656315324368,0.8118678946040488,26.387232070592805
200.0,0.01716403619727877,66.36583389752377,0.8129192817760676,26.427711700787313
201.0,0.0,65.26777947432265,0.8139540765266882,26.467805863365353
202.0,0.0,63.94596797884291,0.8149721632439465,26.50750099390327
203.0,0.0,62.45531789962333,0.8159734316058187,26.54678357647471
204.0,0.0,60.8478275729876,0.8169577764090169,26.585640149227395
205.0,0.0,59.16931050755352,0.817925097397561,26.62405731003664
206.0,0.0,57.457481760923095,0.8188752990917241,26.662021722235977
207.0,0.0,55.74140516665541,0.8198082906174121,26.699520120422882
208.0,0.0,54.0420405752488,0.8207239855361955,26.73653931633622
209.0,0.0,52.37348460188991,0.821622301676402,26.773066204804984
210.0,0.0,50.74449219947859,0.8225031609644787,26.809087769755063
211.0,0.0,49.159958236910406,0.8233664892572014,26.84459109023953
212.0,0.0,47.622165555174625,0.824212216181792,26.8795633467609
213.0,0.0,46.131742924382685,0.8250402749573171,26.91399182693014
214.0,0.0,44.68832380217456,0.8258506022471782,26.947863932072252
215.0,0.0,43.29098259821164,0.8266431380294632,26.981167184622347
216.0,0.0,41.938516420186744,0.8274178253464523,27.013889233392376
217.0,0.0,40.629576186936745,0.8281746102335037,27.046017858447744
218.0,0.0,39.362770000006726,0.8289134415425502,27.07754098032325
219.0,0.0,38.136705155017886,0.8296342707765975,27.10844666438921
220.0,0.0,36.9500138413424,0.8303370519594452,27.13872312873675
221.0,0.0,35.80136491178161,0.8310217414794788,27.16835875015651
222.0,0.0,34.68946826650365,0.8316882979475803,27.19734207035558
223.0,0.0,33.613077281701855,0.8323366820596938,27.22566180278946
224.0,0.0,32.57098952285356,0.8329668564600714,27.253306839516704
225.0,0.0,31.562045148657038,0.8335787856067906,27.28026625717821
226.0,0.0,30.585126935732937,0.8341724356396395,27.306529323934907
227.0,0.0,29.639158495834383,0.834747774256838,27.33208550592451
228.0,0.0,28.723103777782928,0.8353047705885106,27.356924473866844
229.0,0.0,27.835965993962276,0.8358433950775387,27.381036109373344
230.0,0.0,26.97678743040928,0.8363636193632785,27.404410511703983
231.0,0.0,26.14464939306021,0.836865416168557,27.42703800406215
232.0,0.0,25.33867290347886,0.8373487591909349,27.448909140054315
233.0,0.5541770318838461,24.55802017308995,0.8378136229974331,27.47001471007681
234.0,1.2339733743409362,23.80189697375557,0.8382599829233208,27.49034574763144
235.0,2.0163701836946655,23.069556146729564,0.8386878149745824,27.509893535609805
236.0,2.912132634703918,22.36030235764559,0.8390970957348654,27.528649612499176
237.0,3.9323698563546747,21.673498387389355,0.839487802276014,27.546605778420577
238.0,5.08843101764711,21.00857322746755,0.8398599120734359,27.563754101330687
239.0,6.39178260659477,20.3650321742995,0.8402134029247311,27.580086922845243
240.0,7.8538639617642945,19.74246919314664,0.8405482528733286,27.595596864160783
241.0,9.48591855254741,19.140581739680457,0.8408644401362384,27.610276831836217
242.0,11.29879909621839,18.55918799645274,0.8411619430358888,27.62412002311206
243.0,13.302740506042547,17.998247467367975,0.8414407399353564,27.63711993236805
244.0,15.507094742050018,17.457882260815623,0.8417008091835082,27.649270354880137
245.0,17.920031730790253,16.938403925470467,0.8419421290541033,27.660565394296672
246.0,20.548196736091672,16.440338999141403,0.8421646776995191,27.670999465725455
247.0,23.396316960411177,15.964457862299138,0.8423684331065975,27.680567301204725
248.0,26.466774955150655,15.51180282341057,0.842553373059085,27.68926395306087
249.0,29.759061210610795,15.083735403513085,0.8427194750675784,27.697084811366512
250.0,33.26943940562576,14.681936952104444,0.8428667163829866,27.704025582622116
251.0,36.990198303964775,14.308460916590583,0.8429950739512421,27.710082316148746
252.0,40.9091358241799,13.965751795200417,0.843104524400538,27.715251400328786
253.0,45.00907735948937,13.656673655218833,0.8431950440023973,27.71952956727358
254.0,49.267266556965865,13.384525791913036,0.8432666086838863,27.72291389584223
255.0,53.65496205186898,13.153062852353246,0.8433191940013651,27.725401816313845
256.0,58.137059513577576,12.966502860878903,0.8433527751442397,27.72699111317755
257.0,62.671873133904874,12.82953116652346,0.8433673269349037,27.727679928706735
258.0,67.21110250594164,12.747292857213552,0.8433628238407062,27.727466764265827
259.0,71.69999177325518,12.725381072682982,0.8433392399859995,27.726350484293647
260.0,76.07784870707482,12.769817227090714,0.8432965491635186,27.724330319671644
261.0,80.2789409646925,12.887017320478197,0.8432347248588308,27.721405868168034
262.0,84.23377997972685,13.083749293314387,0.8431537402810457,27.717577096089613
263.0,87.87096638141465,13.367082747280064,0.8430535683931686,27.712844342010236
264.0,91.11967479682833,13.744325716707625,0.8429341819472967,27.70720831694317
265.0,93.9126021160925,14.22294822836026,0.8427955535312055,27.70067010449058
266.0,96.18942805347577,14.810494432948,0.8426376556171921,27.69323116351224
267.0,97.90049650445968,15.514481831955301,0.8424604606116958,27.684893328383534
268.0,99.01017656338517,16.342283406814,0.8422639409146965,27.67565880866189
269.0,99.49946773600868,17.30099154981125,0.8420480689854176,27.665530188937478
270.0,99.36740894866504,18.397259217003175,0.8418128174139701,27.654510429782775
