Time,J,A,S,tau
0.0,100.0,10.0,0.8608107093425663,2.118729104309101
1.0,89.14106304962999,12.15991985768631,0.8346547135594083,1.8944087649956647
2.0,78.79477379938395,13.958732443298832,0.8158469410174611,1.7291769412925817
3.0,69.59307122370934,15.028843895138232,0.8155190014337785,1.726947378388736
4.0,61.76219504093556,15.398366173763142,0.815205794467856,1.7248241720042043
5.0,55.08496121020436,15.386694329587081,0.8149074766224627,1.7228074968390563
6.0,49.29301703196749,15.25175555759947,0.814624197154872,1.7208975161977063
7.0,44.194436247018714,15.119572892685598,0.8143560979506744,1.7190943822414042
8.0,39.66577906733758,15.030745300095164,0.8141033134053787,1.7173982362296374
9.0,35.62741633251038,14.985110683033328,0.8138659703099939,1.71580920874783
10.0,32.02420296575712,14.96882251030451,0.8136441877444722,1.7143274199225698
11.0,28.81303846595373,14.96771515974415,0.8134380769708561,1.71295297961879
12.0,25.95615217384581,14.972045286244203,0.8132477413607732,1.7116859876607293
13.0,23.41839659482259,14.976765317304721,0.8130732762839035,1.710526533969288
14.0,21.166618656267325,14.980082987363202,0.8129147690366546,1.7094746987503193
15.0,19.169943116519743,14.981898585253537,0.812772298782636,1.7085305526555994
16.0,17.400134404820953,14.982715209309019,0.8126459364620245,1.7076941568872537
17.0,15.831717556393732,14.983068382400374,0.8125357447453005,1.7069655633503988
18.0,14.441939264239613,14.98332532190614,0.8124417779921876,1.7063448147688909
19.0,13.210585524325307,14.983673250355519,0.8123640821814717,1.7058319447514736
20.0,12.11970293561303,14.984176359696221,0.8123026948902242,1.7054269779072706
21.0,11.153357165202664,14.98483583561475,0.8122576452713736,1.705129929916302
22.0,10.297403629621211,14.985631040409062,0.8122289540052476,1.7049408075574972
23.0,9.539264681682095,14.986540706613539,0.81221663330419,1.7048596087858223
24.0,8.867763039366956,14.987550183441499,0.812220686911103,1.7048863227616349
25.0,8.272974453256557,14.988651708130718,0.8122411100645077,1.705020929827766
26.0,7.746075388496778,14.989842239964991,0.812277889548676,1.705263401573096
27.0,7.279242433055244,14.9911211624208,0.8123310036720334,1.7056137007645447
28.0,6.865523348388052,14.992488832332716,0.8124004223151017,1.706071781380399
29.0,6.498763457009217,14.993945713551227,0.8124861069378793,1.706637588516228
30.0,6.173498627766951,14.995492213241969,0.8125880106371203,1.7073110583918825
31.0,5.884895332040662,14.997128587804088,0.8127060781593934,1.7080921182228623
32.0,5.628663520008081,14.998855130411306,0.812840246006184,1.708980686239284
33.0,5.401012732853006,15.000672156910259,0.8129904424125505,1.709976671472685
34.0,5.198586695651851,15.002580106818137,0.8131565874803557,1.7110799737442732
35.0,5.018410432037102,15.004579636738422,0.8133385932417515,1.7122904835622497
36.0,4.857858341872145,15.006671531245264,0.8135363636861982,1.7136080818941033
37.0,4.714606521309601,15.00885677548135,0.813749794899063,1.7150326401125224
38.0,4.586601705388628,15.01113653012675,0.8139787751304178,1.716564019801328
39.0,4.472028846389954,15.01351215102556,0.8142231849075275,1.7182020726125244
40.0,4.369282236532585,15.015985229635954,0.8144828971386578,1.7199466401003376
41.0,4.276946923530799,15.018557509074233,0.8147577771974914,1.7217975534576924
42.0,4.19377087130847,15.021230991751287,0.8150476830745326,1.7237546333977716
43.0,4.118651318719329,15.024007848126974,0.8153524654761389,1.725817689864613
44.0,4.05061225415885,15.026890541596703,0.8156719679830289,1.7279865218957906
45.0,3.988795714536925,15.02988169394685,0.8160060271442837,1.7302609172629184
46.0,3.9324420613654962,15.032984247871196,0.8163544726688541,1.7326406523663918
47.0,3.880884108661777,15.036201330328709,0.8167171274938794,1.7351254917795644
48.0,3.833531587659772,15.039536389842556,0.8170938080282187,1.7377151881919075
49.0,3.7898647307857805,15.042993146035231,0.8174843242276323,1.7404094819481075
50.0,3.7494257423509643,15.046575568589276,0.8178884798760965,1.7432081010009925
51.0,3.7118121381489266,15.050287881686232,0.8183060726402799,1.7461107603900483
52.0,3.6766714754268337,15.054134581361795,0.8187368941026699,1.749117161563363
53.0,3.6436896956563656,15.0581205879686,0.8191807302829219,1.7522269929313414
54.0,3.6125910980946836,15.062251049254709,0.8196373617525748,1.7554399294233782
55.0,3.583139561283812,15.06653126355493,0.8201065632807034,1.7587556305617733
56.0,3.5551181586454557,15.070967181688744,0.8205881048018913,1.762173742496446
57.0,3.528350698142436,15.075564498360556,0.8210817509841374,1.7656938954351318
58.0,3.502667151847076,15.080329823694544,0.821587261999046,1.7693157057471451
59.0,3.477925286573494,15.085269888961815,0.8221043930498357,1.7730387728555923
60.0,3.4540043052621816,15.09039157825508,0.8226328950975373,1.7768626807172376
61.0,3.43079084920251,15.095702218907684,0.8231725149480204,1.7807869974838133
62.0,3.4081929113574407,15.101209420124372,0.8237229950046187,1.784811272656337
63.0,3.3861306754478404,15.106921053452936,0.8242840742279126,1.788935040222263
64.0,3.3645303318643998,15.112845315884035,0.8248554877857722,1.7931578159148942
65.0,3.3433300820503042,15.118990689765733,0.8254369674567376,1.7974790974982697
66.0,3.3224766949025617,15.12536595116901,0.8260282417897052,1.801898364160703
67.0,3.301924327008922,15.131980151532249,0.8266290363371539,1.8064150762391604
68.0,3.281633886964862,15.138842624165951,0.8272390738428377,1.811028674643135
69.0,3.2615719852157294,15.145962958396108,0.8278580744700371,1.8157385805688875
70.0,3.2417103622445604,15.153350995119569,0.8284857559894044,1.8205441948826468
71.0,3.2220253145457267,15.161016818613534,0.8291218340039627,1.8254448978138507
72.0,3.2024972261913294,15.168970753702915,0.8297660221482891,1.8304400484149734
73.0,3.1830930969120774,15.177221430061268,0.8304180325569591,1.8355289903012215
74.0,3.1637968966215433,15.185779317886865,0.8310775751804381,1.8407110325737581
75.0,3.1446306901401675,15.19465918652322,0.8317443587337472,1.8459854600995318
76.0,3.125592915809064,15.20387305623339,0.832418091675841,1.8513515564861516
77.0,3.1066314001703637,15.213426836947473,0.8330984806364796,1.8568085673095347
78.0,3.0877720842255285,15.223335272660876,0.8337852316050574,1.8623557016736494
79.0,3.0690376147326695,15.233612672463329,0.8344780505002348,1.8679921675468303
80.0,3.050373345160407,15.244264078950783,0.8351766423442478,1.8737171463299802
81.0,3.031796851605591,15.25530335978162,0.8358807123740523,1.8795297690979043
82.0,3.0133462940732647,15.266746869268726,0.8365899659644146,1.885429162066297
83.0,2.9949805803313767,15.278600947521532,0.837304108009296,1.891414436803455
84.0,2.9766960083029557,15.290876625280202,0.8380228446497557,1.8974846458487216
85.0,2.9585374393355157,15.303591058313748,0.8387458826635469,1.9036388286089518
86.0,2.940515468135665,15.316757381156886,0.8394729290025588,1.9098760113195874
87.0,2.92260112848671,15.330383040018479,0.8402036917402497,1.9161951765643404
88.0,2.904800019010194,15.344478604549481,0.8409378801751625,1.92259528211022
89.0,2.8871175714470674,15.35905542105022,0.8416752049065599,1.9290752568368683
90.0,2.869558978816255,15.374125213846808,0.8424153780029243,1.9356340001786982
91.0,2.8521293533352763,15.389699679492237,0.8431581131621358,1.9422703816976399
92.0,2.8348338181176755,15.405790290327417,0.8439031258685693,1.948983240645678
93.0,2.8176775705739137,15.422408234084342,0.8446501335470051,1.955771385526262
94.0,2.8006658323058478,15.439564396702474,0.8453988557105289,1.9626335936781214
95.0,2.7838037743792095,15.457269362918417,0.8461490141055356,1.9695686108410673
96.0,2.7670965058648354,15.475533425620108,0.8469003328546557,1.9765751507099798
97.0,2.750549155142342,15.494366601183927,0.847652538592429,1.9836518945443105
98.0,2.734166730754935,15.513778603271875,0.8484053605940176,1.9907974907808963
99.0,2.717954108305305,15.533778828103083,0.8491585309012658,1.9980105546411913
100.0,2.7019160005285467,15.554376333041901,0.8499117844440588,2.005289667742754
101.0,2.6860569298643586,15.57557981302806,0.8506648591568211,2.012633377719071
102.0,2.6703811055306286,15.597397562190654,0.8514174960911237,2.0200401978260905
103.0,2.654892643261711,15.61983748491611,0.8521694395275415,2.0275086065562316
104.0,2.6395954637179906,15.642907061015539,0.852920437073341,2.0350370473219126
105.0,2.624493266411287,15.666613321832578,0.8536702397586245,2.0426239281186183
106.0,2.609589521090973,15.690962829218206,0.8544186021292461,2.050267621182292
107.0,2.5948874461595204,15.715961652933931,0.8551652823331292,2.0579664626725283
108.0,2.580390024856866,15.741615353807134,0.855910042203936,2.0657187523479954
109.0,2.566099879327082,15.767928946621545,0.8566526473379037,2.0735227532563623
110.0,2.552019496514088,15.79490691360688,0.8573928671711614,2.0813766914243557
111.0,2.538151103642471,15.822553168588296,0.8581304750431517,2.089278755607048
112.0,2.5244966927616246,15.850871042613766,0.8588652482586057,2.0972270970329645
113.0,2.5110579931024457,15.87986326228488,0.8595969681469088,2.1052198291360225
114.0,2.4978364732534937,15.909531932908473,0.8603254201133023,2.1132550273367956
115.0,2.484833368141012,15.939878525327385,0.8610503936903824,2.121330728794161
116.0,2.4720496248317216,15.97090385196137,0.8617716825784982,2.129444932223396
117.0,2.4594859911625866,16.002608063122604,0.8624890846889357,2.137595597677405
118.0,2.447142899754045,16.034990615399526,0.8632024021743993,2.145780646397812
119.0,2.4350205992823475,16.06805027479289,0.8639114414630437,2.153997960636734
120.0,2.423119036808869,16.10178508588402,0.8646160132812571,2.162245383533113
121.0,2.4114380168455205,16.13619237980252,0.8653159326769805,2.1705207189936493
122.0,2.3999770258743074,16.171268736641363,0.8660110190344218,2.178821731598376
123.0,2.38873540523802,16.207009996235307,0.8667010960879449,2.1871461465345536
124.0,2.3777121889016555,16.2434112236428,0.8673859919303013,2.195491649532464
125.0,2.366906277265791,16.280466721064542,0.8680655390168418,2.2038558868608216
126.0,2.356316265738637,16.318169993476058,0.8687395741666735,2.212236465304236
127.0,2.3459406400946827,16.35651376445861,0.8694079385584232,2.2206309522196075
128.0,2.335777567902126,16.39548993847053,0.8700704777233378,2.2290368755707908
129.0,2.325825149919084,16.4350896250589,0.8707270415345896,2.237451724040507
130.0,2.31608113119574,16.47530309253615,0.8713774841899448,2.2458729471501364
131.0,2.3065432906505174,16.516119810815507,0.8720216641995561,2.254297955399528
132.0,2.297209033270437,16.55752839161967,0.8726594443564666,2.262724120495478
133.0,2.2880757803790788,16.59951663149741,0.8732906917244837,2.271148775502703
134.0,2.2791322586010327,16.642070512465082,0.8739152767561058,2.279569222172279
135.0,2.270360444119187,16.685174152819645,0.8745330748608756,2.2879827169437075
136.0,2.26178103474162,16.72881548070847,0.8751439683172786,2.2963864571275123
137.0,2.2534157868006064,16.77298251397693,0.8757478397669342,2.304777636850048
138.0,2.2452462349431723,16.817657554212147,0.876344576080882,2.3131534095324304
139.0,2.2372569498070205,16.862821645390124,0.876934069641535,2.3215108793190073
140.0,2.2294319142281336,16.908454569729955,0.877516214898611,2.329847131987491
141.0,2.221760661848361,16.954535927064388,0.8780909127472719,2.338159196677028
142.0,2.2142610818781305,17.001048263905442,0.8786580694213555,2.3464440568623717
143.0,2.206950770385379,17.047974091977544,0.8792175911697054,2.354698695872443
144.0,2.1998007292866673,17.095289802177934,0.8797693863055788,2.362920077372374
145.0,2.192794623969139,17.142970844476572,0.8803133727726346,2.371105083155032
146.0,2.1859459748289294,17.19099563541382,0.8808494709300313,2.3792505756214815
147.0,2.1792653829917734,17.23934225662528,0.8813776011263349,2.3873534171905266
148.0,2.1727222403607627,17.287983210838597,0.8818976873492953,2.395410440327741
149.0,2.166311478708622,17.336892050562334,0.8824096620471811,2.4034184106347745
150.0,2.1600417781331194,17.386043671961865,0.8829134587576906,2.411374085342442
151.0,2.153916193541057,17.43541229008756,0.8834090111292783,2.4192742209072464
152.0,2.147909706294574,17.48496766837892,0.8838962579701481,2.427115537762219
153.0,2.1420215085083503,17.534680908026253,0.8843751445887984,2.434894710970224
154.0,2.1362556371414767,17.584523588427853,0.8848456166729661,2.4426084129478687
155.0,2.130608334816695,17.634466297901355,0.8853076197486218,2.450253316689301
156.0,2.1250606184181766,17.68447632380364,0.8857611053175531,2.4578260636702134
157.0,2.119612071837922,17.734521934239,0.8862060316286547,2.4653232609809805
158.0,2.1142634663707045,17.784571510776843,0.8866423571284066,2.472741514726648
159.0,2.109015573311297,17.834593434986566,0.8870700402632882,2.4800774310122597
160.0,2.1038664571661805,17.884555476577614,0.8874890400320662,2.4873276131353776
161.0,2.098805689169714,17.934422423135327,0.8878993224774026,2.494488648587874
162.0,2.0938266571280226,17.98415881622389,0.8883008584066383,2.5015571215174894
163.0,2.0889231388873504,18.033729252637308,0.8886936187122092,2.5085296162595734
164.0,2.0840889122939417,18.083098329169598,0.8890775742865508,2.5154027171494744
165.0,2.0793216734577977,18.132230781638228,0.8894526969225085,2.5221730094435695
166.0,2.0746251513760963,18.18109055367976,0.8898189645967072,2.5288370977002605
167.0,2.069989833194934,18.229640035271295,0.8901763574101973,2.5353916026283465
168.0,2.065405312589346,18.27784154966358,0.8905248554257018,2.5418331453491163
169.0,2.0608671870381916,18.32565770403108,0.8908644398878097,2.548158357957022
170.0,2.0563782279926417,18.373051136261317,0.891195095566165,2.554363908529195
171.0,2.0519351470042975,18.419983942754126,0.8915168082677496,2.560446483389138
172.0,2.047534548151393,18.46641799595388,0.891829565333328,2.5664027955343247
173.0,2.0431734590119905,18.512314973297993,0.8921333556063653,2.5722295890100977
174.0,2.038848940414537,18.55763640955326,0.8924281693192248,2.577923642079577
175.0,2.034558295110702,18.602343766854865,0.8927139980134996,2.5834817709680213
176.0,2.030298966397837,18.6463984759969,0.8929908344519559,2.588900833557874
177.0,2.0260686294533974,18.689761996371207,0.8932586725336852,2.594177733112819
178.0,2.0218651431371235,18.73239585966765,0.8935175072090952,2.5993094220764177
179.0,2.0176865810872644,18.774261722099336,0.893767334396487,2.6042929058711803
180.0,2.0135312215495027,18.815321412415557,0.8940081508998768,2.6091252467533708
181.0,2.0093975617806095,18.855536983092847,0.8942399543280498,2.613803567652796
182.0,2.0052843200784762,18.89487076086801,0.8944627430152445,2.61832505603692
183.0,2.0011904405181795,18.93328539827278,0.8946765159433671,2.6226869677591185
184.0,1.9971150993473694,18.970743925929405,0.8948812726660088,2.626886630887171
185.0,1.9930577076969112,19.007209805134096,0.8950770132344178,2.6309214495204296
186.0,1.9890179138103996,19.042646980762406,0.8952637381253453,2.6347889075400994
187.0,1.9849956124123145,19.077019935474965,0.8954414481713597,2.638486572348167
188.0,1.980990933629029,19.110293741922824,0.8956101444929957,2.6420120985010316
189.0,1.9770042682079683,19.14243411908609,0.8957698284340012,2.6453632313146382
190.0,1.9730362338941332,19.17340748248527,0.8959205014982223,2.648537810349707
191.0,1.9690877106573974,19.203181001630238,0.8960621652901817,2.65153377282919
192.0,1.965159768587574,19.231722646696998,0.8961948214569182,2.654349156992951
193.0,1.9612537885223653,19.259001253717592,0.8963184716354152,2.6569821052160028
194.0,1.9573713634387973,19.284986568020145,0.896433117400015,2.6594308671216527
195.0,1.95351436244247,19.30964930281482,0.8965387602153158,2.661693802416115
196.0,1.9496848723701732,19.33296118600058,0.8966354013904808,2.66376938375502
197.0,1.9458852366255337,19.354895014561574,0.8967230420384824,2.665656199232382
198.0,1.9421180307809633,19.37542470362244,0.8968016830375554,2.667352954938154
199.0,1.9383860557727906,19.394525334211053,0.8968713249968706,2.6688584770902293
200.0,1.9346923658261277,19.412173205700626,0.8969319682257747,2.670171714208563
201.0,1.931040199694873,19.42834587514544,0.8969836127058808,2.671291738902925
202.0,1.9274330255018262,19.443022208932955,0.8970262580679406,2.6722177496201107
203.0,1.923874380308439,19.456182412902965,0.8970599035694424,2.672949072315011
204.0,1.920368162488738,19.467808103982637,0.8970845480829873,2.673485161500145
205.0,1.916918420843341,19.47788233072268,0.897100190081354,2.673825601364698
206.0,1.9135294294512182,19.486389619350597,0.8971068276308586,2.673970106415704
207.0,1.9102056348842582,19.49331600779404,0.8971044583860731,2.6739185222199358
208.0,1.9069516464072933,19.498649078758525,0.8970930795900043,2.673670825583923
209.0,1.9037722775358203,19.502377999144894,0.8970726880779714,2.6732271247876858
210.0,1.9006723442851563,19.504493530746043,0.8970432802827477,2.672587659495663
211.0,1.89765675386051,19.504988073990855,0.8970048522462225,2.6717528008016247
212.0,1.894730662764197,19.50385570865113,0.896957399637645,2.6707230504311252
213.0,1.8918994052727396,19.501092208208565,0.8969009177729275,2.6694990396991365
214.0,1.889168413041459,19.49669505463685,0.8968354016366584,2.6680815286240467
215.0,1.886543213657613,19.49066345543307,0.8967608459094896,2.6664714045270808
216.0,1.884029459011493,19.482998364028845,0.8966772449989469,2.6646696806735757
217.0,1.8816325800625677,19.473702460274033,0.8965845930695675,2.662677494856885
218.0,1.8793581828452837,19.46278020799137,0.8964828840856188,2.6604961078394216
219.0,1.8772120534430485,19.450237856452205,0.8963721118540444,2.6581269008074817
220.0,1.875200047814335,19.436083430900073,0.8962522700685783,2.6555713729419304
221.0,1.8733280531296426,19.420326730722834,0.8961233523576275,2.6528311390756993
222.0,1.8716019538051762,19.402979322640412,0.8959853523354048,2.6499079270023334
223.0,1.870027418455036,19.384054517805,0.8958382636547142,2.6468035750250483
224.0,1.8686100638575143,19.36356738877353,0.8956820800683948,2.643520029479883
225.0,1.8673557679550181,19.34153478044797,0.8955167954938859,2.6400593409687017
226.0,1.8662703621228796,19.317975261045692,0.8953424040736623,2.6364236611199803
227.0,1.865359632999245,19.29290910267988,0.8951589002412181,2.6326152392126625
228.0,1.8646293086853545,19.26635825875982,0.8949662787897041,2.628636418821299
229.0,1.8640846614142792,19.23834630393922,0.8947645349420383,2.624489634702044
230.0,1.863731148053683,19.20889847636473,0.8945536644341688,2.6201774092558234
231.0,1.8635742613782977,19.178041619422054,0.8943336635875169,2.615702348286169
232.0,1.8636194021901513,19.14580413106029,0.8941045293848361,2.611067137182854
233.0,1.8638718668096592,19.112215924295814,0.8938662595498159,2.6062745371829843
234.0,1.8643366519350544,19.077308365943342,0.8936188526274703,2.6013273816131575
235.0,1.8650184347456722,19.041114239987376,0.8933623080766339,2.5962285724946224
236.0,1.865922094224987,19.0036677458158,0.8930966263568348,2.5909810762044416
237.0,1.8670523964482608,18.96500440693978,0.8928218090076699,2.585587919308323
238.0,1.8684139518345215,18.92516101263053,0.8925378587357772,2.5800521847334212
239.0,1.8700111269369544,18.884175550936057,0.8922447795010453,2.574377007890143
240.0,1.8718477911220495,18.84208713098451,0.8919425766170556,2.5685655731723838
241.0,1.87392796254437,18.79893598542311,0.8916312568485953,2.562621109989539
242.0,1.8762555551706617,18.754763369053727,0.8913108284907778,2.556546888611313
243.0,1.8788342631330797,18.709611477337262,0.8909813014558204,2.5503462164153716
244.0,1.8816675984094575,18.663523384638363,0.8906426873711162,2.544022434361859
245.0,1.884758579711136,18.616542941180793,0.8902949996752176,2.5375789133872035
246.0,1.8881102542461388,18.568714753115927,0.8899382537207767,2.531019050861359
247.0,1.8917255001495206,18.520084080780304,0.8895724668572407,2.5243462669243004
248.0,1.8956069997000895,18.470696757522397,0.8891976585183249,2.517564001047081
