Time,J,A,S,tau
0.0,100.0,10.0,0.8632859174159075,2.129906416598646
1.0,89.92047180258119,13.086278474251204,0.8505091858946495,1.9624321824968223
2.0,79.74776550996904,15.654065240593182,0.8400145931925729,1.8232401014153872
3.0,71.45150224172463,16.488218258366,0.8398503403665795,1.821468654632036
4.0,64.74790926280717,16.32597044844553,0.8396935219372577,1.81978118252988
5.0,59.08833247975258,15.836991733883409,0.8395442056061837,1.8181778678144922
6.0,54.09698471205007,15.373579447920815,0.8394024558571139,1.8166588827287957
7.0,49.58091362038036,15.048098442230206,0.8392683339171422,1.815224389156103
8.0,45.43864514121023,14.867014138473019,0.8391418977155725,1.8138745387015507
9.0,41.61919890053266,14.795435798247304,0.8390232018531376,1.8126094727999182
10.0,38.10069030608859,14.788527860860938,0.8389122975669264,1.8114293227987968
11.0,34.87325509202593,14.808792344117455,0.8388092326982911,1.8103342100374389
12.0,31.92739729768462,14.832686033084654,0.8387140516668684,1.8093242459366248
13.0,29.24899351079478,14.849721257519912,0.8386267954399157,1.8083995320620383
14.0,26.819321514204354,14.858043485351613,0.8385475014997344,1.8075601601553257
15.0,24.617212415125373,14.859817701922163,0.8384762038419401,1.806806212272583
16.0,22.621316916929622,14.858094907894436,0.8384129329387457,1.8061377607990583
17.0,20.811632845978856,14.855271374931695,0.8383577157171433,1.8055548684809561
18.0,19.17012377878873,14.852709521234438,0.8383105755545766,1.8050575885097053
19.0,17.680774250440447,14.850922106762182,0.8382715322660492,1.8046459645681985
20.0,16.32936520138074,14.849918328393406,0.8382406020850535,1.8043200308522345
21.0,15.103198574103184,14.8495056392891,0.8382177976479033,1.80407981207487
22.0,13.990818882663438,14.849473581017088,0.8382031279993349,1.803925323530428
23.0,12.981816836533392,14.84967181139786,0.8381965985890921,1.803856571120628
24.0,12.066694610353938,14.8500220793215,0.8381982112633232,1.803873551359226
25.0,11.236792314426886,14.850499650378184,0.838207964255874,1.8039762513490598
26.0,10.484212968984066,14.851108655697136,0.8382258522034987,1.8041646488245071
27.0,9.8017633785451,14.851863380576237,0.8382518661520701,1.8044387121576058
28.0,9.182897412731073,14.852777764029527,0.8382859935584784,1.8047984003451314
29.0,8.621673714802462,14.853861544412517,0.8383282182892745,1.8052436629596091
30.0,8.112699178329503,14.855120334953694,0.8383785206449558,1.8057744401692846
31.0,7.651078251184693,14.856557168167319,0.838436877375816,1.8063906627248998
32.0,7.232365476256663,14.858174119802666,0.8385032616941303,1.8070922519287829
33.0,6.8525307767482495,14.859973458690481,0.8385776432805222,1.8078791195616277
34.0,6.507918968837283,14.861958215591994,0.8386599883166,1.808751167879402
35.0,6.195213918745279,14.864132340663259,0.8387502595103308,1.8097082895819983
36.0,5.911404879858162,14.866500643193381,0.8388484161192614,1.8107503677705907
37.0,5.653766424564186,14.869068687416393,0.8389544139624638,1.8118772758364938
38.0,5.419827012007738,14.871842668057234,0.8390682054628168,1.8130888774515799
39.0,5.207346551286904,14.874829336958722,0.8391897396769227,1.8143850265019883
40.0,5.014293954176118,14.878035958171257,0.8393189623319577,1.815765567037082
41.0,4.838831192689454,14.88147031092749,0.8394558158482617,1.817230333151568
42.0,4.679292632161117,14.885140671976593,0.8396002393875418,1.8187791489508793
43.0,4.534169681320114,14.889055816398438,0.8397521688876141,1.8204118284571746
44.0,4.402094746784419,14.893224994902099,0.8399115371072098,1.822128175544126
45.0,4.28183297476302,14.897657981500947,0.8400782736570075,1.8239279837895437
46.0,4.1722649416085495,14.902365015358562,0.8402523050567797,1.8258110364435634
47.0,4.072376053277918,14.907356774092671,0.8404335547830075,1.827777106338799
48.0,3.981251352652846,14.912644444836472,0.8406219433005435,1.829825955709724
49.0,3.898061242934163,14.91823963123393,0.8408173881278205,1.831957336166006
50.0,3.8220541963834482,14.9241543330102,0.8410198038920209,1.8341709885984978
51.0,3.7525526802466365,14.930401021956083,0.8412291023526021,1.8364666429374905
52.0,3.6889423140145796,14.93699252776973,0.8414451924949921,1.8388440182077288
53.0,3.630666968551439,14.943942038614107,0.841667980561769,1.8413028223104317
54.0,3.5772250830795915,14.951263154304433,0.8418973701385801,1.8438427520138374
55.0,3.528163731734347,14.958969868712824,0.8421332621714223,1.8464634926594623
56.0,3.483074143325708,14.967076536240732,0.8423755550096306,1.8491647179395792
57.0,3.441583509360903,14.975597657606253,0.8426241445564039,1.851946090195063
58.0,3.4033543071022803,14.98454798953802,0.8428789243184229,1.8548072602513923
59.0,3.3680909921643556,14.993943183784323,0.8431397853152746,1.857747866434701
60.0,3.3355159938319265,15.003798441275256,0.8434066163134809,1.8607675353758668
61.0,3.3053780398125845,15.01412916092396,0.8436793039434176,1.8638658821718392
62.0,3.2774641533280047,15.02495207652365,0.8439577324623869,1.867042508433415
63.0,3.2515613573639905,15.036282388922686,0.8442417841681917,1.8702970042704499
64.0,3.2275083115501637,15.048138297215726,0.8445313392329413,1.873628946528238
65.0,3.205125664536323,15.060535086307237,0.844826275985945,1.877037900328281
66.0,3.184263531875658,15.073489063938046,0.8451264707327131,1.8805234169992235
67.0,3.164798756827286,15.087018017881897,0.8454317980166484,1.884085035228065
68.0,3.1465997181832304,15.101137891703038,0.8457421306596973,1.887722280922023
69.0,3.1295622304014312,15.115866121620025,0.8460573396721898,1.8914346654953236
70.0,3.113596163408257,15.131220806784462,0.8463772945938678,1.8952216880126214
71.0,3.0986013006705853,15.147217992452449,0.8467018634140396,1.8990828339405397
72.0,3.084497045976923,15.163874525655025,0.847030912544332,1.9030175736864436
73.0,3.0712327652478604,15.181210199667253,0.8473643071191451,1.9070253646878628
74.0,3.058730900298555,15.199241073772455,0.8477019109438839,1.911105650241943
75.0,3.0469336062159265,15.217984124048417,0.8480435865730832,1.9152578591420253
76.0,3.035789826432996,15.237456464711908,0.8483891954020184,1.9194814057287548
77.0,3.0252525144685296,15.257675164328981,0.8487385977400307,1.9237756897074303
78.0,3.0152801766522512,15.278657376421231,0.8490916528863338,1.9281400959646549
79.0,3.005835144249593,15.300420106485145,0.8494482192074108,1.932573994432598
80.0,2.996883699527528,15.322980238875518,0.8498081542089125,1.9370767398413584
81.0,2.9883955252873045,15.346354481025811,0.8501713146122963,1.9416476715349218
82.0,2.9803444374094825,15.370559480873903,0.8505375564329362,1.9462861133144307
83.0,2.9727066016606694,15.395611629324115,0.8509067350561419,1.9509913732842918
84.0,2.9654599919725477,15.421526975181743,0.8512787053108173,1.9557627436138258
85.0,2.958585076605962,15.448321316661554,0.8516533215458013,1.9605995003470218
86.0,2.952064801330736,15.476010271076838,0.8520304377045951,1.9655009031430515
87.0,2.9458840468897005,15.504609195695538,0.8524099074025847,1.970466195162596
88.0,2.9400287479310006,15.534133063200722,0.8527915840003529,1.975494602820466
89.0,2.934486738170108,15.56459657295093,0.853175320678833,1.9805853354846308
90.0,2.929247356698187,15.596014097869533,0.8535609705147755,1.9857375853589876
91.0,2.9243008204045,15.62839959674606,0.8539483865537996,1.9909505272270367
92.0,2.9196377826936297,15.661766538635842,0.8543374218842485,1.9962233181369275
93.0,2.9152513666783553,15.69612818361981,0.8547279297131694,2.00155509719543
94.0,2.91113483020886,15.731497265105238,0.8551197634370045,2.006944985332265
95.0,2.9072818170994577,15.767885987287634,0.8555127767150681,2.012392084995182
96.0,2.903686867628226,15.805306082262346,0.8559068235422396,2.017895479894637
97.0,2.9003451188208134,15.843768774812714,0.8563017583209793,2.0234542347017337
98.0,2.8972521483994282,15.883284748939682,0.8566974359323467,2.029067394763658
99.0,2.894403913880105,15.92386412478453,0.8570937118072666,2.034733985780929
100.0,2.891796575183415,15.965516415100607,0.8574904419975672,2.0404530134664167
101.0,2.889426869803735,16.008250562612954,0.8578874832467984,2.046223463211835
102.0,2.8872917743419158,16.05207487417764,0.8582846930588618,2.0520442997537547
103.0,2.885388497024186,16.09699700201176,0.8586819297668262,2.057914466814548
104.0,2.883714426251784,16.143023918235023,0.859079052601387,2.063832886721987
105.0,2.882266921136353,16.190161866421725,0.8594759217583743,2.0697984600162513
106.0,2.881043382576234,16.238416351663506,0.859872398468128,2.0758100650021847
107.0,2.880041508271514,16.287792156540956,0.8602683450621058,2.0818665573419937
108.0,2.879259040612867,16.338293286707568,0.86066362503763,2.0879667696335567
109.0,2.8786937296969923,16.389922945192833,0.8610581031231546,2.0941095109543806
110.0,2.8783433251882573,16.442683510526884,0.8614516453431916,2.100293566383773
111.0,2.878205310338416,16.496576478664466,0.8618441190822071,2.106517696505455
112.0,2.878277238346673,16.551602486995197,0.8622353931510301,2.1127806368595845
113.0,2.8785566974144086,16.607761288787955,0.8626253378478476,2.1190810974472627
114.0,2.879041199743494,16.665051716859715,0.8630138250190439,2.1254177622016863
115.0,2.879728157622097,16.723471658368368,0.8634007281208004,2.1317892884189926
116.0,2.880614834562731,16.783018026363,0.863785922278774,2.1381943061899453
117.0,2.881698378982906,16.843686742813905,0.8641692843483818,2.1446314177945847
118.0,2.8829756052647033,16.905472686044188,0.8645506929733557,2.151099197086773
119.0,2.8844434128822054,16.96836972679599,0.864930028645101,2.1575961888589315
120.0,2.8860984984491465,17.03237066755504,0.865307173757384,2.164120908226322
121.0,2.8879374303225376,17.09746723228589,0.8656820126613725,2.1706718399887506
122.0,2.889956585923802,17.163650036263643,0.8660544317212495,2.1772474379507565
123.0,2.892152144648955,17.230908565004093,0.8664243193659412,2.183846124276287
124.0,2.8945201455882237,17.299231161481373,0.8667915661435021,2.190466288778478
125.0,2.89705635622852,17.368604988709595,0.8671560647693268,2.197106288271908
126.0,2.8997564620181517,17.439016036049896,0.8675177101787438,2.203764445844944
127.0,2.9026158053829545,17.510449065158472,0.867876399571712,2.210439050213783
128.0,2.905629707346664,17.58288763538562,0.8682320324630498,2.2171283549913916
129.0,2.9087930797091923,17.656314034067947,0.8685845107234895,2.2238305780514214
130.0,2.9121008728459987,17.730709320106108,0.8689337386272037,2.230543900805274
131.0,2.9155475685092314,17.806053240278786,0.8692796228887123,2.2372664675915597
132.0,2.91912774223576,17.882324289204075,0.8696220727079259,2.2439963849656985
133.0,2.9228354531015195,17.959499614673543,0.8699609998017322,2.2507317211426785
134.0,2.9266648913277447,18.037555089599948,0.8702963184476084,2.2574705052916633
135.0,2.9306097119306687,18.116465213666345,0.8706279455078731,2.26421072707555
136.0,2.9346636832901383,18.19620318545801,0.8709558004735584,2.2709503359327106
137.0,2.9388101632976458,18.276739654000973,0.8712798050628552,2.2776872468573517
138.0,2.943012882102274,18.35804125613387,0.8715998837067893,2.2844193325531545
139.0,2.9473005375846215,18.44008116455435,0.871915965773321,2.291144391817568
140.0,2.9517082315438072,18.522833269597804,0.872227980984545,2.2978602182039403
141.0,2.956187166672753,18.606260317646182,0.8725358603139105,2.3045645835671773
142.0,2.9607104034361966,18.69032372568571,0.8728395413139439,2.3112551590106647
143.0,2.9653063338933365,18.77499067703859,0.8731389632945692,2.3179295901501225
144.0,2.969988432536406,18.860226434466778,0.873434066140102,2.324585513380896
145.0,2.9747153831847077,18.94598804191781,0.8737247940878711,2.331220496778959
146.0,2.979474074395518,19.032233840536747,0.8740110939721196,2.3378320693629995
147.0,2.9842383533545473,19.118919161056365,0.8742929143641286,2.3444177332936675
148.0,2.989010765257031,19.206001529466644,0.8745702096402086,2.3509749035086127
149.0,2.993804905900121,19.293439578086506,0.8748429354226743,2.3575009763490518
150.0,2.9986176424840103,19.381189751099605,0.8751110475633777,2.3639933442938053
151.0,3.00340989923022,19.46920130845598,0.8753745071011847,2.3704493222626066
152.0,3.0081833373306215,19.557426249321697,0.8756332794110762,2.376866162350986
153.0,3.012942344923519,19.645816859263974,0.8758873299574524,2.383241115392859
154.0,3.0176683241224045,19.73432223766445,0.8761366245985379,2.389571425484089
155.0,3.0223435353431327,19.82288831653662,0.8763811370448018,2.3958542281829236
156.0,3.026963690700504,19.911461653222457,0.876620843742838,2.402086621966833
157.0,3.031524502309321,19.999988805063943,0.8768557211392406,2.4082657053132857
158.0,3.036021734314097,20.088416270340602,0.8770857458529328,2.414388574360019
159.0,3.040446913696297,20.17668801577647,0.8773108992027991,2.4204522664714703
160.0,3.04478349202337,20.264744677967332,0.8775311676511016,2.4264537577568515
161.0,3.049014195540786,20.352526673112074,0.8777465379212185,2.432390021496518
162.0,3.05313267979338,20.439975576486876,0.877956996978756,2.4382580281943405
163.0,3.057151249975889,20.527033520918067,0.8781625362388369,2.444054705402418
164.0,3.0610451704295203,20.613637152366298,0.8783631507248729,2.4497769481473695
165.0,3.064787030729964,20.69972278026455,0.8785588355512198,2.4554216507130007
166.0,3.068367399659388,20.78522815211669,0.87874958712404,2.4609856997316473
167.0,3.0717947974531543,20.87009193508849,0.8789354054368608,2.466465960640062
168.0,3.075060277076901,20.95425089983576,0.8791162918816425,2.471859293862205
169.0,3.078155274147081,21.03764124286748,0.8792922496361419,2.4771625559332535
170.0,3.081071468382391,21.120198442728626,0.8794632835922191,2.482372603009848
171.0,3.083800928278137,21.20185754588788,0.87962940026021,2.487486294659398
172.0,3.0863359375752566,21.28255325646948,0.8797906076744431,2.4925004977725402
173.0,3.088669078550774,21.362220072451127,0.8799469152949502,2.4974120906232264
174.0,3.09079318741505,21.440792375135462,0.880098333906882,2.5022179670509237
175.0,3.092701387451441,21.51820452246769,0.8802448755183501,2.506915040778529
176.0,3.094387095599112,21.59439093218672,0.8803865532555616,2.511500249828854
177.0,3.0958440295997876,21.66928616455177,0.8805233812570068,2.5159705610619727
178.0,3.0970662516687115,21.742825009846598,0.8806553745656606,2.5203229747869114
179.0,3.098048246785647,21.814942582079123,0.8807825490207786,2.524554529476121
180.0,3.09878485646531,21.885574398230432,0.8809049211484784,2.528662306578152
181.0,3.099271239806276,21.954656462028325,0.8810225080509262,2.532643435324318
182.0,3.0995029616518397,22.022125365625104,0.8811353272961165,2.536495097582268
183.0,3.099475997072431,22.087918382434776,0.881243396807838,2.540214532739508
184.0,3.0991867507875748,22.15197356362801,0.8813467347562024,2.543799042600725
185.0,3.0986320675154206,22.21422983425231,0.8814453594489841,2.5472459962747545
186.0,3.0978093144534333,22.27462709918222,0.8815392892243331,2.5505528350399027
187.0,3.096716388513902,22.333106341248754,0.8816285423446185,2.5537170772403015
188.0,3.0953515471947854,22.38960969708748,0.881713136891641,2.556736323050241
189.0,3.0937135209856432,22.444080566545537,0.8817930906651511,2.559608259112164
190.0,3.0918015338208957,22.496463711567248,0.8818684210836892,2.562330663140293
191.0,3.0896153101983077,22.546705352443524,0.8819391450884376,2.56490140839476
192.0,3.0871550658636604,22.594753261966876,0.882005279050157,2.567318468058119
193.0,3.084421546519136,22.640556863898457,0.8820668386800582,2.569579919431407
194.0,3.0814160978499117,22.68406733492236,0.8821238389443764,2.5716839480185767
195.0,3.0781405502988437,22.725237683077374,0.88217629398235,2.573628851470515
196.0,3.0745971457121275,22.76402282695034,0.8822242170299279,2.575413043199025
197.0,3.070788655476734,22.800379698296748,0.8822676203484916,2.577035055832353
198.0,3.066718341392553,22.834267321831764,0.8823065151584609,2.578493544435904
199.0,3.0623899628427815,22.86564690028299,0.8823409115778905,2.5797872895533813
200.0,3.0578077858310073,22.89448189486476,0.882370818567393,2.5809151999180537
201.0,3.0529765306032237,22.92073809729531,0.8823962438799444,2.5818763149924315
202.0,3.047901437498024,22.944383711570453,0.8824171940179216,2.582669807135006
203.0,3.042588181857883,22.965389414773554,0.882433674195161,2.583294983574888
204.0,3.0370430101092607,22.983728441935135,0.8824456883064196,2.583751288039109
205.0,3.031272452726425,22.9993766130867,0.8824532389020447,2.5840383021139712
206.0,3.025283520376863,23.012312417537107,0.8824563271710884,2.584155746229546
207.0,3.019083579916041,23.022517051910448,0.8824549529301328,2.5841034803587752
208.0,3.0126804285773927,23.0299744818682,0.8824491146188727,2.583881504448685
209.0,3.006082209355304,23.034671475362885,0.8824388093028868,2.5834899584557696
210.0,2.999297433053293,23.036597648586373,0.8824240326824462,2.582929122166638
211.0,2.9923349426028008,23.035745495375732,0.8824047791091689,2.5821994145760017
212.0,2.985203882725435,23.03211041628389,0.8823810416080737,2.5813013930891917
213.0,2.9779137115492853,23.025690743682603,0.8823528119078036,2.5802357522614146
214.0,2.9704741223358275,23.016487753623046,0.8823200804757301,2.5790033223872375
215.0,2.96289509704953,23.00450568567434,0.8822828365612324,2.5776050676293276
216.0,2.9551867874207542,22.989751737900153,0.8822410682434321,2.5760420840133227
217.0,2.9473596030713054,22.972236080211694,0.8821947624868347,2.574315596982398
218.0,2.939424060605592,22.951971833207566,0.8821439052010557,2.5724269588290096
219.0,2.9313908981603074,22.928975073765603,0.8820884813079714,2.570377645718973
220.0,2.923270901376508,22.903264798733822,0.8820284748125882,2.5681692546033545
221.0,2.9150750365176474,22.874862921595934,0.8819638688807042,2.565803499762419
222.0,2.906814261555441,22.84379422211866,0.8818946459198965,2.563282209251086
223.0,2.89849967083649,22.810086333141392,0.8818207876665554,2.560607321019058
224.0,2.890142298506198,22.773769677331618,0.8817422752758179,2.5577808789513234
225.0,2.88175326873625,22.734877443414817,0.8816590894167203,2.5548050286260864
226.0,2.873343597658315,22.693445511213575,0.8815712103697864,2.551682013017623
227.0,2.864924344081651,22.649512416899327,0.881478618128941,2.548414167957971
228.0,2.856506415296517,22.603119267534,0.8813812925053842,2.545003917573187
229.0,2.8481007137546364,22.554309695147374,0.8812792132348258,2.541453769517879
230.0,2.8397179517856976,22.50312976209195,0.881172360086229,2.537766310217615
231.0,2.8313687896507838,22.449627903872983,0.8810607129728664,2.5339441999472028
232.0,2.8230636645988993,22.393854826874687,0.8809442520645021,2.529990167951732
233.0,2.8148129146334004,22.33586343987497,0.8808229579007387,2.525907007439981
234.0,2.8066266290914883,22.275708745985018,0.880696811505221,2.5216975706544646
235.0,2.7985147502372634,22.213447762618255,0.8805657944997368,2.517364763850339
236.0,2.79048695496242,22.14913940992793,0.8804298892190614,2.5129115423813246
237.0,2.7825527231413183,22.08284441873848,0.8802890788243098,2.5083409057320236
238.0,2.7747212642217502,22.014625218377166,0.8801433474170782,2.5036558926815946
239.0,2.76700153605971,21.944545831532437,0.8799926801506311,2.4988595764537656
240.0,2.7594022362366597,21.872671765210075,0.879837063342003,2.4939550600142644
241.0,2.7519317481224985,21.799069890712847,0.8796764845797811,2.48894547139768
242.0,2.7445982243674982,21.723808342448578,0.8795109328327254,2.483833959188905
243.0,2.7374094264079423,21.64695638003085,0.8793403985533126,2.478623688078909
244.0,2.730372810347973,21.568584284074426,0.879164873781105,2.4733178345740088
245.0,2.7234955871800843,21.48876324542572,0.8789843522424929,2.467919582825558
246.0,2.7167845045842487,21.4075652192625,0.8787988294482336,2.4624321205943303
247.0,2.710246158238036,21.325062846328017,0.8786083027856069,2.456858635383395
248.0,2.703886727646811,21.241329298073744,0.8784127716096117,2.451202310710253
249.0,2.6977121304474228,21.15643817861795,0.8782122373278469,2.44546632256323
