Time,J,A,S,tau
0.0,100.0,100.0,0.9999243671349364,5.555555555555555
1.0,99.35920661299342,92.00241346357757,0.9998803660620222,5.176626657211469
2.0,98.76556053525586,84.89249098925248,0.9998431387328462,4.827381693247627
3.0,98.29119373550358,78.55944179172164,0.9998119126115944,4.508140754690528
4.0,98.1191661617693,72.90530349149299,0.999785971236714,4.219047796798634
5.0,99.16925071379616,67.38145910869076,0.9997984220040194,4.24795691921431
6.0,102.00953578017085,62.35107057943062,0.9998165945271899,4.343533527818537
7.0,108.2508474036248,57.882989152426,0.9998330570489115,4.4438028815614
8.0,120.5609584045352,54.00126464381929,0.9998479619593212,4.54914829094548
9.0,142.32434456089817,50.831316538963236,0.9998614493842616,4.659989073711599
10.0,176.1994940787186,48.718101098371385,0.9998736479912834,4.776782952007637
11.0,220.67731884080385,48.32793721942618,0.9998846757670653,4.900028344592101
12.0,266.1420398921147,50.73125257487166,0.9998946407630257,5.0302664491173825
13.0,296.45814944862076,57.44671614296869,0.9999036418085913,5.168083047940459
14.0,300.63581442030767,70.2830797861093,0.9999117691896025,5.314109909112821
15.0,281.62288181839335,90.8029561709395,0.9999191052917055,5.469025658024311
16.0,248.25054138245304,119.15410005400604,0.9999257252088404,5.633555973455566
17.0,207.30306621247215,152.57024606480033,0.9999316973154705,5.808472968387016
18.0,165.86216747974566,184.78292136385838,0.9999370838050191,5.994593578059992
19.0,132.04692234909217,208.1294925144787,0.9999419411932763,6.192776811748534
20.0,110.91464018130053,218.2327998522689,0.999946320789019,6.403919703559673
21.0,101.30213720072663,216.93921071864526,0.9999502691327081,6.628951845574195
22.0,98.2188198539456,209.66885992038,0.9999538284034452,6.868828360016481
23.0,97.52054578611545,200.71960356386657,0.9999570367970955,7.124521305059489
24.0,97.43377484830658,191.8810218411664,0.9999599288757637,7.397009469718365
25.0,97.53815435237317,183.57933136741562,0.999962535891074,7.687266654552181
26.0,97.87952899064618,175.848963872805,0.9999648860827749,7.996248679730546
27.0,98.73676013618352,168.65317645249203,0.9999670049533339,8.324879107581435
28.0,100.68261479840027,161.94818897693725,0.9999689155164803,8.67403424971369
29.0,104.74623603796198,155.6929330047656,0.9999706385304014,9.044527899822501
30.0,112.62088093402345,149.85011612938095,0.9999721927092691,9.437096159946865
31.0,126.88242548221045,144.38609418869532,0.9999735949165073,9.852382968886905
32.0,151.17545566403297,139.27062653617241,0.9999748603414056,10.290926895539243
33.0,190.318492219581,134.4766738269357,0.9999760026600384,10.753149741475571
34.0,250.2862941177621,129.98024584952444,0.9999770341819932,11.239347469315392
35.0,338.0442266137232,125.76027133175825,0.999977965983658,11.749683840457502
36.0,461.2345293191438,121.79845485322517,0.9999788080293291,12.284187067211212
37.0,627.7413553264545,118.07908723353603,0.9999795692810406,12.842749607834483
38.0,845.1829627385495,114.58878070426336,0.999980257798085,13.425131104580252
39.0,1120.3925483143216,111.31611831978731,0.9999808808271013,14.030964299666321
40.0,1458.9497075450731,108.25122726436635,0.9999814448833173,14.659763594398775
41.0,1864.8165512231528,105.38530780550697,0.9999819558243287,15.31093593257796
42.0,2340.1123800323517,102.71016261530525,0.9999824189165938,15.983793415220713
43.0,2885.027660066038,100.21777093277925,0.9999828388929244,16.67756687978872
44.0,3173.4098020288193,59.247412159928714,0.9999832200116696,17.391421296786874
45.0,3173.1339369189145,21.971683307625614,0.9999835660991881,18.12446923056442
46.0,3172.815542631664,8.285797774150254,0.9999838805965922,18.875785994097402
47.0,3172.4557506373676,3.2772339874753347,0.9999841665984639,19.64442320772822
48.0,3172.056864001823,1.4593185065492202,0.9999844268879929,20.429421455632685
49.0,3171.6221733632715,0.8130313528445298,0.9999846639686383,21.22982172570515
50.0,3171.1557340477298,0.5951561810555712,0.9999848800925745,22.044675462256
51.0,3170.662128779685,0.5319613409178562,0.9999850772862424,22.873053161653683
52.0,3170.14623650667,0.5225723333441527,0.9999852573733005,23.71405150620957
53.0,3169.613022555649,0.529836072717372,0.9999854219952352,24.566799084490658
54.0,3169.067359831404,0.5401521454411572,0.9999855726298804,25.43046078331747
55.0,3168.5138858525775,0.5486728698975074,0.9999857106080461,26.30424096572249
56.0,3167.9568961396167,0.5538378500851334,0.999985837128393,27.187385599484724
57.0,3167.4002725289415,0.5553419360836837,0.9999859532710941,28.079183267038484
58.0,3166.847443085301,0.5534093504167025,0.9999860600106124,28.97896499310284
59.0,3166.301356657205,0.5482494199051011,0.9999861582210616,29.88610785805143
60.0,3165.764511115586,0.5403913467825752,0.9999862486961862,30.800027289754325
61.0,3165.2389439941207,0.5302850231335308,0.9999863321495807,31.720180901763715
62.0,3164.726277458927,0.5183446910378061,0.999986409225527,32.646065505567286
63.0,3164.2277525470695,0.5049651368200091,0.9999864805056379,33.57721547955093
64.0,3163.744270977695,0.49050297450529495,0.9999865465155596,34.51320052422578
65.0,3163.276433627686,0.47527383456839944,0.9999866077301308,35.45362396137557
66.0,3162.8245839046085,0.4595596668836209,0.9999866645788406,36.39812043468154
67.0,3162.388844654832,0.4435970692767453,0.9999867174501322,37.34635400611739
68.0,3161.9691556695066,0.42759177506877943,0.9999867666957442,38.29801595476748
69.0,3161.565305070351,0.4117092469504567,0.9999868126341709,39.25282295455701
70.0,3161.176959569345,0.39608988992092864,0.9999868555541825,40.21051501304276
71.0,3160.803689193495,0.38084158751275365,0.9999868957176009,41.1708538043252
72.0,3160.4449902018787,0.3660526692142906,0.9999869333621523,42.1336208041672
73.0,3160.100303510727,0.35178736645560416,0.9999869687036965,43.09861580823053
74.0,3159.7690311349106,0.33809476019542894,0.9999870019385393,44.065655285656426
75.0,3159.450549270127,0.32500777900588074,0.999987033245225,45.03457108848654
76.0,3159.144219475052,0.3125473385296869,0.9999870627864117,46.00520902395052
77.0,3158.849397517233,0.30072507246129726,0.9999870907103153,46.977427746378744
78.0,3158.5654405211308,0.2895427293175843,0.9999871171522305,47.95109753558341
79.0,3158.291712609907,0.2789982374907102,0.9999871422356981,48.92609935469411
80.0,3158.0275890934117,0.26908110235786253,0.9999871660737379,49.90232381528319
81.0,3157.772459772286,0.2597810993453409,0.9999871887697965,50.87967038131788
82.0,3157.525731034616,0.25108058795437194,0.9999872104187483,51.858046498745196
83.0,3157.2868275047085,0.24296511819647665,0.9999872311076657,52.8373669253211
84.0,3157.0551927121783,0.23541352919028724,0.9999872509166352,53.81755300198249
85.0,3156.8302895983,0.228409838085039,0.9999872699193856,54.79853208934489
86.0,3156.6116002434405,0.2219318650855732,0.9999872881839535,55.78023695931699
87.0,3156.398625602363,0.21596388812832198,0.9999873057732005,56.76260532080429
88.0,3156.190884632116,0.2104843851740528,0.9999873227453567,57.74557931192244
89.0,3155.9879135158512,0.20547905942120312,0.9999873391544485,58.729105099452546
90.0,3155.789264422298,0.20092813985584002,0.9999873550507454,59.71313245420557
91.0,3155.5945043922334,0.19681949718977823,0.9999873704811167,60.697614410776175
92.0,3155.403213877217,0.1931358086640993,0.9999873854894006,61.6825069108104
93.0,3155.2149853991073,0.1898675869791023,0.9999874001167038,62.66776851144928
94.0,3155.0294219542934,0.18700040043548774,0.9999874144017104,63.65336008328889
95.0,3154.8461355092263,0.18452772380827076,0.9999874283809357,64.63924455751813
96.0,3154.664745310929,0.18243831104707434,0.9999874420889869,65.62538666714586
97.0,3154.4848762459355,0.18072884819185034,0.9999874555587835,66.61175272418944
98.0,3154.3061570636773,0.17939150131591208,0.9999874688217785,67.59831039423857
99.0,3154.1282185986347,0.178426408776557,0.9999874819081525,68.5850284961363
100.0,3153.9506918861853,0.17782936932877547,0.9999874948470077,69.57187680114043
101.0,3153.7732062249524,0.17760425625830115,0.9999875076665409,70.55882584836404
102.0,3153.5953871414413,0.1777507669256065,0.9999875203942171,71.54584676068228
103.0,3153.4168542488405,0.1782768766578436,0.9999875330569288,72.53291106977294
104.0,3153.2372189943285,0.1791865391012963,0.9999875456811551,73.51999054150366
105.0,3153.0560822494876,0.18049232483738914,0.9999875582931127,74.50705700474174
106.0,3152.873031749781,0.18220294022954564,0.9999875709189064,75.49408217924362
107.0,3152.6876393278962,0.18433621569818728,0.9999875835846768,76.48103750248816
108.0,3152.4994579257573,0.18690629853065627,0.9999875963167473,77.4678939530706
109.0,3152.3080183528386,0.18993716905067537,0.9999876091417729,78.45462186964536
110.0,3152.112825713736,0.19344936069461885,0.9999876220868898,79.44119076248236
111.0,3151.9133555355916,0.19747418827480392,0.9999876351798686,80.42756911816554
112.0,3151.7090494047084,0.2020398583460662,0.9999876484492715,81.41372419126785
113.0,3151.4993102563585,0.2071865907691931,0.9999876619246141,82.39962178770507
114.0,3151.283496946342,0.21295200807773948,0.9999876756365372,83.38522602737706
115.0,3151.060918426616,0.21938731608763729,0.9999876896169801,84.37049909797112
116.0,3150.830826884071,0.22654190930581705,0.9999877038993713,85.35540097782751
117.0,3150.5924104279547,0.23448074272005437,0.9999877185188185,86.33988915044867
118.0,3150.3447842698133,0.24327115916605746,0.9999877335123255,87.32391827351601
119.0,3150.0869814749817,0.25298974146336745,0.9999877489190011,88.30743984517498
120.0,3149.817941581902,0.26372551168759506,0.9999877647803048,89.29040180611825
121.0,3149.536498249452,0.27557813997010827,0.999987781140291,90.27274812588391
122.0,3149.241364948675,0.2886599078166565,0.9999877980458753,91.25441834042985
123.0,3148.9311184145167,0.3031018899451243,0.9999878155471206,92.23534703674854
124.0,3148.604179529188,0.3190521079523587,0.999987833697542,93.21546328101948
125.0,3148.258791543765,0.3366765058712799,0.9999878525544261,94.19468999490985
126.0,3147.892994718969,0.3561644861144978,0.9999878721791726,95.17294325790245
127.0,3147.504596554998,0.37773905598844953,0.9999878926376623,96.15013152162308
128.0,3147.09113713954,0.4016529345642302,0.9999879140006428,97.12615473842047
129.0,3146.649849200621,0.42819457399734195,0.9999879363441248,98.1009034064938
130.0,3146.1776102885933,0.4576929659851809,0.9999879597498105,99.07425747678818
131.0,3145.670886864511,0.49053535028697315,0.9999879843055319,100.0460851427937
132.0,3145.1256680553374,0.5271696078734741,0.9999880101057026,101.01624148366456
133.0,3144.537386933681,0.5681163963117118,0.9999880372517752,101.98456694162518
134.0,3143.900826610633,0.613983368012024,0.9999880658527024,102.95088561215239
135.0,3143.210007742159,0.6654823440420513,0.9999880960253849,103.9150033216172
136.0,3142.4580531833803,0.7234503223084874,0.9999881278950994,104.8767054633238
137.0,3141.6370242645867,0.7888787679153214,0.9999881615958865,105.83575455544897
138.0,3140.7377224342367,0.8629407736081364,0.9999881972708756,106.79188749390224
139.0,3139.7494470530487,0.9470243758377098,0.9999882350725192,107.74481244497689
140.0,3138.65969750757,1.0427923688822598,0.9999882751627092,108.69420531144192
141.0,3137.4538066212517,1.1522542224737125,0.9999883177127186,109.63970574021532
142.0,3136.1144873813564,1.277836031911685,0.9999883629029135,110.58091260616874
143.0,3134.6212654356827,1.422462966613377,0.9999884109221772,111.51737883827153
144.0,3132.9497670382475,1.5897248359756582,0.9999884619669529,112.448605518557
145.0,3131.0708239474097,1.7840558364673675,0.9999885162397931,113.37403518048293
146.0,3128.9493317703714,2.0108517627918867,0.9999885739472971,114.2930440802554
147.0,3126.54279315507,2.276878798716014,0.9999886352972777,115.20493333245855
148.0,3123.7994348712045,2.5906118751078737,0.9999887004949609,116.10891863327232
149.0,3120.655772609261,2.9626914495113708,0.9999887697379943,117.00411842592787
150.0,3117.033422972161,3.406656698973222,0.9999888432099954,117.8895400814432
151.0,3112.8348895770914,3.939859124439569,0.9999889210722929,118.76406366926713
152.0,3107.937985954837,4.584547005354982,0.9999890034535239,119.62642300619153
153.0,3102.188329572898,5.369736949747984,0.9999890904365811,120.47518303206496
154.0,3095.3891997619185,6.333480215517039,0.9999891820424335,121.30871289395414
155.0,3087.287677118151,7.526138736717978,0.9999892782102006,122.12515351054252
156.0,3077.555518428458,9.015116837478976,0.999989378772799,122.92237814186585
157.0,3065.7624965314126,10.891115149588666,0.9999894834274018,123.69794397059589
158.0,3051.338846330765,13.278141636176988,0.9999895916998509,124.44903193554511
159.0,3033.521699945342,16.34713269699279,0.9999897029020332,125.17237088940281
160.0,3011.277951863169,20.33678224237028,0.9999898160813172,125.86414093257245
161.0,2983.191594786932,25.583782110525775,0.9999899299608197,126.5198478514191
162.0,2947.297276747297,32.56977272943778,0.9999900428694763,127.13415757328053
163.0,2900.830980393641,41.99262342299541,0.9999901526606628,127.70067350426936
164.0,2839.8514357539207,54.877705322506415,0.9999902566181876,128.2116308472844
165.0,3216.016599764985,114.68977740050715,0.9999903513484381,128.65746710466365
166.0,3315.193895579505,220.08603760480895,0.9999904326573894,129.02620268973655
167.0,3180.10694106975,363.0832421372126,0.9999904954108998,129.30252029041972
168.0,2969.45293063133,561.1659498599959,0.9999905333765563,129.4663489568108
169.0,2669.202970291394,841.3914009102308,0.999990539044424,129.4905961189426
170.0,2233.5223032526496,1246.4301105369173,0.9999905034222308,129.3373327978367
171.0,1588.3275183426179,1844.991685035373,0.9999904157968658,128.95097935763653
172.0,779.7134022780774,2582.7476661020937,0.9999902634458584,128.24516874164246
173.0,779.7127799112961,2500.6043161176863,0.999990031273232,127.07490894957935
174.0,779.7120767693888,2418.7991715520475,0.9999897012438763,125.16776718680413
175.0,779.7112818596048,2337.396423354462,0.9999892514484825,121.91845421940816
176.0,779.7103826649341,2256.4627163172963,0.9999886539228183,115.51450560606423
177.0,779.7093649330044,2176.066988590427,0.999987867382083,95.19777906529808
178.0,779.7082124363096,2096.2802835491257,0.9999868866166152,41.09610815900983
179.0,779.7069067002104,2017.175535848824,0.9999858430635916,27.27322817744813
180.0,779.7054266945464,1938.8273303421854,0.9999847180049964,21.44547033691894
181.0,779.7037484841243,1861.3116343774184,0.9999834874566086,17.961633049189125
182.0,100.66186904555722,2449.971853478443,0.9999821321178003,15.564457951973887
183.0,97.35129922343341,2349.345936437469,0.9999806331318235,13.78525657675748
184.0,97.35099309982358,2246.863689114558,0.9999789706994009,12.40073988358901
185.0,97.35064556285536,2145.9539043125665,0.9999771234044911,11.287861514927831
186.0,97.3502509213812,2046.7237337807876,0.9999750677478444,10.371885347489457
187.0,97.34980271601276,1949.2792837442898,0.999972777773942,9.604161548426955
188.0,97.34929361112329,1853.725028539897,0.9999702247226024,8.951333004301977
189.0,97.34871528038916,1760.1631862847241,0.9999673766709805,8.389579332996991
190.0,97.34805827741422,1668.6930893587858,0.9999641981658806,7.901337242766809
191.0,97.34731189073163,1579.4105447798102,0.9999606498328056,7.473313601931997
192.0,97.34646398103828,1492.4071718937678,0.9999566879528726,7.095227572012109
193.0,97.34550080313947,1407.7697513463272,0.9999522640227175,6.758981331626617
194.0,97.34440679567855,1325.579647836454,0.9999473242620491,6.458104668678359
195.0,97.3431643659958,1245.9120617412996,0.9999418091012273,6.187353809453844
196.0,97.34175362137692,1168.835554885675,0.9999356526020776,5.942438705537295
197.0,97.34015210963646,1094.4114460730377,0.9999287819038377,5.719810007058164
198.0,97.33833449433784,1022.6931833207361,0.9999211165407751,5.516510519481982
199.0,97.33627220467703,953.7259553908405,0.9999125677606577,5.330058667653639
200.0,97.33393306878892,887.5463027419042,0.9999030378380288,5.158357550813236
201.0,97.33128087848173,824.1817051356327,0.9998924192694548,4.999626609300832
202.0,97.32827494326331,763.6501773718087,0.9998805939985663,4.852345718981336
203.0,97.32486955163377,705.9603182036484,0.9998674325229885,4.715212665218307
204.0,97.32101344735308,651.1107801273538,0.9998527930564574,4.587106426171986
205.0,97.3166491661899,599.0907275892515,0.9998365205314104,4.467059811255049
206.0,97.31171242659804,549.8793406503555,0.99981844573008,4.354234571347
207.0,97.30613131847656,503.44629783459663,0.9997983841592594,4.247903172406075
208.0,97.2998256089518,459.75191840567993,0.9997761352240851,4.147431480015902
209.0,97.29270586362752,418.7466464019823,0.999751481108502,4.052265748923426
210.0,97.28467246250163,380.37439669590316,0.999724185788256,3.9619217880164492
211.0,97.27561452410286,344.56951260854726,0.9996939937069909,3.8759751279493955
212.0,97.26540899225216,311.25837348711195,0.9996606290868348,3.79405218397531
213.0,97.25391953263805,280.36037997047583,0.9996237949911544,3.7158236079322746
214.0,97.24099515841583,251.79082143031542,0.9995831722311733,3.6409989072417193
215.0,97.22646898450013,225.456355543642,0.9995384183027652,3.5693209146751226
216.0,97.21015686325936,201.26032224044795,0.9994891667842172,3.5005615945139774
217.0,97.19185588740217,179.102812704268,0.9994350265069751,3.434518318976059
218.0,97.17134307227364,158.8795668681776,0.999375581065089,3.371010417413394
219.0,97.14837361911466,140.4847948279494,0.9993103881857393,3.3098766368143675
220.0,97.12268002922796,123.81158564121554,0.9992389794618312,3.2509726375432364
221.0,97.09398043360679,108.75263528788236,0.9991608602805845,3.1941688674745436
222.0,97.06208394753212,95.20070563449566,0.9990755098850039,3.1393487480709714
223.0,97.0277569014962,83.04963262121193,0.9989823817091628,3.086407107739083
224.0,96.99868490757629,72.19547654784246,0.9988809039023405,3.035248852006252
225.0,97.01899941115941,62.53681219271691,0.9987704804340921,2.985787679340922
226.0,97.28814992715023,53.97640148859325,0.9986504921561398,2.9379451070495475
227.0,98.52530774206186,46.42876128570092,0.9985202985027295,2.891649527736149
228.0,102.81475266357248,39.858328653489544,0.9983792394658533,2.846835433988022
229.0,114.72199625987749,34.43074709779138,0.9982266380139047,2.803442720788688
230.0,139.31875919313526,30.97517108612471,0.9980618029494611,2.761416080839426
231.0,167.0126605938978,31.996943437814497,0.9978840322283671,2.7207044759484504
232.0,165.7886660444729,42.589383399419305,0.9976926167597813,2.681260674454563
233.0,134.72860709662598,65.48743639613146,0.9974868447026303,2.64304084688856
234.0,103.96204619171814,82.63405566345632,0.997266006263936,2.606004211618444
235.0,96.3679936480348,75.49125394405208,0.9970293990036754,2.57011272450483
236.0,96.06751017726823,62.88678110659963,0.9967763336403589,2.5353308067975795
237.0,96.3757991284724,52.019657420129384,0.9965061403489652,2.5016251066601725
238.0,98.86173948107061,42.8699101630775,0.9962181755489372,2.4689642905501197
239.0,109.66488872675862,35.350059874010434,0.9959118290870238,2.4373188580586103
240.0,140.7658957468103,30.153972018475983,0.9955865318800031,2.406660981496075
241.0,184.750430591947,30.844212253792435,0.9952417638948646,2.3769643638406257
242.0,180.95045104893043,46.939504191113095,0.9948770624344423,2.3482041138813496
243.0,131.3093052422392,83.0315855022481,0.9944920306657083,2.3203566363644246
244.0,96.88524763219084,96.61257924285074,0.9940863463086567,2.2933995350945553
245.0,94.16096798426406,79.38525659324706,0.9936597704033381,2.2673115273758606
246.0,93.95398185913218,63.29038360623368,0.9932121560466041,2.2420723681617964
247.0,94.736347528605,50.25098070749069,0.9927434570785285,2.217662783345589
248.0,101.69042803784025,39.78828684688758,0.9922537364123495,2.1940644091674937
249.0,131.09136042226018,32.03954978955925,0.9917431741310581,2.1712597389266093
