Time,J,A,S,tau
0.0,100.0,100.0,0.6680680041000276,17.543859649122805
1.0,97.45073063824174,97.88444994922264,0.6675660191936755,17.452266338701076
2.0,94.95648705147478,95.8091583128055,0.6670500482404582,17.35818652792137
3.0,92.51929238028875,93.77580706509258,0.6665210890075899,17.261800270734387
4.0,90.13813777236177,91.783637258277,0.6659792873206293,17.16313313964677
5.0,87.81197511867516,89.83187348718482,0.6654247911158185,17.06221097092377
6.0,85.53976094040777,87.91975437060127,0.6648577592669865,16.9590610151781
7.0,83.32054150406366,86.046567249337,0.6642783558522504,16.85371121516883
8.0,81.15328615007373,84.21156520357813,0.663686747216094,16.746189791407076
9.0,79.03699310890433,82.414027534693,0.663083111725279,16.6365265339215
10.0,76.9707401271517,80.65327516581772,0.6624676313814436,16.524751722831937
11.0,74.95352071978685,78.92859227270948,0.6618404912205413,16.410896018192915
12.0,72.98438408942482,77.23930095594501,0.6612018879061532,16.294991619411498
13.0,71.06243754964066,75.58475334163255,0.6605520206714307,16.177071076154363
14.0,69.18670312109339,73.96426528337423,0.6598910926218127,16.05716743513228
15.0,67.35627799090737,72.37719834031024,0.6592193176625966,15.935315198113948
16.0,65.570301702579,70.82293582851693,0.6586327884335672,15.82929903026813
17.0,63.82785876673294,69.30084029854679,0.6584532183521644,15.798663042724062
18.0,62.128048484349705,67.81028734558834,0.6582766028236798,15.76860083252731
19.0,60.47002120071167,66.35068114719415,0.658102995408683,15.73911780838326
20.0,58.85289521492961,64.92141456765012,0.6579324488428747,15.710219239923289
21.0,57.27585629007752,63.52191835016234,0.657765014240808,15.681910129374105
22.0,55.73807698339568,62.15161846071802,0.6576007423972718,15.654195426955946
23.0,54.23871493860781,60.80993999100459,0.6574396824066805,15.62707981853081
24.0,52.77699998702344,59.49634480696867,0.6572818823347781,15.600567832191519
25.0,51.35211045146885,58.21027300826587,0.6571273896210942,15.574663903891473
26.0,49.96327988095127,56.951195473164795,0.656976249707516,15.54937218124147
27.0,48.60975940348589,55.71859225805714,0.6568285076280965,15.524696753627182
28.0,47.29076795314083,54.51193161626374,0.6566842069657852,15.500641512835571
29.0,46.00560242958936,53.330720052473474,0.6565433897972994,15.47721014759812
30.0,44.75352733326139,52.17444997696387,0.6564060978041127,15.454406295517032
31.0,43.53383835116763,51.04262966460146,0.6562723705641103,15.432233326523551
32.0,42.34587543556691,49.93478792844802,0.6561422469540249,15.4106945217702
33.0,41.18894109659647,48.850436634606446,0.6560157647617945,15.38979303196529
34.0,40.062416831983434,47.78912185443356,0.6558929598351161,15.369531775370886
35.0,38.96567638370743,46.75038614331368,0.6557738676921371,15.349913632124714
36.0,37.89810607819113,45.73377395469713,0.6556585219016194,15.33094126217152
37.0,36.859163448449614,44.73885843961482,0.6555469548808794,15.312617194610027
38.0,35.8482717735664,43.76519614256313,0.655439198340638,15.294943884112037
39.0,34.86493726483945,42.812370670734744,0.6553352817548564,15.277923544964423
40.0,33.9086824502228,41.879971403205595,0.6552352341842658,15.261558347340074
41.0,32.97903168844783,40.96758077614574,0.6551390830751639,15.2458502989307
42.0,32.07562050799627,40.074816433684354,0.6550468540701087,15.230801221779169
43.0,31.198064132635796,39.20128763767943,0.6549585725845788,15.21641291708228
44.0,30.346027638354265,38.34660937464654,0.6548742618467671,15.202686975877526
45.0,29.519282972776374,37.51042809525497,0.6547939437720952,15.189624859201338
46.0,28.717553795569927,36.692373194571545,0.6547176399977059,15.177228005923766
47.0,27.94069012858196,35.89210044488682,0.6546453694831036,15.16549760727971
48.0,27.188638418756597,35.109291483820144,0.6545771502049929,15.154434760670748
49.0,26.461294997919136,34.34361319145165,0.6545129999128108,15.144040547439285
50.0,25.758668153853087,33.594754714411565,0.6544529337247464,15.134315818094858
51.0,25.080910570860862,32.86244115078614,0.6543969654868729,15.125261305691286
52.0,24.428126966774883,32.146386696641244,0.654345108921308,15.116877736403996
53.0,23.80050074440889,31.44632637942022,0.6542973753583816,15.109165636965871
54.0,23.198408447164475,30.762041556224567,0.6542537745187029,15.102125390546993
55.0,22.62220183301809,30.093310514075597,0.654214315927711,15.09575736654791
56.0,22.072264908341445,29.43993332768352,0.6541790070674417,15.09006177129577
57.0,21.54913601858345,28.801749247156526,0.6541478541249709,15.08503869883132
58.0,21.05332428259769,28.178608276032005,0.6541208622912204,15.080688167415373
59.0,20.58549987158238,27.570412642419754,0.6540980348648867,15.077010038344758
60.0,20.146293426124743,26.977072422833203,0.6540793745526645,15.074004128823576
61.0,19.736433446237942,26.398555844347065,0.6540648819860879,15.07167008960109
62.0,19.35668673383999,25.834853964948845,0.6540545570776523,15.070007513139878
63.0,19.007779493642634,25.286002746784376,0.6540483980941041,15.069015865157132
64.0,18.69049819161128,24.752078131843966,0.6540464022146497,15.068694523056273
65.0,18.405560143599185,24.233205941528833,0.6540485650977244,15.069042746776782
66.0,18.153701107116444,23.72955368651282,0.6540548813444291,15.070059711343832
67.0,17.935527216842306,23.241345212795554,0.6540653440186139,15.071744472952028
68.0,17.751624025743013,22.768848081777485,0.6540799451636811,15.074096005934589
69.0,17.60237164731971,22.312391349735414,0.6540986752750436,15.077113164377122
70.0,17.488075294553873,21.872346026736412,0.6541215239041334,15.080794726742285
71.0,17.40873181944868,21.4491515389448,0.6541484789636329,15.085139342889722
72.0,17.364288884264642,21.043294501701542,0.6541795274129086,15.090145584124777
73.0,17.354182071670216,20.655309556254334,0.654214654862644,15.095811917889792
74.0,17.37777039780602,20.285799875583333,0.6542538455618718,15.102136697288186
75.0,17.433892465621746,19.935396389688986,0.6542970827899998,15.109118200421236
76.0,17.52105721235827,19.60478550270323,0.654344348457597,15.116754592036488
77.0,17.637293500430854,19.294690612381036,0.6543956232442154,15.125043935621873
78.0,17.780243960462364,19.00586654389519,0.6544508867262869,15.133984202219155
79.0,17.947033106016526,18.73909225622723,0.6545101172343902,15.143573258126867
80.0,18.13430460072902,18.495159801904432,0.654573291926721,15.15380886949251
81.0,18.338221462200877,18.274861682763174,0.6546403868077981,15.164688702730075
82.0,18.554495158051044,18.07897841757738,0.6547113767360668,15.176210323750054
83.0,18.778384731772704,17.908259926196287,0.6547862354227934,15.188371196647035
84.0,19.00477490502519,17.763409094205795,0.654864935450665,15.201168683567314
85.0,19.228234164274916,17.645060235073988,0.6549474482867186,15.214600044341369
86.0,19.44310151404908,17.553757770883372,0.6550337442962426,15.228662436032815
87.0,19.643592043163522,17.489931407909282,0.655123792755812,15.243352912343253
88.0,19.82391513098847,17.45387215269835,0.6552175618668044,15.258668423001417
89.0,19.978406793449228,17.44570577232215,0.655315018769202,15.274605813114956
90.0,20.101670084508644,17.465366734146247,0.6554161295556726,15.291161822486437
91.0,20.18871840480035,17.512573312894883,0.6555208592859197,15.30833308489514
92.0,20.235117926992643,17.586803259266517,0.6556291720012006,15.326116127334897
93.0,20.2371239734889,17.68727147621886,0.6557410307376981,15.344507369052858
94.0,20.19178896658023,17.812913380017136,0.6558563975484759,15.363503121551442
95.0,20.09708255826747,17.96236819788386,0.6559752335048721,15.383099586100576
96.0,19.951957241225198,18.133969511625516,0.6560974987125964,15.403292852851457
97.0,19.756347474592793,18.325762899590092,0.6562231523769051,15.424078905939226
98.0,19.511276941088123,18.535478779720737,0.6563521527176989,15.445453610321833
99.0,19.218730142719547,18.760576562801774,0.6564844570769454,15.467412721940859
100.0,18.88163141637795,18.998264712059694,0.6566200219155814,15.489951884532779
101.0,18.503774195682826,19.24552472030903,0.6567588028020683,15.513066625112012
102.0,18.08969253382682,19.4991617872472,0.656900754446141,15.53675235501704
103.0,17.6445257064916,19.755856551632885,0.657045830713199,15.56100436858486
104.0,17.173867543421714,20.012224519066063,0.6571939846517425,15.585817843696946
105.0,16.683616607230576,20.26488045813848,0.6573451684960605,15.611187838664904
106.0,16.179815390337875,20.510508065890523,0.6574993336903124,15.637109292160643
107.0,15.66850004307326,20.745930057620782,0.6576564309052931,15.663577022092133
108.0,15.155560408202758,20.96817672621664,0.657816410056088,15.690585724583016
109.0,14.646615625726364,21.174549986525626,0.6579792203198416,15.718129972952877
110.0,14.146908883602347,21.362679951639116,0.6581448101536308,15.746204216700368
111.0,13.661223478126471,21.530571644590598,0.6583131273124332,15.774802780491438
112.0,13.19382147342377,21.676639702720426,0.6584841188671826,15.803919863154869
113.0,12.748405121333555,21.799729539876896,0.6586577312229036,15.833549536687427
114.0,12.328100949307307,21.899123967027908,0.6588339101374798,15.863685745392637
115.0,11.9354623678272,21.974536694470213,0.6590126007380998,15.894322304524117
116.0,11.572491573909513,22.026091323070748,0.6591937475416892,15.925452899772203
117.0,11.240678542112365,22.054287747964292,0.6593772944763597,15.957071087120106
118.0,10.941036094597024,22.05996634841001,0.6595631848922974,15.989170290241944
119.0,10.674154020053907,22.04426419892721,0.6597513615691015,16.021743796521932
120.0,10.440293756729421,22.008544569335452,0.6599417667849201,16.054784769231457
121.0,10.239363447847081,21.95437402105263,0.6601343422583555,16.088286226950007
122.0,10.071068288350238,21.883450438631282,0.6603290292260519,16.122241057894264
123.0,9.93489359111795,21.797564423081607,0.6605257684623104,16.156642020700808
124.0,9.830170668565941,21.69856052701155,0.6607245002271493,16.19148172204486
125.0,9.756124246554448,21.58829727661567,0.660925164398592,16.226752651373594
126.0,9.711868557012552,21.46861762699333,0.6611277003721205,16.262447141945326
127.0,9.696464386701962,21.341327705991024,0.6613320471662228,16.298557399241126
128.0,9.708903509951059,21.208178947308923,0.6615381434060977,16.335075488348878
129.0,9.748133968637571,21.070851867197025,0.6617459273322184,16.371993330230907
130.0,9.813052969695104,20.93095378769761,0.6619553368469582,16.40930271185172
131.0,9.902507860741055,20.790010307165232,0.662166309513207,16.446995277901884
132.0,10.01528742572539,20.649461635964837,0.6623787825664943,16.48506252748916
133.0,10.150114428590646,20.510668720080616,0.6625926929556257,16.523495824431027
134.0,10.305642435910835,20.374912127795497,0.662807977349027,16.562286391421317
135.0,10.48043757381498,20.243390757436984,0.663024572140765,16.601425303179347
136.0,10.672970580814491,20.117230546035078,0.6632424134886501,16.640903497870234
137.0,10.881618744438471,19.997486307876404,0.6634614373268467,16.680711774197277
138.0,11.104650494863048,19.885139216515864,0.6636815793700619,16.720840781744243
139.0,11.340218194914788,19.78110407822709,0.6639027751462144,16.761281032409272
140.0,11.58637521411497,19.68623076611896,0.6641249600131769,16.80202289920867
141.0,11.84105908949394,19.60130136933511,0.6643480691669107,16.843056610113255
142.0,12.102106668021564,19.527032272145945,0.6645720376650169,16.88437225238701
143.0,12.367263465151465,19.464073640253986,0.6647968004439796,16.925959773345102
144.0,12.634197592727649,19.413007923604614,0.66502229233592,16.967808980787808
145.0,12.900518901507818,19.37434790836893,0.6652484480855062,17.009909542914862
146.0,13.163799377877282,19.348532877947505,0.6654752023664309,17.052250987346596
147.0,13.421594025168105,19.335926274905173,0.6657024897986946,17.094822703659727
148.0,13.671471232675204,19.336812717251416,0.66593024496586,17.137613944588132
149.0,13.911042057587494,19.3513943332327,0.6661584024313182,17.18061382687793
150.0,14.137995579225706,19.37978644040283,0.6663868967555195,17.22381133122037
151.0,14.350128175875769,19.42201288961772,0.6666156625121659,17.26719530245391
152.0,14.545374822952047,19.47800352320877,0.6668446343044158,17.310754452519635
153.0,14.721842476810894,19.547591374967542,0.6670737467811931,17.35447736191259
154.0,14.877837771125417,19.63051017643566,0.6673029346523417,17.398352481196532
155.0,15.011908333280042,19.726391154895044,0.6675321327084268,17.442368130647203
156.0,15.122859294864755,19.834759865030435,0.6677612758361461,17.4865124998348
157.0,15.209754736282019,19.9550435103266,0.6679902990253336,17.530773657882808
158.0,15.271970832783447,20.08656721209681,0.6682191373968555,17.575139548855734
159.0,15.309192401181896,20.228548863813256,0.6684477262212989,17.619597984244148
160.0,15.321396191783492,20.380126300463903,0.6686760009109893,17.664136673879547
161.0,15.308892998362193,20.540331611148037,0.6689038970744462,17.7087431869789
162.0,15.272258203853768,20.708131933146618,0.6691313504768412,17.753405001400004
163.0,15.212405301941507,20.88240520204352,0.6693582971303519,17.798109454423663
164.0,15.130475606497026,21.06198055094932,0.6695846732253796,17.84284379705742
165.0,15.027888872971067,21.24562815534139,0.6698104152143917,17.887595154834372
166.0,14.906277850125315,21.432084451912395,0.6700354597869251,17.932350553958205
167.0,14.767471322118764,21.620061487309425,0.6702597438961908,17.97709691868369
168.0,14.613467603218899,21.808263219604232,0.6704832047922102,18.021821066957227
169.0,14.446388994960829,21.9954021022617,0.6707057800050565,18.066509724037275
170.0,14.268451179870217,22.18021237613214,0.6709274073775358,18.111149521139563
171.0,14.081933672087679,22.361469073359682,0.67114802508235,18.15572699617633
172.0,13.889141146430985,22.53800182863511,0.6713675716299984,18.200228600452824
173.0,13.692373338296202,22.708708903775364,0.6715859858823965,18.24464070193041
174.0,13.493894998043082,22.872570414393056,0.671803207068764,18.288949588417317
175.0,13.29590601826789,23.02866250961833,0.6720191748075742,18.333141470000005
176.0,13.100520844031113,23.176166716147396,0.6722338291138512,18.3772024842135
177.0,12.909747758587416,23.314376729541273,0.6724471104110704,18.421118700512498
178.0,12.725470789305247,23.44270540855563,0.6726589595450705,18.464876124179742
179.0,12.54943256101635,23.560689655068888,0.672869317805901,18.508460699634288
180.0,12.383226536791454,23.66799373061526,0.6730781269400068,18.55185831509099
181.0,12.228292316343383,23.764405776540144,0.6732853291570833,18.595054807976215
182.0,12.08591125413228,23.84983643549944,0.6734908671433522,18.638035969352615
183.0,11.957196977862933,23.924315157976938,0.6736946840806229,18.680787548250066
184.0,11.843102982528315,23.987987007761753,0.6738967236675338,18.72329525606081
185.0,11.744429219167612,24.041101414657106,0.674096930117471,18.76554477291865
186.0,11.661821020847178,24.08400148714173,0.6742952481520842,18.807521752957335
187.0,11.595759486816076,24.117128660129577,0.6744916231066979,18.849211826816394
188.0,11.546618146489509,24.140989142076048,0.6746860007660002,18.890600611812594
189.0,11.514580098058266,24.15617412688509,0.6748783276393752,18.931673712540114
190.0,11.499764935877373,24.16331517612242,0.6750685506151417,18.97241673008798
191.0,11.50209842836351,24.16311162294797,0.6752566174401079,19.01281526787493
192.0,11.52144970336214,24.156283941900192,0.6754424761689399,19.05285493231615
193.0,11.557539641264903,24.143596305634688,0.6756260757591214,19.092521349840023
194.0,11.609997432735813,24.125826581757167,0.6758073655840456,19.131800159008417
195.0,11.67835484724547,24.103769771975173,0.6759862957798206,19.170677030003432
196.0,11.762044618720493,24.07822723403281,0.6761628170484153,19.209137659636834
197.0,11.860400959801279,24.050000056980764,0.6763368808567152,19.24716779096726
198.0,11.972678840673758,24.019885677683423,0.6765084392161489,19.284753202760946
199.0,12.098033088570562,23.988668555016435,0.6766774449676652,19.321879738628297
200.0,12.2355505713479,23.957121728073204,0.6768438514948989,19.358533288110603
201.0,12.384225664006552,23.925996495763727,0.6770076129996042,19.39469981846249
202.0,12.542981339518512,23.896023886971673,0.6771686843163982,19.430365362946016
203.0,12.710667743029074,23.867909003991105,0.6773270210303033,19.46551603864585
204.0,12.88606042242975,23.84232733078552,0.6774825794732087,19.50013805441407
205.0,13.067875678860672,23.819926472507177,0.6776353166451686,19.534217705774115
206.0,13.254768895336262,23.80131763989055,0.6777851903637011,19.567741402290512
207.0,13.445338387800156,23.787077766351967,0.6779321591531184,19.60069565917282
208.0,13.638144176242061,23.777747625948493,0.6780761822759355,19.633067107104903
209.0,13.83170282920859,23.773823996087998,0.6782172198215721,19.66484251507319
210.0,14.024501211785408,23.775765902018986,0.6783552325708296,19.696008773457365
211.0,14.215016381139533,23.78398551205204,0.6784901821253808,19.726552923986546
212.0,14.40170851993889,23.79884777094714,0.6786220308740993,19.756462161712836
213.0,14.583046077228683,23.820673297629437,0.6787507419272355,19.785723827648493
214.0,14.757520439663702,23.84972677568212,0.6788762792671015,19.814325448379567
215.0,14.923642676357868,23.886223629504894,0.6789986076136022,19.84225471420756
216.0,15.07997903034667,23.930325348972595,0.6791176924803248,19.869499498575838
217.0,15.225151814361384,23.98213257596422,0.6792335002399628,19.896047881900554
218.0,15.357847832573313,24.04169374934603,0.679345997988794,19.921888125128522
219.0,15.476855869530763,24.10899332109789,0.6794551536915064,19.947008714845435
220.0,15.58105378346315,24.183955203060954,0.6795609361170469,19.97139835383691
221.0,15.669431809328275,24.266445778351294,0.6796633147929838,19.995045955892405
222.0,15.741117173634937,24.356262542855156,0.6797622601460238,20.017940693967095
223.0,15.795354595796018,24.4531457611873,0.6798577433551455,20.04007196394253
224.0,15.831551494629425,24.556771432850795,0.679949736438871,20.061429420622844
225.0,15.849257349237169,24.666752003139262,0.6800382122765659,20.082002989206444
226.0,15.848181418511665,24.782645624467445,0.6801231444758573,20.101782833984345
227.0,15.828191512913769,24.90394616598116,0.6802045075817849,20.120759428546087
228.0,15.789358567606586,25.030087834011088,0.6802822769919222,20.13892355009142
229.0,15.731834097254326,25.160472186765986,0.6803564286587087,20.15626615892976
230.0,15.656030592087903,25.29442362597869,0.6804269398340734,20.17277869375144
231.0,15.562435532883828,25.43124721745589,0.6804937881341606,20.188452729415644
232.0,15.451728556171787,25.57019579606099,0.6805569523293243,20.20328026902172
233.0,15.324706652248201,25.710495366659075,0.680616411830787,20.217253568746152
234.0,15.182321119094372,25.851340490442144,0.6806721470791995,20.230365289127207
235.0,15.025617182145261,25.991909973166056,0.6807241391663637,20.242608353802424
236.0,14.855761584429006,26.131367842069313,0.6807723701825428,20.253976093318443
237.0,14.674003363936597,26.2688749141932,0.680816822981802,20.264462154308372
238.0,14.481664357380975,26.403593946673652,0.6808574812875748,20.274060552995568
239.0,14.280128841333566,26.53470105729551,0.6808943297276479,20.28276568957306
240.0,14.070819118629647,26.66138923279142,0.6809273536993623,20.290572297630973
241.0,13.855180451665323,26.78288171560196,0.6809565395575842,20.297475531520035
242.0,13.634672350387092,26.8984361323353,0.6809818744792714,20.30347090522523
243.0,13.410741075705413,27.00735073196551,0.6810033464941466,20.308554315987717
244.0,13.184812215998827,27.1089786337792,0.6810209445917285,20.3127220891714
245.0,12.95828180189421,27.202722404676294,0.6810346585491972,20.31597090459674
246.0,12.732484760723686,27.28805117396851,0.6810444791094146,20.318297882480877
247.0,12.50870692428993,27.364499421084066,0.6810503979036306,20.319700542027938
248.0,12.288160428802865,27.43166733903764,0.6810524074106193,20.320176790958445
