Time,J,A,S,tau
0.0,100.0,100.0,0.9470007556509475,10.309278350515463
1.0,100.61775159480572,87.14014908321826,0.9481746069847641,10.798918559276757
2.0,101.9019787537378,75.80752984195958,0.9493160351060763,11.30734990887429
3.0,104.07870402661533,65.84048494304128,0.9504212710158196,11.834511506340304
4.0,107.28364373096784,57.089737677674876,0.9514870858067958,12.380454339855554
5.0,111.51426156036362,49.420292914732535,0.9525105766394769,12.945190771284091
6.0,116.62599630822145,42.710343880867065,0.9534891935163533,13.528688532176878
7.0,122.36815216996884,36.85020658083987,0.9544207627946989,14.13086540713367
8.0,128.43984589026178,31.74131386087198,0.955303506234693,14.751584834088945
9.0,134.54472299737466,27.295269929030038,0.9561360544270078,15.390652633705562
10.0,140.4306587255053,23.43296409667371,0.9569174536599749,16.047815038181337
11.0,145.91017897696017,20.08374228815991,0.9576471655725097,16.72275813466995
12.0,150.8641883273245,17.184634669771455,0.9583250592798042,17.41510877349263
13.0,155.23458538864972,14.679637699901757,0.9589513960288334,18.124436921266483
14.0,159.01141214257513,12.51904927492221,0.959526806813559,18.850259369180193
15.0,162.2188028364259,10.6588509557699,0.9600522636942167,19.592044646901797
16.0,164.90229154744165,9.060141342803291,0.9605290458803522,20.349218935538588
17.0,167.11864080881296,7.688614652319503,0.9609587018239183,21.12117273859337
18.0,168.92841297725263,6.514082299235538,0.9613430086770743,21.907268050517697
19.0,170.39098697787918,5.510042426742292,0.9616839305253939,22.70684575679344
20.0,171.56157649802398,4.6532602968282895,0.9619835765647167,23.519233026404677
21.0,172.48963635355852,3.923424279752839,0.9622441607544825,24.343750441023968
22.0,173.21828796733752,3.3028142039763475,0.962467963589366,25.17971870832339
23.0,173.78437421422322,2.7760040482077115,0.9626572969571343,26.026464788973314
24.0,174.21888507347592,2.329591633165198,0.9628144726616742,26.883327330319734
25.0,174.54756561405787,1.9519577563533486,0.9629417749461887,27.74966134711197
26.0,174.79159168947783,1.6330495937957608,0.9630414371460604,28.62484212671425
27.0,174.96823749137778,1.3641901194943509,0.9631156224445081,29.50826836498546
28.0,175.09150160595667,1.137904564068845,0.9631664086260504,30.399364550841018
29.0,175.17266466409046,0.9477669795492973,0.9631957765125031,31.297582667459896
30.0,175.22077344736917,0.7882647565783715,0.9632056017355941,32.20240327555402
31.0,175.14972350561106,0.3169624487016396,0.9631976494279862,33.11333606099863
32.0,175.0681876127369,0.1166037169046492,0.9631735716396843,34.029919870803084
33.0,174.98886320394746,0.04289680934770699,0.9631349067015046,34.95172241098186
34.0,174.91163259624167,0.015781863641583852,0.9630830805006593,35.87833958984701
35.0,174.8363836211749,0.005806895757618094,0.9630194091480273,36.80939461675899
36.0,174.76300930112376,0.0021372950015458056,0.9629451027489448,37.74453690875202
37.0,174.69140754245592,0.0007872801136243084,0.9628612699955817,38.68344085828615
38.0,174.6214808446199,0.000290586456566077,0.9627689233375238,39.62580450795749
39.0,174.55313602421995,0.00010781239901334426,0.9626689845250204,40.57134817071433
40.0,174.48628395317388,4.052555153797837e-05,0.962562290355062,41.51981302725953
41.0,174.42083931011527,1.572746556422439e-05,0.9624495984823581,42.470959726227846
42.0,174.35672034422583,0.0,0.9623315931863949,43.424567007139146
43.0,174.29384865072942,0.0,0.9622088910106539,44.380430361380114
44.0,174.23214895732283,0.0,0.9620820462113531,45.33836074241865
45.0,174.17154892082473,0.0,0.9619515559716584,46.298183332883504
46.0,174.1119789334201,0.0,0.9618178653509694,47.2597363736215
47.0,174.0533719376332,0.0,0.9616813719560066,48.22287005628255
48.0,173.9956632499432,0.0,0.9615424303163769,49.187445482624156
49.0,173.93879039119454,0.0,0.9614013559864962,50.1533336842484
50.0,173.8826929257665,0.0,0.9612584293395213,51.120414711410426
51.0,173.82731231210445,0.0,0.9611138990016411,52.08857680413504
52.0,173.77259174611552,0.0,0.9609679852619576,53.057715559691744
53.0,173.71847602128986,0.0,0.9608208830417839,54.02773320383778
54.0,173.66491139053215,0.0,0.9606727646969536,54.99853789605869
55.0,173.61184543057973,0.0,0.9605237826406768,55.97004307226936
56.0,173.55922692395714,0.0,0.9603740715848207,56.942166880032
57.0,173.50700572048711,0.0,0.9602237509624758,57.914831556714425
58.0,173.45513262226683,0.0,0.9600729269025777,58.88796291934401
59.0,173.40355926590428,0.0,0.9599216941574852,59.86148986045197
60.0,173.3522380087942,0.0,0.959770137896613,60.83534387386678
61.0,173.301121816523,0.0,0.95961833541767,61.809458597289755
62.0,173.25016414915262,0.0,0.9594663578123322,62.78376936242918
63.0,173.19931885232955,0.0,0.9593142715218876,63.758212771270365
64.0,173.14854005107026,0.0,0.9591621398303272,64.73272628642367
65.0,173.09778204240828,0.0,0.9590100243375926,65.70724782498428
66.0,173.04699919166333,0.0,0.9588579863952487,66.68171536103709
67.0,172.9961458230591,0.0,0.9587060886097467,67.65606650910537
68.0,172.9451761143792,0.0,0.9585543962948443,68.63023812229389
69.0,172.89404399392834,0.0,0.9584029789234231,69.60416589174208
70.0,172.84270303626568,0.0,0.9582519116292894,70.57778393419001
71.0,172.79110634662294,0.0,0.9581012769258271,71.55102432276907
72.0,172.73920645253216,0.0,0.9579511663726044,72.52381663656406
73.0,172.6869551986157,0.0,0.9578016822619017,73.49608750935026
74.0,172.63430363733926,0.0,0.9576529394435732,74.46776014537281
75.0,172.58120191350164,0.0,0.9575050673345341,75.43875379082544
76.0,172.52759913021472,0.0,0.9573582123452122,76.40898310071498
77.0,172.4734432395243,0.0,0.9572125400277349,77.37835758911254
78.0,172.41868092328727,0.0,0.9570682374992376,78.34678101303506
79.0,172.36325747402287,0.0,0.956925515978906,79.31415073322565
80.0,172.30711664107562,0.0,0.9567846141084178,80.28035687859784
81.0,172.25020050743638,0.0,0.9566458008834526,81.24528162331121
82.0,172.1924493447904,0.0,0.9565093791422432,82.20879832736898
83.0,172.13380146849354,0.0,0.95637568922781,83.17077064224392
84.0,172.07419308618802,0.0,0.9562451129416816,84.131051550924
85.0,172.01355813984188,0.0,0.9561180777939933,85.08948234116413
86.0,171.95182814136305,0.0,0.9559950615418243,86.0458915138161
87.0,171.88893198572234,0.0,0.9558765973566592,87.00009354073798
88.0,171.77723127169511,0.030416677730615772,0.9556520702635946,87.90723521924457
89.0,171.6574776111868,0.045908651158519845,0.9554270036322343,88.80889302056808
90.0,171.52847527744242,0.05665521453431441,0.9552017748455649,89.70463915882061
91.0,171.38867212626718,0.0666019850249035,0.9549765863853339,90.59391025220694
92.0,171.23619342256558,0.07740627226198661,0.9547516730138365,91.47608909528869
93.0,171.06876536984555,0.08993289838164378,0.9545273039514541,92.35049922498463
94.0,170.8836194687794,0.10481713553629832,0.9543037849497135,93.21639897452856
95.0,170.67737322738984,0.12268631484469274,0.9540814601758473,94.07297499699055
96.0,170.44588171379087,0.14425980407379912,0.9538607138528024,94.91933516351439
97.0,170.18405367898657,0.17041014649299968,0.9536419715530834,95.7545007958946
98.0,169.885624779806,0.20221249231674598,0.9534257010516365,96.5773981557733
99.0,169.58223278285774,0.38609510393463503,0.9532124126552203,97.38684906036507
100.0,169.26597202906183,0.6067455187996232,0.9530026589010381,98.18156052236567
101.0,168.92779484971663,0.8493140866258118,0.9527970335824152,98.96011316300124
102.0,168.56261305443581,1.1238843613112,0.9525961700180331,99.72094823777847
103.0,168.16529758012453,1.4419167396842933,0.9524007386043268,100.46235283345312
104.0,167.73089057514602,1.816593556060962,0.9522114436992309,101.18244287536992
105.0,167.25495855891373,2.263117272791698,0.9520290200448688,101.87914317514331
106.0,166.7341233946787,2.798901520057514,0.9518542290292129,102.55016372601962
107.0,166.16678723300464,3.4435730116176537,0.9516878553067819,103.19297099670067
108.0,165.55404608039566,4.218657273990994,0.951530704542308,103.80475249280633
109.0,164.90071498949516,5.146795632547666,0.9513836033558352,104.38237232349523
110.0,164.2163148326841,6.250309058302108,0.9512474029741428,104.92231454402922
111.0,163.51579158189227,7.548919845837758,0.951122988675154,105.42060950034853
112.0,162.81966803575384,9.056517396671062,0.9510112977252944,105.8727375717516
113.0,162.15344816806962,10.776920187169102,0.9509133500139891,106.27349839883148
114.0,161.54628406410308,12.699013541215184,0.9508302955084716,106.6168383767517
115.0,161.0297132509522,14.791497336022822,0.9507634876895742,106.8956090461002
116.0,160.6371775458966,16.998573202821472,0.9507145915851388,107.10123204401363
117.0,160.40585261740267,19.237571916670994,0.9506857426499331,107.22322317089875
118.0,160.38129398920506,21.399967450577197,0.9506797813035164,107.24849631546246
119.0,160.62390296106236,23.35702940592251,0.9507005982748831,107.16033399248106
120.0,161.21437705981833,24.97051356992929,0.9507536568540762,106.93679975396735
121.0,162.2541696413312,26.107847814755406,0.9508467984396282,106.54821707907381
122.0,163.8578960009051,26.659896642098598,0.950991527790997,105.9529952480606
123.0,166.13713475193524,26.55847661550717,0.9512051672770651,105.09031194979434
124.0,169.17821121209656,25.790292939625832,0.9515146727580921,103.8664477716362
125.0,173.0187397819391,24.404531218600063,0.9519638691933376,102.12722052219584
126.0,177.62595025093134,22.51383372707606,0.952628362188522,99.59664390975556
127.0,182.99607267491896,20.175766270942198,0.9536497961428717,95.72155890416343
128.0,188.9812568671565,17.574153995535216,0.9553204902651654,89.22950867915101
129.0,194.8903843079577,15.33301698555638,0.9582393471066236,77.04245777294037
130.0,200.68941194241003,13.399427380209898,0.9625500780127264,57.71453417849793
131.0,206.34924687049394,11.728610661445893,0.9659764385348901,43.05420323811182
132.0,211.84544462289102,10.282640224464526,0.9679355577038529,35.09017688812189
133.0,216.62891170739135,9.575293896491262,0.9690517467820575,30.284208800081647
134.0,220.04316476799116,10.330546905793945,0.9696791046990011,27.02665277887477
135.0,221.64580383761347,12.980910625545336,0.9699897496568717,24.639523402294913
136.0,220.60515667322073,17.829540314760816,0.9700756865742176,22.79525918709089
137.0,216.15413741540365,24.535349590854526,0.9699909066742701,21.315567699400237
138.0,208.46667986023243,32.094890252793725,0.969769497252888,20.094209167868204
139.0,198.74378243551885,39.3687316930863,0.9694342075723361,19.06341734176186
140.0,188.27860379356522,45.636504905860036,0.969000887400799,18.17762391360521
141.0,177.8136987759778,50.726553610079904,0.9684809552185516,17.404892944072383
142.0,167.58837377857276,54.80169288276661,0.9678828584232108,16.72208658848277
143.0,157.62895719127076,58.091858460521955,0.9672129776132362,16.111978799178434
144.0,147.97836628288718,60.72168058521864,0.9664762107386425,15.561463135945415
145.0,138.7310230904513,62.72059897949937,0.9656763677559316,15.06038035439645
146.0,129.94356135359484,64.13057055616903,0.964816438155757,14.600740939120769
147.0,121.62077629869825,65.02614751039994,0.9638987860177297,14.176175407704788
148.0,113.35798672228506,65.85903703669906,0.9629252859413534,13.78154736873163
149.0,104.78438430815645,66.9864229654736,0.9618974272021067,13.412683714531509
150.0,97.16059004553496,67.17316336833126,0.9608163927427065,13.066164130892401
151.0,92.11304659795971,64.9779844933348,0.9596831187361138,12.739166714593338
152.0,89.34895926853345,60.916520292041824,0.9584983418553605,12.429349548457898
153.0,87.8216988571827,56.150811303944316,0.9572626368759709,12.134758796687759
154.0,86.86867236583205,51.36405622742183,0.9559764471700183,11.853756753713483
155.0,86.19071905079805,46.83380498247461,0.9546401099544409,11.584964707519932
156.0,85.65963890699794,42.654361457685994,0.9532538772135716,11.327217282751974
157.0,85.22252671069599,38.8450949947696,0.9518179339581634,11.079525598712635
158.0,84.86429396943144,35.393216272838764,0.9503324141296268,10.841047277876383
159.0,84.5914944291401,32.27190658406861,0.9487974127371097,10.611061859906892
160.0,84.42321494242131,29.45023353670374,0.9472129989980305,10.388950626970495
161.0,84.38090193131845,26.90248804291455,0.9455792266024895,10.174179824450164
162.0,84.48795156338602,24.606703522556618,0.9438961430543095,9.966287087570256
163.0,84.76918780167712,22.543161256247394,0.942163799108815,9.764870084504038
164.0,85.24589776857938,20.69651162294671,0.940382256621974,9.569576718269362
165.0,85.93031031736538,19.057367141364406,0.9385515953771398,9.380097158693784
166.0,86.82001830149497,17.623234372736306,0.9366719211118555,9.196157458582263
167.0,87.89222071554981,16.398746336194208,0.9347433716446685,9.017513826734634
168.0,89.09829650903828,15.395381859948806,0.9327661218904209,8.843947923979144
169.0,90.36060421574167,14.63080373042512,0.9307403902645723,8.675262959475935
170.0,91.57197624761301,14.127120686751685,0.9286664435591675,8.511280521663183
171.0,92.60081054242636,13.907881509262134,0.9265446021659727,8.351837776486423
172.0,93.30062504828045,13.99424695308796,0.9243752445364166,8.19678522691553
173.0,93.5252766445454,14.400063087584355,0.9221588109353245,8.045984720770498
174.0,93.14984912118868,15.125554344603767,0.9198958079919255,7.899307922133124
175.0,92.09461013778086,16.15037610442133,0.9175868115446241,7.756634909819213
176.0,90.34675300044266,17.42749237388907,0.9152324700211332,7.617853079254021
177.0,87.97141916974202,18.880011222999407,0.9128335072863968,7.482856207030509
178.0,85.10609722521082,20.40316344623255,0.9103907251387717,7.351543670854599
179.0,81.9395789500284,21.872622684306638,0.907905005337244,7.223819801083885
180.0,78.68212488943104,23.159027219668626,0.9053773113123934,7.09959334166322
181.0,75.533548383541,24.147793490914324,0.902808689488236,6.978777006810787
182.0,72.65371871159009,24.761435746230237,0.9002002699734268,6.861287107668881
183.0,70.14153069628692,24.976992813675132,0.8975532672148666,6.747043257722833
184.0,68.03046148738812,24.828673182152304,0.8948689801671871,6.635968130700253
185.0,66.30306715904963,24.39250688063265,0.8921487910395043,6.527987241166018
186.0,64.91483455739089,23.761867708398402,0.8893941646918917,6.423028795096866
187.0,63.81458355697473,23.02663720213454,0.8866066470674098,6.321023560939018
188.0,62.95410101612693,22.26289785645182,0.883787863051241,6.221904767480326
189.0,62.288208833688145,21.531717760710638,0.8809395137417012,6.125608024157794
190.0,61.77025324785849,20.882165370577148,0.8780633732621516,6.0320712628639
191.0,61.34751050901742,20.35459715038377,0.8751612849042492,5.941234693419963
192.0,60.95922670933591,19.982312991471726,0.8722351567255884,5.853040771892537
193.0,60.53829136473148,19.791330362931763,0.8692869565372661,5.767434177681191
194.0,60.016433830183786,19.798780072847357,0.8663187067024108,5.684361804829144
195.0,59.33184981273874,20.01061748663844,0.8633324776097637,5.603772743960553
196.0,58.43787423935182,20.419459649586187,0.8603303816854945,5.52561827983223
197.0,57.310539168922354,21.00333801232611,0.8573145664519113,5.449851887624508
198.0,55.95271187803701,21.726469028763056,0.8542872068938561,5.3764292107151785
199.0,54.393778505079204,22.542389180232277,0.8512504985142857,5.305308060449171
200.0,52.68417570658618,23.399400645458616,0.8482066496251509,5.236448385632264
201.0,50.886477871310234,24.247220234752866,0.8451578741457724,5.169812249840187
202.0,49.065040166965716,25.0435394705082,0.84210638405762,5.105363787597889
203.0,47.276807763502,25.75892557974687,0.8390543826706177,5.043069144775712
204.0,45.56493377874708,26.37920728870933,0.8360040585030524,4.982896417290377
205.0,43.95623700705436,26.904832065966815,0.8329575795355992,4.924815550275343
206.0,42.46171026442669,27.348031179077342,0.8299170892373,4.86879824830685
207.0,41.07950418022385,27.728605667017188,0.8268847033847435,4.814817827227285
208.0,39.79863124894778,28.069762472970226,0.8238625078792068,4.762849064568206
209.0,38.60268480760487,28.39454518681712,0.8208525591339282,4.712868029343964
210.0,37.473144041738905,28.72324205724326,0.817856886401445,4.66485188108207
211.0,36.39196919334335,29.07183356674126,0.8148774956365935,4.618778639883608
212.0,35.34348951964484,29.4512633737806,0.8119163758371851,4.574626944727629
213.0,34.31561695619666,29.86742296840516,0.8089755080449056,4.532375783524178
214.0,33.30037084763027,30.32166846266848,0.8060568762861704,4.49200420351457
215.0,32.29380923629735,30.811685512875236,0.8031624805777534,4.453491009014461
216.0,31.295621073942694,31.33253099529211,0.8002943545394329,4.4168144469940085
217.0,30.308179378884955,31.87773199533697,0.7974545812939852,4.381951865894724
218.0,29.335581629771525,32.44030623021266,0.7946453131932268,4.348879403177555
219.0,28.382746240466197,33.013538602723905,0.7918687921624393,4.317571673542603
220.0,27.45462422380326,33.59153317083485,0.7891273710936051,4.288001458946396
221.0,26.555580461176994,34.16954059238504,0.7864235383116917,4.26013937145604
222.0,25.6890461829324,34.744017952828955,0.7837599373597691,4.233953608931102
223.0,24.857407023849877,35.31252155439491,0.7811393859946644,4.209409746300006
224.0,24.062022845407025,35.87351875964706,0.7785648931685151,4.186470562701741
225.0,23.30334013174541,36.42615721260012,0.7760396750890877,4.16509588014508
226.0,22.58104703848533,36.97002263267242,0.7735671928490294,4.145242160076477
227.0,21.894331576996677,37.504887074798326,0.7711511226525665,4.126862902064911
228.0,21.24204071394246,38.0306123812979,0.7687953709441668,4.109908677781059
229.0,20.622783884800075,38.54700930882924,0.7665040766348673,4.094327024093952
230.0,20.035058698441382,39.05377274525621,0.7642816236704885,4.080062468918382
231.0,19.4773298414869,39.55048449927577,0.7621325769671137,4.067057350211202
232.0,18.948043941870605,40.03656308612381,0.7600617221624224,4.055251397927298
233.0,18.445689404610043,40.511347235984196,0.7580739847773518,4.044582836441493
234.0,17.96875050757441,40.97404955045806,0.7561744313532939,4.034988319846604
235.0,17.515771273996815,41.4238448446364,0.7543682124402232,4.026403804496771
236.0,17.08529267004791,41.859847807359024,0.7526605231554073,4.018764895443132
237.0,16.675884189476744,42.28115757803104,0.7510565433609139,4.012007728880459
238.0,16.28616081036647,42.686874799086695,0.7495614028937148,4.006069293611832
239.0,15.91469783517856,43.076083123488424,0.7481800885561252,4.000888563077608
240.0,15.56018239168449,43.44790801850036,0.746917419729778,3.9964068155358783
241.0,15.221233264486996,43.80145721917664,0.7457779677825027,3.992568459159543
242.0,14.89659348934312,44.135886205496234,0.7447659757072337,3.9893220850436926
243.0,14.5849994678289,44.450350938181586,0.7438853700802728,3.986620158888405
244.0,14.285233419776208,44.74402791462159,0.7431395814560575,3.9844211738061253
245.0,13.996205072208074,45.016128859263524,0.7425316450204541,3.9826884038929906
246.0,13.71676444928967,45.26585290898451,0.7420640085382231,3.9813920533747944
247.0,13.44598594158741,45.492457887126555,0.7417385922287468,3.9805086080533414
248.0,13.18286886302561,45.69518400703155,0.741556736865554,3.9800212775584725
249.0,12.926604367239658,45.87332328122453,0.7415191092474124,3.9799211458684614
250.0,12.676431659070124,46.02618218677204,0.7416258421572149,3.980205459759229
251.0,12.431617405490828,46.153085984828614,0.7418763267519068,3.9808799713338736
252.0,12.19164782162934,46.25342091029275,0.7422694223536238,3.981956563074781
253.0,11.955907638763824,46.3265709992708,0.7428033177108931,3.9834546978532996
254.0,11.724061254969047,46.37200784150746,0.7434756304078782,3.985400374783839
255.0,11.49569109751198,46.389213342024576,0.7442834556438378,3.9878254469663967
256.0,11.270546790024751,46.37775127594911,0.7452233172795493,3.990768212017399
257.0,11.048467964771863,46.33724261464727,0.7462913521536266,3.994271305537419
