Time,J,A,S,tau
0.0,100.0,100.0,0.6462304299207573,31.25
1.0,98.87773234515772,98.19042643226852,0.6442074047607574,31.606009230833706
2.0,97.77426803096253,96.40816325381148,0.6421930635072864,31.96145703801902
3.0,96.69181849350645,94.65596609246062,0.6401937718984027,32.31518362750193
4.0,95.63055844520694,92.93324017326333,0.6382098947611622,32.667099775251465
5.0,94.59068791412268,91.23943593167678,0.6362417929350678,33.01711595484232
6.0,93.57242933754848,89.57402361535064,0.6342898264885517,33.36514256332334
7.0,92.5759516729952,87.93645245762367,0.632354354629051,33.711089976192
8.0,91.60140052578542,86.32619355968608,0.6304357327499991,34.05486822702555
9.0,90.64899065462315,84.74276459919679,0.6285343152092724,34.396387169439684
10.0,89.71893030091013,83.18568094898824,0.6266504563131058,34.73555665797768
11.0,88.81131557028026,81.65442979680903,0.6247845084032319,35.07228640728336
12.0,87.92631380683768,80.14855330704161,0.6229368217710531,35.406485744701115
13.0,87.0641339974558,78.6676126272122,0.6211077466797795,35.73806394013656
14.0,86.22494293001975,77.21115753105398,0.6192976330767104,36.0669302536873
15.0,85.40881294225838,75.77872854239317,0.6175068291218081,36.39299366275263
16.0,84.61595378283704,74.3699217823999,0.6157356827665352,36.71616287804658
17.0,83.84658701121693,72.98433725748122,0.6139845420042878,37.03634660179094
18.0,83.10081842842489,71.62155065499353,0.6122537541811273,37.35345347638192
19.0,82.37879391514672,70.28116360920465,0.6105436662916947,37.6673917965312
20.0,81.68077892264002,68.96281105428156,0.6088546257306665,37.97806974681004
21.0,81.00701842685427,67.66612396616391,0.6071869798221962,38.285395510544916
22.0,80.35760796756291,66.39070917388156,0.6055410755743484,38.58927712198672
23.0,79.73284404088074,65.1362214068179,0.6039172610665062,38.889622360354934
24.0,79.13307810222935,63.90232692753365,0.6023158846054073,39.18633898138512
25.0,78.55857731817747,62.688678645952834,0.6007372943764752,39.47933472186754
26.0,78.00956448464721,61.49492561316095,0.5991818395635754,39.768517139424155
27.0,77.48651965584003,60.32076055360727,0.5976498706992293,40.053793693669476
28.0,76.98992974780796,59.16587741317693,0.5961417383442291,40.335071842979715
29.0,76.52009739037933,58.02994514148372,0.5946577933394601,40.612259000219545
30.0,76.07754487819203,56.91266082973646,0.5931983889715863,40.88526250781114
31.0,75.66296396742679,55.81374397239011,0.5917638792485571,41.153989706117336
32.0,75.27700872719296,54.732909609692555,0.5903546182369056,41.418347931706876
33.0,74.92022336133651,53.669856599226264,0.5889709617913228,41.67824453414946
34.0,74.59347650467816,52.624317111263615,0.587613267807054,41.93358693353604
35.0,74.29764826702286,51.596025046098596,0.5862818943338732,42.184282554263746
36.0,74.03354009624114,50.58470225925006,0.5849772012465415,42.43023890861488
37.0,73.80230848678056,49.590098944628366,0.5836995506733502,42.67136368815086
38.0,73.60512493304196,48.61196655096859,0.5824493049890759,42.90756460237977
39.0,73.44311605227561,47.650046530584596,0.5812268287730717,43.138749545788976
40.0,73.31775244625523,46.70410271587133,0.5800324885718013,43.36482665795543
41.0,73.23045218334265,45.773893781213815,0.5788666516383362,43.58570414104139
42.0,73.18285875153369,44.85918520496192,0.5777296880854582,43.801290593969625
43.0,73.17684483953035,43.95975539409592,0.5766219689488643,44.01149479067922
44.0,73.21428847527572,43.07537677931928,0.5755438671982342,44.21622578330262
45.0,73.25284057369909,42.248142452655074,0.5761446280011654,44.08995158784043
46.0,73.30937469020633,41.45679596869348,0.5773814755569077,43.838835427289766
47.0,73.39852262649062,40.686891558279655,0.5786461374778028,43.5830477754248
48.0,73.52036089909556,39.93873573742372,0.5799380213543409,43.32277041084004
49.0,73.67463881116922,39.21262401525789,0.581256495240789,43.05819179812992
50.0,73.86137110302181,38.50887170271739,0.5826008949500441,42.78950526848776
51.0,74.08039415006611,37.827784968910606,0.5839705527115163,42.51690483891274
52.0,74.33087196995182,37.169639165118504,0.5853647585224165,42.24059070511291
53.0,74.61231749667238,36.53473253576536,0.5867827712670199,41.96076663638728
54.0,74.92412106937545,35.923357083767826,0.588223847442483,41.67763677326332
55.0,75.26478373703473,35.33576956258231,0.5896872102177663,41.39140906699809
56.0,75.63308955116148,34.772256889096184,0.5911720524051489,41.102293683732306
57.0,76.02778032654064,34.23310563055999,0.5926775643136223,40.81050095545739
58.0,76.4466087985157,33.71857772061182,0.5942029108355635,40.516242934119106
59.0,76.88742482055754,33.228969676528536,0.5957472359869854,40.21973213450338
60.0,77.34758716316469,32.76456996323022,0.597309675726258,39.92118121220158
61.0,77.8240351830615,32.32570660132753,0.5988893441665734,39.62080223785471
62.0,78.31358509545876,31.91272413643075,0.6004853492781723,39.31880687961335
63.0,78.81221319098675,31.525999187879165,0.602096784099752,39.015405378781395
64.0,79.31574594048699,31.165949183370866,0.6037227341397728,38.710806749167894
65.0,79.81931019342419,30.833050105677856,0.6053622751913996,38.40521763862657
66.0,80.31774315259368,30.527825757276474,0.6070144779581914,38.09884297925739
67.0,80.80518315221144,30.250888054658596,0.6086784068189218,37.791884357188096
68.0,81.27541746976178,30.002912407345754,0.610353123435873,37.48454112002983
69.0,81.72156586614271,29.784681537666327,0.6120376868054653,37.17700875789351
70.0,82.13621319697583,29.597071422506463,0.6137311554658772,36.869479497392845
71.0,82.5115202469599,29.441084617271866,0.6154325883287822,36.56214169297201
72.0,82.83901589542407,29.31786062861146,0.6171410465973634,36.25517933994167
73.0,83.10978572535412,29.228671027429478,0.6188555943657487,35.948772554560605
74.0,83.31450004963706,29.174971640882372,0.6205753004246415,35.643096528036295
75.0,83.44331256105501,29.158385990483186,0.622299239320647,35.33832187019274
76.0,83.48613953391246,29.180731980757297,0.6240264917368027,35.0346145869594
77.0,83.43257274101893,29.244067054740697,0.6257561469512353,34.73213518459222
78.0,83.27198888994438,29.350656904828437,0.6274873022505789,34.43103954655013
79.0,82.99514764039007,29.5017707854517,0.6292190645671855,34.131478166599685
80.0,82.59845332355701,29.69440290487815,0.6309505517869582,33.833596101824945
81.0,82.07777861280569,29.92769819605809,0.6326808916369472,33.537533649862574
82.0,81.42892499933862,30.202176765505303,0.6344092249128455,33.243425050489414
83.0,80.64870796820748,30.518140517076343,0.6361347033783257,32.9513999017557
84.0,79.73549534185234,30.875631391834233,0.6378564915075305,32.661582283050784
85.0,78.68901714991514,31.274355049726665,0.6395737679110642,32.374090783130804
86.0,77.51099299917567,31.713645692601155,0.6412857238773204,32.08903849019979
87.0,76.20400384625876,32.19254027481999,0.6429915615603611,31.806534701048022
88.0,74.77259356083776,32.70952605302539,0.6446904995731024,31.526682367756376
89.0,73.22260031800262,33.26264211721163,0.6463817688364107,31.24957997123288
90.0,71.56127298708687,33.849413819398585,0.6480646126915133,30.975321288985604
91.0,69.7970974189265,34.46678609464949,0.6497382883860492,30.70399518841699
92.0,67.93963789142441,35.11113084619419,0.6514020653377243,30.43568613541007
93.0,65.99940969599044,35.77821494112577,0.6530552249503068,30.17047427474331
94.0,63.9877518955608,36.463155828654536,0.654697060639187,29.908435420257497
95.0,61.91665290311679,37.160440713189374,0.6563268769504442,29.649641378462597
96.0,59.798628375671186,37.86393534571846,0.6579439885684073,29.39416021089575
97.0,57.64662637597428,38.56687159773636,0.6595477201989116,29.142056245063245
98.0,55.47391643300306,39.26188409667147,0.66113740541393,28.893390366900295
99.0,53.29400322069328,39.94105303141599,0.6627123859295313,28.648220197546998
100.0,51.120545311215665,40.59596652967624,0.6642720106765558,28.406600306534813
101.0,48.967274750747585,41.21780413158595,0.66581563486809,28.168582415829242
102.0,46.84791041229956,41.79744541179664,0.6673426190450231,27.934215602941343
103.0,44.77605860196692,42.3256066512105,0.6688523281058587,27.703546502514637
104.0,42.76509535909435,42.79300733515457,0.670344130324647,27.47661950532988
105.0,40.82802250290971,43.19057202076215,0.6718173963750931,27.253476949019014
106.0,38.97727410151516,43.50969500766812,0.6732714984325581,27.03415930568121
107.0,37.223425210829724,43.74358613706609,0.6747058092593065,26.81870536826223
108.0,35.57450577780916,43.887976017534555,0.676119701385733,26.60715241996123
109.0,34.03681195354083,43.94035075876562,0.6775125463832404,26.399536391686805
110.0,32.61510119087606,43.89983459056471,0.6788837142821836,26.19589200033434
111.0,31.312612316305625,43.76723830632907,0.6802325729986866,25.996252895601433
112.0,30.13111367975158,43.545101204028306,0.6815584878903822,25.800651744532832
113.0,29.071224676219547,43.23749584760195,0.6828608220565474,25.609120310772095
114.0,28.132585379762794,42.84983942216115,0.6841389355783031,25.421689645765024
115.0,27.314290820480576,42.38873043063979,0.685392186792475,25.23838993713254
116.0,26.6152599742253,41.861591357327235,0.6866199322554362,25.059250658021607
117.0,26.03465356838322,41.27638143370902,0.6878215276814246,24.884300538421954
118.0,25.572279306800652,40.641306495694934,0.6889963289926267,24.713567533909938
119.0,25.229015103578597,39.96453592851618,0.6901436938413797,24.547078744641258
120.0,25.007151971972274,39.25396889881638,0.6912629835366653,24.38486031604809
121.0,24.910645348194286,38.517060910357316,0.6923535650801361,24.226937328139293
122.0,24.945304972782107,37.76070301742048,0.6934148134992651,24.073333653559878
123.0,25.1189665194728,36.99113999327465,0.6944461151170682,23.924071720688875
124.0,25.441499739732553,36.21395292286747,0.6954468705536355,23.779172326851928
125.0,25.924783879983465,35.43407458380345,0.6964164984080013,23.638654379210713
126.0,26.58258777912027,34.65583773820044,0.6973544392677451,23.502534610032132
127.0,27.430389626727084,33.88304422468948,0.698260160003735,23.37082727310902
128.0,28.485109653656664,33.11905204403022,0.6991331583826447,23.24354381248372
129.0,29.764765523875255,32.36687296356729,0.6999729679524375,23.120692510603742
130.0,31.2880498927119,31.6292689105155,0.7007791631583515,23.002278119093813
131.0,33.073853818393026,30.908818429730164,0.701551364642821,22.88830147611592
132.0,35.14068835026549,30.208000502565962,0.7022892447453829,22.778759109190364
133.0,37.50598190093407,29.52930384027367,0.7029925329838874,22.673642841389793
134.0,40.1852595187734,28.87533678492969,0.7036610215108112,22.572939400990712
135.0,43.19119676633012,28.248935285053545,0.7042945703687266,22.47663004882148
136.0,46.53254412366119,27.653271904079553,0.70489311290021,22.38469019414171
137.0,50.2129059550963,27.091968990198918,0.7054566612302061,22.29708900625095
138.0,54.22935068029884,26.569204669011295,0.7059853108258614,22.213789102483275
139.0,58.57119591149483,26.089803402603177,0.7064792434015783,22.13474636142501
140.0,63.21810165729656,25.659341470932045,0.7069387327480816,22.059909517731665
141.0,68.13890032717066,25.284227351247313,0.7073641470391248,21.989220021179673
142.0,73.28993750481641,24.971763427683825,0.707755951647569,21.922611867698723
143.0,78.61411126278287,24.730198723021754,0.7081147112927172,21.860011473229992
144.0,84.04005475525665,24.568741899474247,0.7084410906922703,21.80133766964838
145.0,89.48186779508916,24.497562611171404,0.7087358557977554,21.74650165521766
146.0,94.83991888661019,24.527752709275344,0.7089998729767615,21.69540710062455
147.0,100.00239709645572,24.67124848294629,0.7092341073732458,21.647950321257643
148.0,104.8481663861379,24.940728945041677,0.7094396214276326,21.6040204372622
149.0,109.25097066354701,25.3494605579994,0.709617570942647,21.563499718956006
150.0,113.08474718788962,25.91110276966641,0.7097692013840814,21.526263919065425
151.0,116.2303532397281,26.639467424893223,0.7098958429624014,21.49218269514584
152.0,118.58262162758953,27.548219224442967,0.7099989041848377,21.461120149139884
153.0,120.05776371876102,28.650526387602184,0.7100798656045093,21.43293535702591
154.0,120.59967407657717,29.958661228635762,0.7101402718054148,21.40748302798701
155.0,120.18433806481914,31.483531091351246,0.7101817229990105,21.384614197266316
156.0,118.8213547823264,33.23413366389588,0.7102058656894003,21.36417699110439
157.0,116.55240371141196,35.21693336206675,0.7102143830245148,21.34601741701697
158.0,113.44611324844062,37.43515875800479,0.7102089838542671,21.329980252570383
159.0,109.5908847191471,39.888006721033264,0.7101913918895734,21.315909930305935
160.0,105.08647870405686,42.56981193114295,0.7101633340594287,21.30365147935205
161.0,100.03629057576133,45.46914937759917,0.710126528665475,21.293051489094992
162.0,94.5413217650555,48.56790009861243,0.7100826730420379,21.283959114113664
163.0,88.69684990350773,51.84046652004474,0.7100334314073075,21.276227053006277
164.0,82.59163126740125,55.253029928169155,0.7099804222756881,21.269712574297508
165.0,76.30910625974006,58.76308996731875,0.7099252060442258,21.264278522110644
166.0,69.92968181853644,62.31941396192907,0.7098692731652141,21.259794271159656
167.0,63.53307654828264,65.86237062357942,0.7098140315808068,21.256136751624677
168.0,57.19999884500466,69.32503157998282,0.7097607958880762,21.25319131936777
169.0,51.01264293841026,72.63493570097603,0.709710775949784,21.250852681023183
170.0,45.05378869498379,75.71673073600965,0.7096650668672589,21.249025700713027
171.0,39.404502505605215,78.49565920164335,0.7096246391249471,21.247626195550698
172.0,34.1406644422408,80.90176955259435,0.7095903304457112,21.246581584981655
173.0,29.328633427742837,82.87463775463738,0.7095628378052155,21.245831530069992
174.0,25.0206197104076,84.3681366629882,0.7095427111129242,21.245328431342664
175.0,21.25052208273547,85.35456143143378,0.7095303484317234,21.24503779740051
176.0,18.030730982955248,85.82767389182358,0.7095259912089145,21.24493861566118
177.0,15.351083727404905,85.80353900374519,0.7095297229950622,21.24502342671153
178.0,13.17986655358142,85.31929380991673,0.7095414676494732,21.245298446361133
179.0,11.467395053725612,84.42936435336988,0.7095609905223677,21.245783436192262
180.0,10.151407808400819,83.19992014975723,0.7095879003003052,21.246511521253254
181.0,9.163556264262136,81.70231213064734,0.7096216529263668,21.247528834619402
182.0,8.435804828900029,80.00667903940727,0.7096615568529541,21.248894052619182
183.0,7.905728505567812,78.17672774248801,0.7097067799238138,21.250677795867016
184.0,7.520038856122305,76.26633572213767,0.7097563575963384,21.252961921111435
185.0,7.236142294021578,74.31814808808855,0.709809202638544,21.255838692843575
186.0,7.022020215679266,72.36385555655164,0.7098641159185689,21.259409867441764
187.0,6.854947974817221,70.42562062665135,0.7099197984152112,21.2637856791319
188.0,6.719671189847058,68.51802314937039,0.7099748640868542,21.26908375867758
189.0,6.606520614584611,66.65004257137433,0.7100278534745623,21.275427995232036
190.0,6.509764614108869,64.8267789345099,0.7100772479216987,21.282947351398516
191.0,6.426331707679802,63.05078624776361,0.7101214841468213,21.291774652964
192.0,6.354898888919124,61.323023273341136,0.7101589689626178,21.302045370616504
193.0,6.295306936049337,59.64347973651446,0.7101880937451401,21.313896427676415
194.0,6.248165876837676,58.011589907523884,0.7102072492808205,21.327464978732916
195.0,6.214637393989456,56.4264741317021,0.7102148395155572,21.34288728193863
196.0,6.196311819051351,54.88708458114671,0.7102092944789096,21.36029764126456
197.0,6.1951412167910505,53.39228968413976,0.7101890834071624,21.379827340009317
198.0,6.213408471098755,51.94092757447561,0.7101527260689453,21.401603716492264
199.0,6.253715216495809,50.53183521438376,0.7100988033870527,21.425749302548358
200.0,6.318982498701539,49.163867451659684,0.710025966833697,21.452381061500713
201.0,6.412450216978849,47.83590770488126,0.7099329465875187,21.481609730080148
202.0,6.5376897379806165,46.546878418426516,0.709818558553387,21.51353924884315
203.0,6.698609540747831,45.295747213410856,0.7096817099408722,21.548266311685797
204.0,6.8994622368894385,44.08153243688972,0.7095214036312992,21.585880012137387
205.0,7.14485005482964,42.90330783563515,0.7093367412961742,21.626461589599884
206.0,7.439727518119904,41.7602065067054,0.7091269253105128,21.670084271742425
207.0,7.789401312003476,40.65142449154995,0.708891259617329,21.716813200014396
208.0,8.199526311374887,39.576224183161926,0.7086291494116912,21.766705448277317
209.0,8.676093772708901,38.53393747179178,0.7083400997853775,21.819810123894314
210.0,9.225412880584878,37.52396919864932,0.7080237135645799,21.87616853196345
211.0,9.854083264071567,36.545800859513335,0.7076796883702696,21.935814400427958
212.0,10.568956759745813,35.598994548338354,0.7073078130051385,21.998774157779035
213.0,11.37708611811581,34.68319700637309,0.7069079632705306,22.06506725522959
214.0,12.285658938599811,33.798143772623064,0.7064800973756249,22.134706520383858
215.0,13.301917955708912,32.94366340739813,0.7060242509251545,22.20769854325049
216.0,14.433059131617876,32.11968119836675,0.7055405315652836,22.284044089486457
217.0,15.686110337070007,31.32622279538473,0.7050291135264071,22.363738521143382
218.0,17.067787816499344,30.56341755069239,0.7044902320748969,22.44677222432574
219.0,18.58432893152382,29.831501555000727,0.7039241779458189,22.533131038204633
220.0,20.241292285189274,29.130819901196524,0.7033312917757126,22.622796684677017
221.0,22.043352924302933,28.46182979032756,0.7027119588168481,22.71574717375363
222.0,23.994058642509987,27.82510176081866,0.7020666035366425,22.811957220668827
223.0,26.09557350598406,27.221321088984954,0.7013956845998011,22.911398632008552
224.0,28.348379865347045,26.65129253246553,0.7006996905752593,23.01404062822052
225.0,30.750967702121642,26.115929920558546,0.6999791338766799,23.119850329133158
226.0,33.29982148017128,25.616274499539568,0.6992345483339962,23.228792912269135
227.0,35.988612194590864,25.1534724342347,0.6984664838150387,23.34083205238696
228.0,38.80830555653796,24.728786439970612,0.6976755031629287,23.455930140218786
229.0,41.74689750064831,24.34358897598779,0.6968621786551417,23.57404855990242
230.0,44.789113950628945,23.99935884897544,0.6960270890327701,23.695147911316518
231.0,47.91639115707246,23.697676561114424,0.6951708166694084,23.819188227402837
232.0,51.106812894966836,23.440217345878402,0.6942939451061723,23.94612916078911
233.0,54.33517765978555,23.22874316197981,0.6933970568597144,24.07593014878147
234.0,57.57319261001091,23.065092787411714,0.6924807315192165,24.20855055654491
235.0,60.789721884243264,22.951168907828084,0.6915455440643006,24.343949801130652
236.0,63.951286448992576,22.88892511334655,0.690592063467447,24.482087454262974
237.0,67.02261251519427,22.880348698201846,0.6896208515005481,24.62292332832524
238.0,69.96733063372224,22.927441193145015,0.6886324617547731,24.766417545279538
239.0,72.74878446677425,23.032195752441687,0.6876274388502193,24.912530590194258
240.0,75.3309534273255,23.196571667065278,0.6866063178115861,25.06122335105984
241.0,77.67942305349142,23.422465272593918,0.6855696236229777,25.212457144793525
242.0,79.76237125437403,23.711677352413325,0.6845178709200437,25.366193731748336
243.0,81.55151550270159,24.065877045743886,0.6834515638211504,25.522395319176674
244.0,83.02301692801078,24.486562279778127,0.6823711958260844,25.681024557553602
245.0,84.15821619384295,24.97501699136542,0.6812772498615574,25.84204452649914
246.0,84.94419846072013,25.532264669042114,0.6801701983801325,26.005418714849164
247.0,85.37417398043559,26.15901526766038,0.6790505034632053,26.171110996461813
248.0,85.4473078714697,26.855628268383516,0.6779186174779558,26.339085582776423
249.0,85.16916635208992,27.622039160819863,0.6767749824358561,26.50930702874624
250.0,84.55046916660919,28.457721901709508,0.6756200314551629,26.681740137233007
251.0,83.60695578876638,29.361629411006813,0.6744541884770688,26.85634994978609
