Time,J,A,S,tau
0.0,100.0,100.0,0.690695023363445,24.4300929645208
1.0,1392.248147604464,840.1315838705916,0.6663993257241763,24.109518726211583
2.0,5628.0202260962305,1514.1638574579022,0.6427612697687645,23.787281960620135
3.0,12343.322537532371,2126.253057408277,0.6197724099600865,23.463397448313675
4.0,21118.68707031779,2680.3415031256063,0.5974238573516166,23.137878296644082
5.0,31575.997744797296,3180.163845259117,0.5757064825321777,22.81073814199834
6.0,43375.47540695987,3629.25680629763,0.5546109281365789,22.48199114697858
7.0,56212.8462813419,4030.968379148807,0.5341276223121161,22.15165199715624
8.0,69816.65940428949,4388.467644276695,0.5142468082199351,21.819733795214177
9.0,83945.80612279373,4704.631712723753,0.49495640984870637,21.48653420474608
10.0,98385.95842086653,4981.8243741071165,0.4762379923973733,21.15325318145454
11.0,112947.28349561767,5222.764503707496,0.45808201105801627,20.819972539422732
12.0,127463.94380936476,5430.053719013797,0.44047932345342755,20.486691897480497
13.0,141792.21491565014,5606.146461003483,0.42342056806837913,20.153411255538277
14.0,155808.34744893876,5753.35942055176,0.40689617309006865,19.820130613596056
15.0,169407.22218663694,5873.873961742706,0.39089639799764586,19.486849971653836
16.0,182500.08266155087,5969.7486449942435,0.37541131820409507,19.153569329711615
17.0,195013.5481686487,6042.919710666795,0.3604308710050525,18.8202886877694
18.0,206888.08065527282,6095.207281873495,0.3459448752806806,18.487008045827178
19.0,218001.26023518608,6212.346845473745,0.3396621689230911,18.359648193299115
20.0,229441.38400467706,7230.137278078995,0.3378721132406331,18.350846836795558
21.0,244817.09921449068,9135.885085086837,0.33608354881798763,18.343315305476544
22.0,267056.3395758777,11767.966288205358,0.3342972902842149,18.337038865811284
23.0,298274.2023910059,14983.193067624878,0.33251415215625596,18.332002528838185
24.0,339898.837833577,18655.126091544164,0.330734948278644,18.32819105695803
25.0,392782.66390797624,22672.5215763576,0.3289604912634816,18.32558897061365
26.0,457300.24382164347,26937.904670816366,0.32719158996278347,18.324180658306584
27.0,533434.4171242258,31366.454200690558,0.32542967074636164,18.323917711284142
28.0,620855.9352922299,35889.87762119162,0.3236919730518432,18.32392056664839
29.0,719004.9172614402,40446.31186379562,0.3219841018565329,18.32392056779578
30.0,827128.6673867744,44981.15527918648,0.3203064820896528,18.3239205677958
31.0,944327.3587056291,49447.85651545072,0.31865957994193284,18.3239205677958
32.0,1069595.2522217617,53807.06050998376,0.31704384864395274,18.3239205677958
33.0,1201857.4433006293,58025.88191832185,0.3154597284006601,18.3239205677958
34.0,1339997.818881785,62077.20286777967,0.31390764647528,18.3239205677958
35.0,1482887.0657392892,65939.055535063,0.3123880171764066,18.3239205677958
36.0,1629400.8021476965,69594.0417451927,0.310901241978862,18.3239205677958
37.0,1778444.381687731,73021.82178319317,0.30944770948714295,18.3239205677958
38.0,1928911.6232740134,76508.7804027555,0.30802779566145433,18.3239205677958
39.0,2081668.598153501,81139.16274519052,0.3066418637961451,18.3239205677958
40.0,2241406.581762962,87841.16647721287,0.3052902646661647,18.3239205677958
41.0,2415537.576081047,97278.95004285286,0.30397333663885956,18.3239205677958
42.0,2613089.912821252,109896.26190376218,0.30269140579346304,18.3239205677958
43.0,2843836.997186212,125954.60534481247,0.30144478606230773,18.3239205677958
44.0,3117623.9881339134,145566.11201145663,0.3002337793619124,18.3239205677958
45.0,3443858.1163941235,168722.15671910002,0.2990586757475414,18.3239205677958
46.0,3831137.5049469755,195319.1852587354,0.2979197535698242,18.3239205677958
47.0,4286999.05540469,225184.1847197611,0.29681727962958304,18.3239205677958
48.0,4817768.034143927,258087.92647885642,0.29575150934158756,18.3239205677958
49.0,5428464.650402103,293758.65527194925,0.29472268690513964,18.3239205677958
50.0,6122767.446890076,331894.9053745209,0.2937310454891322,18.3239205677958
51.0,6903018.895037529,372176.17420691426,0.29277680736233536,18.3239205677958
52.0,7770278.27815434,414271.935885627,0.2918601841414321,18.3239205677958
53.0,8724384.084029421,457848.990198641,0.2909813768780238,18.3239205677958
54.0,9764053.019433293,502577.5144824771,0.29014057631951445,18.3239205677958
55.0,10886978.282908287,548136.424396762,0.28933796302280146,18.3239205677958
56.0,12089936.413707566,594224.1242435401,0.28857370752995276,18.3239205677958
57.0,13369064.526381284,641061.9318989331,0.2878479705724954,18.3239205677958
58.0,14722422.590971384,689964.8849022228,0.2871609032258608,18.3239205677958
59.0,16153524.54189552,743069.1726982519,0.286512647064406,18.3239205677958
60.0,17673511.00128705,803004.1749952357,0.2859033343134497,18.3239205677958
61.0,19302103.76513651,872635.1230588038,0.28533308800708806,18.3239205677958
62.0,21067669.937414754,954865.5548417335,0.28480202213405165,18.3239205677958
63.0,23006651.164360628,1052488.8460607135,0.28431024177644,18.3239205677958
64.0,25162568.172089547,1168080.1569003938,0.28385784324245167,18.3239205677958
65.0,27584770.629095532,1303923.5234565488,0.2834449141910913,18.3239205677958
66.0,30327022.33276575,1461968.4050366548,0.28307153374517957,18.3239205677958
67.0,33446116.935606137,1643802.160129943,0.28273777260257305,18.3239205677958
68.0,37000482.12677424,1850638.5605806957,0.28244369313450707,18.3239205677958
69.0,41048845.20123876,2083319.3110645886,0.2821893494694918,18.3239205677958
70.0,45649047.883543655,2342325.352739768,0.28197478757653577,18.3239205677958
71.0,50856962.0382409,2627796.002692358,0.2818000453380155,18.3239205677958
72.0,56725530.931419,2939553.192974532,0.28166515260059616,18.3239205677958
73.0,63304050.07834784,3277128.179030586,0.2815701312248412,18.3239205677958
74.0,70637401.79748175,3639792.2607515226,0.2815149951138366,18.3239205677958
75.0,78765775.10758694,4026646.0089961784,0.2814997502889522,18.3239205677958
76.0,87724522.07797952,4437307.928914632,0.2815243948110656,18.3239205677958
77.0,97547284.69710697,4872918.628750592,0.28158891883077675,18.3239205677958
78.0,108272163.05045748,5336788.679848952,0.2816933046329153,18.3239205677958
79.0,119949440.4339284,5834728.383364722,0.281837526569383,18.3239205677958
80.0,132649673.25211953,6375106.749958329,0.2820215510236932,18.3239205677958
81.0,146471562.13195947,6968723.613130781,0.28224533639328303,18.3239205677958
82.0,161548520.43388847,7628566.17766951,0.2825088330216382,18.3239205677958
83.0,178054601.2629757,8369482.620177649,0.28281198313586103,18.3239205677958
84.0,196208411.0008609,9207807.506518584,0.28315472080561965,18.3239205677958
85.0,216275778.5441734,10160988.584266584,0.283536971811933,18.3239205677958
86.0,238571524.36818266,11247193.962180424,0.28395865360966344,18.3239205677958
87.0,263458776.05117399,12484956.214193475,0.2844196751893704,18.3239205677958
88.0,291348769.83166623,13892820.900642162,0.28491993698002605,18.3239205677958
89.0,322698146.1812142,15489042.718235208,0.28545933075146485,18.3239205677958
90.0,358006176.6140679,17291309.26642344,0.2860377394439883,18.3239205677958
91.0,397811806.3551594,19316499.58756999,0.28665503709156326,18.3239205677958
92.0,442688488.5233993,21580494.636170417,0.2873110886357175,18.3239205677958
93.0,493241217.38130754,24098000.382337153,0.28800574980351545,18.3239205677958
94.0,550100767.741559,26882588.020251412,0.2887388669647081,18.3239205677958
95.0,613920580.9652394,29947508.76579975,0.2895102769376055,18.3239205677958
96.0,685377591.756239,33307434.07428894,0.29031980688365217,18.3239205677958
97.0,765178503.3171967,36980767.58192746,0.2911672740912266,18.3239205677958
98.0,854077638.6256677,40992118.885517746,0.29205248584408167,18.3239205677958
99.0,952898185.9609231,45374776.38897829,0.29297523923201624,18.3239205677958
100.0,1062568210.0792533,50172920.64098655,0.293935320993414,18.3239205677958
101.0,1184155594.87595,55443578.57628435,0.2949325073325578,18.3239205677958
102.0,1318916756.1832678,61258128.53907285,0.29596656376604236,18.3239205677958
103.0,1468339848.65073,67703527.90023907,0.29703724492636663,18.3239205677958
104.0,1634201151.8704557,74882992.03597991,0.298144294429596,18.3239205677958
105.0,1818610435.0795915,82916516.27891925,0.2992874446650394,18.3239205677958
106.0,2024069779.379431,91940792.96750139,0.3004664166870767,18.3239205677958
107.0,2253516298.599784,102109138.9254811,0.3016809199949478,18.3239205677958
108.0,2510379033.5989375,113590798.03603925,0.30293065245099665,18.3239205677958
109.0,2798615896.778066,126570420.1865054,0.3042153000553697,18.3239205677958
110.0,3122765195.9051685,141246929.32484454,0.30553453689208576,18.3239205677958
111.0,3487975527.6098685,157832694.68342757,0.3068880249042957,18.3239205677958
112.0,3900049169.1471114,176552155.5368157,0.30827541386858753,18.3239205677958
113.0,4365465579.585256,197641127.2976274,0.30969634117736355,18.3239205677958
114.0,4891416505.92146,221346872.00924525,0.31115043184066576,18.3239205677958
115.0,5485835203.104443,247930754.4051519,0.3126372982831542,18.3239205677958
116.0,6157443271.199456,277673153.35696775,0.3141565403715129,18.3239205677958
117.0,6915823547.799054,310881723.1952076,0.31570774523437184,18.3239205677958
118.0,7771515927.597004,347901890.85820925,0.31729048731235676,18.3239205677958
119.0,8736179965.733475,389130483.38131374,0.3189043282094614,18.3239205677958
120.0,9822775282.711637,435030839.7428795,0.3205488167627676,18.3239205677958
121.0,11045852471.150171,486150410.616429,0.32222348893276337,18.32392056779568
122.0,12421843103.970482,543138952.8067644,0.3239278675548658,18.323920583948013
123.0,13969505481.795547,606768860.3846632,0.32566156980667343,18.323915474328043
124.0,15710338385.671892,677913132.1983719,0.3274165964591103,18.324265481524993
125.0,17668881830.71512,757531945.6576935,0.32917590439967687,18.325762485457567
126.0,19873183280.51125,846823480.7649382,0.3309381966870261,18.32843946183133
127.0,22355725558.417496,947173865.9101253,0.33270263271444506,18.332307236299847
128.0,25154047314.191833,1060170214.6930399,0.33446837488175707,18.337376329177253
129.0,28311569200.548065,1187614667.083515,0.33623459106121173,18.34365686472179
130.0,31878350108.880856,1331536562.0526352,0.3380004552117161,18.351158570034432
131.0,35911917415.23931,1494203598.3880148,0.3397651479906163,18.359890772897202
132.0,40478162979.132996,1678132125.998439,0.3415278573574276,18.36986239940932
133.0,45652288272.35647,1886097107.6982548,0.34328777913526215,18.38108197303953
134.0,51519732124.575584,2121146508.0686176,0.3450441175632082,18.393557613274307
135.0,58177171040.08827,2386623341.6864767,0.34679608584562815,18.407297033663102
136.0,65733726755.97763,2686196401.8518615,0.34854290665832866,18.422307540921988
137.0,74312205574.64299,3023905179.4608,0.35028381262785113,18.438596034396866
138.0,84050525492.37317,3404222165.836873,0.3520180468076883,18.456169004839392
139.0,95103574545.98871,3832133405.053676,0.3537448631300151,18.475032533348436
140.0,107645366366.61963,4313238087.665865,0.35546352680464083,18.495192291508125
141.0,121871567533.53107,4853871283.03625,0.3571733138993046,18.516653579735827
142.0,138002604085.6813,5461271883.890443,0.358873967283297,18.539399557578665
143.0,156288475464.5464,6144507476.516502,0.36058117394068284,18.562651078247825
144.0,177016259080.86655,6913593568.201785,0.36230087663166394,18.586093200103225
145.0,200513015427.77692,7779760774.107205,0.364032439354799,18.609724890274123
146.0,227152011639.6023,8755984784.821266,0.36577532748482233,18.633539980400418
147.0,257360276371.88965,9857241531.626392,0.3675290020634407,18.65753223015621
148.0,291627184461.211,11100792287.86927,0.36929291997986013,18.681695330367532
149.0,330514612590.29755,12506490714.751593,0.3710665341985704,18.706022903823865
150.0,374668525301.72144,14097096397.717632,0.37284929400252864,18.730508506335624
151.0,424831475410.60175,15898611107.584875,0.37464064523793433,18.755145627731814
152.0,481856670411.6554,17940641244.38887,0.37644003055671954,18.779927692775118
153.0,546724481601.29755,20256767789.78265,0.3782468896656516,18.804848062255186
154.0,620559670440.4645,22884949494.032787,0.3800606595836468,18.829900034152864
155.0,704650278215.3375,25867982771.51509,0.3818807748964167,18.85507684471382
156.0,800469878693.6793,29254019587.52333,0.38370666801112946,18.880371669563267
157.0,909701612788.4854,33097157570.853226,0.3855377694199319,18.905777625017897
158.0,1034264364584.4019,37458157117.11539,0.3873735079622723,18.931287769327803
159.0,1176342995401.1506,42405315651.93422,0.38921331108612284,18.956895103873318
160.0,1338424255994.4656,48015482123.8787,0.39105660511166934,18.982592574566187
161.0,1523335467421.808,54375286246.529625,0.3929028154973919,19.008373073260874
162.0,1734289517231.6335,61583245630.39964,0.3947513671046586,19.034229439101455
163.0,1974945348306.983,69752244102.15778,0.3966016844603701,19.060154459969443
164.0,2249474459850.6577,79010776681.18567,0.39845319202148477,19.08614087406056
165.0,2562633710149.6055,89505374895.87352,0.40030531443806333,19.1121813714032
166.0,2919853434303.5864,101403575822.0194,0.4021574768150744,19.13826859537844
167.0,3327341151513.3994,114897247167.7263,0.40400910497035447,19.164395144427058
168.0,3792197637164.4053,130206437118.01686,0.405859625692225,19.190553573735382
169.0,4322553066675.3086,147583819773.8902,0.4077084669969045,19.21673639689062
170.0,4927732849756.758,167319574216.8761,0.4095550583791352,19.242936087668355
171.0,5618439296809.987,189746847684.44376,0.41139883106005715,19.269145081885984
172.0,6406959121674.187,215247952242.82938,0.4132392182348733,19.295355779222227
173.0,7307413105303.053,244261206234.08795,0.41507565531678564,19.32156054508468
174.0,8336033916175.963,277288352592.2401,0.4169075801714109,19.34775171261125
175.0,9511474814212.973,314902935109.16925,0.41873443335067984,19.373921584652198
176.0,10855166119853.04,357759787384.4655,0.42055565832722247,19.400062435758368
177.0,12391732323358.984,406605280300.58386,0.422370701715279,19.426166514293822
178.0,14149440254631.807,462289013149.03156,0.42417901348787257,19.452226044574886
179.0,16160706240695.25,525777379512.45245,0.4259800471955097,19.478233229008534
180.0,18462705114351.28,598168779623.5853,0.42777326017626394,19.504180250302102
181.0,21098029541943.863,680710994331.1757,0.4295581137534027,19.530059273747845
182.0,24115432130627.71,774822822407.3683,0.4313340734341245,19.555862449510567
183.0,27570712039436.023,882120385217.2344,0.433100609107797,19.5815819149545
184.0,31527745275303.098,1004445188414.6445,0.4348571952246336,19.607209797050512
185.0,36059620731719.35,1143896982274.3872,0.4366033109727272,19.632738214802373
186.0,41249959306108.19,1302872835944.6294,0.43833844045807646,19.65815928170906
187.0,47194514033300.14,1484111555010.7412,0.4400620728693736,19.683465108282938
188.0,54002923712208.78,1690745369793.7178,0.44177370263139415,19.708647804602997
189.0,61800729995112.64,1926360917906.6785,0.44347282956189665,19.73369948290513
190.0,70731829619594.7,2195069518326.2742,0.4451589590244182,19.758612260223792
191.0,80961245215478.67,2501586499826.8027,0.44683160205899297,19.78337826105536
192.0,92678259966666.67,2851323484577.06,0.4484902755145414,19.807989620060468
193.0,106100103200450.94,3250495550981.565,0.45013450218487255,19.832438484834096
194.0,121476334643762.95,3706239693057.433,0.4517638109228705,19.856717018676143
195.0,139093658617609.19,4226750440429.6465,0.45337773674786663,19.8808174033907
196.0,159281460195567.47,4821436560530.981,0.45497582095874006,19.904731842161137
197.0,182418494763443.5,5501095683188.302,0.4565576112372118,19.928452562448115
198.0,208940233914504.3,6278109811056.147,0.4581226617310814,19.951971818867033
199.0,239347173239899.75,7166670290537.451,0.4596705331425135,19.975281896139204
200.0,274214618803924.3,8183035133396.91,0.46120079281884396,19.998375112122684
201.0,314203925137381.3,9345812290229.701,0.46271301481746807,20.021243820765807
202.0,360074836688594.1,10676287692366.385,0.46420677997018234,20.043880415116405
203.0,412699691486373.3,12198811300233.562,0.46568167595472854,20.066277330441775
204.0,473080447947761.6,13941230627517.766,0.46713729735012494,20.088427047295895
205.0,542367211628466.4,15935388509273.75,0.46857324567785386,20.11032209456128
206.0,621879335176805.8,18217706284585.21,0.4699891294510197,20.131955052606326
207.0,713130783040084.4,20829854631394.445,0.4713845642224879,20.15331855648901
208.0,817858567626664.5,23819512464387.957,0.4727591726076549,20.174405299022126
209.0,938054696230723.0,27241257286989.86,0.4741125843123097,20.19520803393717
210.0,1076003554946664.6,31157611973676.58,0.4754444361681671,20.215719579179197
211.0,1234326303143049.0,35640221212484.73,0.4767543721468852,20.235932820037938
212.0,1416029617355461.0,40771221503333.39,0.47804204336802103,20.255840712292354
213.0,1624561910724806.5,46644852848518.586,0.4793071081170759,20.275436285510306
214.0,1863881588198226.0,53369293308315.37,0.4805492318571858,20.294712646303445
215.0,2138532537976855.5,61068748728597.47,0.48176808722056913,20.31366298142884
216.0,2453730203906150.0,69885890731849.94,0.48296335400910934,20.33228056103525
217.0,2815463745637764.0,79984682096194.06,0.4841347192015797,20.3505587420236
218.0,3230614433055451.5,91553522126686.92,0.48528187693692154,20.368490971133085
219.0,3707086876869663.0,104808887982445.83,0.4864045284995868,20.386070788109826
220.0,4253960992533409.5,119999572782757.83,0.48750238231610077,20.40329182905731
221.0,4881674471812783.0,137411410626311.14,0.4885751539396518,20.42014782960075
222.0,5602222166622149.0,157372658362399.38,0.4896225660223996,20.43663262794073
223.0,6429383260952375.0,180260247343738.84,0.49064434829961,20.452740168096366
224.0,7378993354375180.0,206506919072939.78,0.4916402375773159,20.468464503177522
225.0,8469249199357380.0,236609216152957.1,0.49260997769776305,20.483799798328246
226.0,9721049852042544.0,271136768269001.84,0.493553319513181,20.49874033382043
227.0,1.1158393591530852e+16,310743114074037.94,0.49447002087094966,20.513280508330926
228.0,1.2808846494204754e+16,356177751689437.06,0.4953598465822948,20.527414841870335
229.0,1.470405392206791e+16,408300081837424.7,0.4962225683875279,20.541137978693442
230.0,1.6880326420337266e+16,468095747259867.94,0.4970579649347666,20.55444469043303
231.0,1.9379346598168304e+16,536695186407281.94,0.497865821757332,20.56732987910859
232.0,2.224894654951951e+16,615394769901845.5,0.4986459312344416,20.579788579831533
233.0,2.554398946948603e+16,705681541595115.5,0.49939809256407236,20.591815963714104
234.0,2.932741190278218e+16,809262043445945.8,0.500122111746197,20.60340734091249
235.0,3.367143000736624e+16,928094621000878.4,0.5008178015472813,20.61455816319069
236.0,3.8658873030718264e+16,1064427136058296.4,0.5014849814693295,20.625264026579845
237.0,4.4384727136438184e+16,1220841244515858.0,0.5021234777331445,20.635520674272286
238.0,5.095799420564251e+16,1400302279075611.5,0.5027331232548655,20.64532399919393
239.0,5.850372568793797e+16,1606216561475058.2,0.5033137576132805,20.654670046371987
240.0,6.716534607627967e+16,1842498431648722.8,0.5038652270315321,20.663555015547825
241.0,7.71074453684541e+16,2113647215087277.5,0.5043873843662929,20.671975263791243
242.0,8.851891983793402e+16,2424833688430449.0,0.5048800890790481,20.67992730760306
243.0,1.0161649521510154e+17,2782000577078254.5,0.5053432072178375,20.68740782520297
244.0,1.1664883313117485e+17,3191979613413697.5,0.5057766114131207,20.694413659031245
245.0,1.3390139192360638e+17,3662621849586415.0,0.5061801808619316,20.70094181773553
246.0,1.53701734375479e+17,4202947766917898.0,0.5065538013107009,20.70698947810059
247.0,1.7642560319119027e+17,4823322362657665.0,0.50689736505375,20.712553987244764
248.0,2.02504245347952e+17,5535653185147618.0,0.5072107709342477,20.71763286461624
249.0,2.324324544385854e+17,6353614380509644.0,0.5074939243312765,20.722223803554435
