Time,J,A,S,tau
0.0,100.0,100.0,0.573710098882085,67.40817702869332
1.0,99.81592725717175,89.74025183070111,0.5728409675176835,68.40735442118357
2.0,99.63075435450088,80.53809851775294,0.5719835458597069,69.40668033941328
3.0,99.4476159125365,72.28646928574565,0.5711371912778845,70.40600625764299
4.0,99.26640596672468,64.88664877114147,0.5703013069228883,71.4053321758727
5.0,99.08702148453976,58.250266076561736,0.5694753119376612,72.40465809410242
6.0,98.90936220253703,52.298160688861586,0.568658640549884,73.40398401233212
7.0,98.73333046953806,46.95943026667013,0.5678507411976453,74.40330993056183
8.0,98.5588310970235,42.170571228479155,0.5670510756940746,75.40263584879153
9.0,98.38577121555326,37.87470359423213,0.5662591184243772,76.40196176702125
10.0,98.21406013294059,34.02085488094754,0.5654743555520859,77.40128768525096
11.0,98.04360919387281,30.563351871447114,0.5646962842331681,78.40061360348068
12.0,97.8743316533446,27.46128899726542,0.5639244119044025,79.3999395217104
13.0,97.7061425443447,24.67797993204875,0.5631582555404843,80.39926543994011
14.0,97.53895855111445,22.180552119733235,0.5623973409413334,81.39859135816982
15.0,97.37269789300704,19.939550132450478,0.5616412020756276,82.39791727639954
16.0,97.20728020025754,17.928550016041623,0.5608893803812353,83.39724319462925
17.0,97.04262640088879,16.123878471123696,0.560141424124983,84.39656911285897
18.0,96.8786586095902,14.504304404997384,0.559396887772248,85.39589503108868
19.0,96.71530001364444,13.050784441672853,0.5586553313415876,86.3952209493184
20.0,96.5524747688868,11.74625467089613,0.5579163198114601,87.39454686754812
21.0,96.39010789282202,10.57540178212834,0.5571794225120241,88.39387278577782
22.0,96.22812516013788,9.524493675610913,0.5564442125300414,89.39319870400753
23.0,96.0664530038542,8.581219577141557,0.5557102661414762,90.39252462223725
24.0,95.90501841341217,7.734528419875234,0.554977162229582,91.39185054046696
25.0,95.7437488374186,6.974512911713897,0.5542444817262464,92.39117645869668
26.0,95.5825720877133,6.292284062488997,0.5535118070587043,93.39050237692639
27.0,95.42141624301999,5.6798635556510515,0.5527787215964318,94.38982829515611
28.0,95.26020955577663,5.130098704675697,0.5520448091111803,95.38915421338582
29.0,95.09888035884673,4.636567833566095,0.5513096532370415,96.38848013161554
30.0,94.93735697376397,4.19350881353999,0.5505728369396481,97.38780604984525
31.0,94.77556761928052,3.795754043229498,0.5498339419820618,98.38713196807497
32.0,94.61344032127744,3.4386625161762874,0.5490925484014466,99.38645788630468
33.0,94.45090282332488,3.1180713393477384,0.5483482339867956,100.3857838045344
34.0,94.28788249628192,2.8302445527854103,0.5476005737479779,101.38510972276411
35.0,94.12430625123851,2.5718272486933262,0.5468491394073159,102.38443564099383
36.0,93.96010044998725,2.339810547190105,0.5460934988718303,103.38376155922354
37.0,93.79519081651735,2.131492361407012,0.5453332157113678,104.38308747745326
38.0,93.62950235137222,1.944447001850042,0.544567848654578,105.38241339568296
39.0,93.4629592408675,1.776498534407827,0.5437969510494962,106.38173931391268
40.0,93.29548477165709,1.6256918216626688,0.5430200703579645,107.38106523214239
41.0,93.12700124349551,1.4902732391658093,0.5422367476374141,108.3803911503721
42.0,92.95742987796493,1.3686680272747924,0.5414465169950277,109.37971706860182
43.0,92.78669073769737,1.2594623955683213,0.5406489051085808,110.37904298683154
44.0,92.61470263013722,1.1613872731394677,0.5398434306469615,111.37836890506125
45.0,92.44138302981528,1.07330292465077,0.5390296038077177,112.37769482329097
46.0,92.26664797966323,0.9941866434557202,0.5382069257203773,113.37702074152068
47.0,92.09041201527337,0.9231195724808967,0.5373748879936864,114.3763466597504
48.0,91.912588064756,0.8592772620846807,0.5365329721079463,115.37567257798011
49.0,91.73308737384097,0.801919167485182,0.5356806489649325,116.37499849620984
50.0,91.55181940416539,0.7503806574292167,0.5348173782682046,117.37432441443957
51.0,91.36869175979281,0.7040650305483358,0.5339426080795022,118.37365033266929
52.0,91.18361009042007,0.6624359872034035,0.5330557742269628,119.37297625089901
53.0,90.99647800614545,0.6250125837302231,0.532156299785953,120.37230216912872
54.0,90.80719699785729,0.5913626084049749,0.5312435945921378,121.37162808735843
55.0,90.6156663372736,0.5610981483916526,0.5303170546270111,122.37095400558815
56.0,90.4217830025347,0.5338710639323784,0.529376061561581,123.37027992381785
57.0,90.22544159803047,0.5093682887807313,0.528419982261383,124.36960584204756
58.0,90.02653425474341,0.4873090376164423,0.5274481681701716,125.36893176027728
59.0,89.82495055675665,0.4674412344564394,0.5264599548542107,126.36825767850699
60.0,89.62057746587145,0.4495383667282673,0.5254546615328282,127.3675835967367
61.0,89.4132992346546,0.4333971980372012,0.5244315905361282,128.3669095149664
62.0,89.20299733456282,0.41883508459685853,0.5233900268535306,129.36623543319612
63.0,88.98955037621344,0.4056880392110829,0.5223292376324874,130.36556135142584
64.0,88.77257821588776,0.3940613052457064,0.5212484947898355,131.36488189658544
65.0,88.54841432459035,0.38717444251877764,0.5201473478684986,132.3641225375274
66.0,88.31513842727279,0.3862110440112557,0.5190251693868118,133.36324499822166
67.0,88.07166142159299,0.3914705287993204,0.5178812370328361,134.36222828207733
68.0,87.81671112409067,0.4033905702851702,0.5167148248172496,135.36104735880795
69.0,87.5487965304204,0.4225708406362129,0.5155252059242306,136.35967234907065
70.0,87.2661646470913,0.4497944079082616,0.5143116563040304,137.3580675346344
71.0,86.96674858819658,0.4860597715996705,0.5130734590653601,138.35619016411005
72.0,86.64810498353653,0.5326183677534302,0.5118099098740759,139.35398900656622
73.0,86.30733835378433,0.5910193453465044,0.5105203235720612,140.35140259632374
74.0,85.94101014103715,0.6631665111566798,0.509204042222493,141.3483571127184
75.0,85.54502910773552,0.7513858353623224,0.5078604448921227,142.34476381381725
76.0,85.11451941882753,0.8585075562476576,0.5064889595008054,143.3405159332388
77.0,84.64366189696685,0.987965621213119,0.5050890771485067,144.3354849279138
78.0,84.12550399933622,1.143915884575178,0.5036603693421037,145.32951596331912
79.0,83.55173201804568,1.3313789169449826,0.5022025086934018,146.3224224730028
80.0,82.91239818447654,1.556410294361922,0.5007152937553805,147.31397960515108
81.0,82.19559650115254,1.8263034795118946,0.49919867857736283,148.30391639187297
82.0,81.4567230433139,2.1858967711626427,0.4976528077086883,149.29190642698637
83.0,81.02980525489433,2.80546080182056,0.49607805755941,150.2775567827785
84.0,80.63937877149903,3.5410108978037367,0.49447508488576264,151.26039492818182
85.0,80.30509621108844,4.41535493810567,0.4928448830625009,152.23985343236774
86.0,80.05335933286278,5.455679726813218,0.49118884671323193,153.21525224868208
87.0,79.91941221299243,6.694300317380786,0.48950884503596653,154.18577842330535
88.0,79.9500358563947,8.169491349081616,0.48780730350221424,155.1504632406339
89.0,80.2069974559654,9.926387365044217,0.4860872928550698,156.1081570078121
90.0,80.77143784849272,12.017929422582665,0.48435262343965096,157.0575019102947
91.0,81.74940173637147,14.505808668088251,0.4826079404720411,157.99690403386086
92.0,83.27875825487803,17.461353253345315,0.4808588154122003,158.92450575947942
93.0,85.53776773682398,20.96625950465321,0.47911182445070105,159.8381609043838
94.0,88.7555098667183,25.113047638706515,0.4773746030470342,160.73541559594858
95.0,93.22443994590851,30.00510579551561,0.4756558639782416,161.6134983126947
96.0,99.31519542877211,35.756134781329415,0.47396536148131563,162.46932401360178
97.0,107.49363675044181,42.48884084014745,0.4723137868795104,163.29951658665664
98.0,118.34003007613897,50.33270832290324,0.4707125798681208,164.1004543717897
99.0,132.56976596043327,59.42077078980249,0.4691736467171048,164.86834169746228
100.0,151.0551097551855,69.88537967702509,0.4677089846005337,165.5993072589233
101.0,174.84653109434987,81.85312932258816,0.4663302247305322,166.28952655166398
102.0,205.1927272338956,95.43923213069634,0.4650481205067793,166.93536161598809
103.0,243.55717815465238,110.74183621360967,0.4638720238873645,167.53350662160156
104.0,291.63044455947556,127.83680616984012,0.4628093976407381,168.08112602091438
105.0,351.3360840221664,146.77361389350187,0.46186542181318274,168.57596895728284
106.0,424.8302794337451,167.57274144726784,0.4610427324793792,169.01644858589916
107.0,514.4940554817856,190.22499387514108,0.46034132998145194,169.40167530881556
108.0,622.919456746775,214.692650854408,0.459758652466588,169.73144406408113
109.0,752.8899116009018,240.9123588244398,0.4592898077979836,170.00617696854565
110.0,907.3569159920945,268.7992422826665,0.4589279183840297,170.2268333213309
111.0,1089.4140045934193,298.2518040695217,0.45866454165799586,170.39479717371174
112.0,1302.2699639471712,329.15701142198907,0.45849011219195057,170.51175743897443
113.0,1549.222053743358,361.3951664696811,0.4583943697140242,170.57959071144637
114.0,1833.6303791620724,394.84419778035425,0.45836673991309806,170.60025627317364
115.0,2158.8937026716576,429.38319286202363,0.4583966512089557,170.5757082746404
116.0,2528.4268423501026,464.8951072489587,0.45847378087989843,170.50782719560348
117.0,2945.639649282099,501.2686680062104,0.4585882316762494,170.39837049324495
118.0,3413.9172016285343,538.3995664723225,0.4587306462810467,170.2489405340299
119.0,3936.6008141955435,576.1910952770717,0.45889227302660734,170.06096615853227
120.0,4516.970190828728,614.5542566224469,0.45906498553940583,169.8356972525195
121.0,5158.224880769682,653.4076432833873,0.45924128126932073,169.57420529801078
122.0,5863.467269236983,692.6769643568119,0.4594142493012781,169.27739272901732
123.0,6635.684188273912,732.2945342357621,0.45957753405711643,168.94600354247768
124.0,7477.728569742955,772.1986449764274,0.45972528836357696,168.58063707461966
125.0,8392.301893665006,812.3328827983627,0.4598521214442329,168.18176336597196
126.0,9381.934902492607,852.6455038449601,0.45995305165399414,167.74973734775517
127.0,10448.969941151878,893.0887886873193,0.46002345727216537,167.28481373365716
128.0,11595.541025518058,933.6184964371499,0.4600590353935206,166.78715981042828
129.0,12823.555551520682,974.1933251028643,0.4600557615507481,166.2568681811665
130.0,14134.675356914666,1014.7744392093365,0.46000985515794646,165.69396804646794
131.0,15530.301809339837,1055.3250300815637,0.45991774729378504,165.09843584842721
132.0,17011.559582611408,1095.8099949848947,0.4597760571986229,164.47020363827542
133.0,18579.261032856248,1136.1956446137065,0.4595815777020434,163.80916597802127
134.0,20233.930320974574,1176.4492467874916,0.45933123668923265,163.1151910488428
135.0,21975.73933186261,1216.5391459324362,0.45902211396328096,162.38812095856872
136.0,23804.549541240754,1256.4340969152613,0.4586513931806788,161.62778378762604
137.0,25719.82229842461,1296.1036482198122,0.45821639972512246,160.8339919584292
138.0,27720.748519750276,1335.5174325041432,0.45771453141751733,160.0065526334053
139.0,29806.026891390768,1374.6455528979202,0.45714333495960013,159.14526676992966
140.0,31974.12281062928,1413.458173965447,0.4565004182809079,158.24993476424646
141.0,34223.01173739015,1451.925584832382,0.4557835241968245,157.3203592473279
142.0,36550.36114372455,1490.0181128218153,0.4549904791268986,156.35634659239562
143.0,38953.43177291473,1527.7061511940055,0.45411922976076435,155.3577109267476
144.0,41429.12087345709,1564.9600517944114,0.4531678254322791,154.32427484393003
145.0,43973.98507369887,1601.7502052771626,0.45213442802373344,153.25587175528568
146.0,46584.184277773056,1638.0469730267764,0.45101732786509235,152.15234875050973
147.0,49255.59652695413,1673.8207547440406,0.44981492123581435,151.01356514590213
148.0,51983.714328909475,1709.0419866938714,0.44852575802863126,149.83939890020537
149.0,54769.7334381815,1735.6619795849338,0.530301385588985,58.65405321569497
150.0,57567.44331490324,1809.3258725491446,0.5503482239713517,47.63008875979381
151.0,60516.8147595832,1959.9738402839503,0.5533648539908742,44.17220484054698
152.0,63792.56263162679,2183.646059907393,0.55315901757075,41.96041109141862
153.0,67566.26548721912,2483.8844206958415,0.5515873077542008,40.27694752847639
154.0,72019.2338925963,2864.9650809027908,0.5493063315499545,38.884457359634034
155.0,77343.00450997344,3330.7239840223997,0.5466244436674044,37.67642729752271
156.0,83737.33063611455,3884.136191302764,0.543709182207595,36.59677670538419
157.0,91407.15827272307,4527.140683563763,0.5406598415250743,35.61287096222665
158.0,100559.04769335414,5260.582774522084,0.5375387358990507,34.70431153710822
159.0,111397.4568212145,6084.2199845603,0.5343865584613087,33.8576158156132
160.0,124121.05940930021,6996.768723355994,0.5312306732694135,33.06344206952354
161.0,138919.2240243563,7995.97569329084,0.5280898959679883,32.31504330470082
162.0,155968.8195054173,9078.705197300214,0.5249773996790776,31.60735842020719
163.0,175431.1094311404,10241.035194208438,0.5219025377848961,30.936460677869007
164.0,197449.5049356392,11478.356762448986,0.5188720409028473,30.29920488486531
165.0,222147.08996851285,12785.47520133388,0.5158907970262652,29.693004925236863
166.0,249625.02219894656,14156.712347713501,0.5129623949920952,29.115681097614384
167.0,279961.55182156875,15585.99691582356,0.5100894850288027,28.56535953760677
168.0,313210.6818540043,17066.961601408406,0.5072740380045776,28.040402713499446
169.0,349402.0800430238,18593.02736104094,0.504517526508145,27.539358767163467
170.0,388541.00360472884,20157.484653219202,0.5018210536668166,27.060925960427916
171.0,430608.5309071783,21753.568854792342,0.4991854458958824,26.603926776391585
172.0,475562.32222856925,23374.528565013992,0.4966113208472157,26.167287883915836
173.0,523337.62256857264,25013.68685635264,0.4940991360168303,25.750025053501282
174.0,573848.3591433095,26664.49932494436,0.4916492270668974,25.351232196948693
175.0,626979.1142758026,28325.809106115932,0.4892618319294665,24.970070197005782
176.0,682643.8536232823,30158.742881352708,0.4869371125129528,24.60576090568327
177.0,741257.6555034337,32365.350422702246,0.4846751708948891,24.25758034937264
178.0,803758.7381828672,35137.16758073911,0.482476060206832,23.92485347386752
179.0,871572.7808576883,38663.46881284973,0.4803397934292179,23.606949684177426
180.0,946587.4730103977,43127.18605642999,0.4782663501727683,23.303279008793925
181.0,1031114.1951839756,48699.59344706167,0.4762556818847942,23.0132887404348
182.0,1127835.057031195,55535.425176270124,0.47430771588902987,22.736460537962774
183.0,1239737.905605358,63768.98970213211,0.4724223585209597,22.47230779621724
184.0,1370043.5101118085,73511.38370837767,0.47059949754482583,22.220373339531996
185.0,1522127.3664859736,84848.81691910014,0.46883900408779305,21.980227345708908
186.0,1699441.5538140472,97841.92608291506,0.4671407341158746,21.751465463911998
187.0,1905437.1447394988,112525.95020223029,0.4655045296391041,21.533707121180033
188.0,2143492.612354235,128911.60129959098,0.4639302196239126,21.32659397070652
189.0,2416847.069612617,146986.4884855376,0.46241762073584086,21.12978849204517
190.0,2728544.326403865,166716.940739684,0.4609665378718116,20.94297269180708
191.0,3081383.1748210415,188050.1758909842,0.45957676466077824,20.765846888350744
192.0,3477874.956772136,210916.54146229516,0.4582480837599179,20.59812870460005
193.0,3920217.4873621752,235231.99462157543,0.4569802671642129,20.439551943604517
194.0,4410270.376951933,260900.63507608516,0.45577307633804504,20.289865774123623
195.0,4949541.523385925,287812.6314591121,0.45462626241693155,20.14883381986351
196.0,5539148.986094695,315948.0579820773,0.4535395662469375,20.016233374321274
197.0,6180226.314356036,345646.7795070005,0.4525127185175333,19.891854586966065
198.0,6874955.376318221,377603.3427891439,0.4515454397046678,19.775499903636405
199.0,7627461.893551845,412810.8394142512,0.4506374401402965,19.666983349452842
200.0,8444534.432551032,452513.34498264245,0.4497884199644719,19.566129955253466
201.0,9336180.31334174,498151.3367662419,0.448998069088246,19.47277520021764
202.0,10316006.560215615,551302.9576057501,0.44826606713693584,19.386764494007593
203.0,11401425.094777623,613624.5261188891,0.44759208337896494,19.307952692704188
204.0,12613690.16739047,686793.5590511119,0.44697577664213795,19.236203645826905
205.0,13977783.769997647,772456.8026490178,0.4464167952178495,19.171389772101513
206.0,15522172.523366293,872184.8912931529,0.4459147767568888,19.113391661703073
207.0,17278460.51771152,987434.609288214,0.44546934815865624,19.062097702167858
208.0,19280961.91138545,1119519.0422342406,0.4450801254504934,19.01740372707171
209.0,21566220.434857182,1269585.4457164838,0.444746713661629,18.979212685473048
210.0,24172499.02520438,1438600.354649375,0.444468706693639,18.947434330161744
211.0,27139261.324046608,1627341.1663558595,0.44424568718571406,18.92198492569867
212.0,30506644.483080503,1836393.7858375732,0.4440772263696516,18.90278696604475
213.0,34314977.00234878,2066154.7276353186,0.44396288393559974,18.88976891652479
214.0,38604303.8937813,2316835.452099799,0.4439022078629046,18.882864969747175
215.0,43413977.51886733,2588516.4328833856,0.4438947343620344,18.88201479384224
216.0,48782379.02598467,2881491.5577192795,0.443939987580937,18.887163329214243
217.0,54747874.77859432,3196688.562538727,0.4440374796363931,18.89826055235846
218.0,61350698.41028028,3535980.655203179,0.4441867103082452,18.91526130203362
219.0,68635601.42811851,3902385.6554135294,0.4443871670410251,18.938125048656367
220.0,76655029.09098238,4300194.297349631,0.44463832476318216,18.966815745926056
221.0,85472154.85785693,4735008.644996804,0.4449396456715364,19.00130162645213
222.0,95164399.8864635,5213706.397922413,0.44529057931468846,19.041555043942303
223.0,105826130.53465742,5744357.918549191,0.445690562297447,19.087552303134864
224.0,117571439.34299406,6336090.511689255,0.44613901823418023,19.139273511718514
225.0,130536212.2194964,6998917.549868976,0.4466353576946761,19.19670241370706
226.0,144879620.9415177,7743555.632646149,0.4471789780355962,19.259826251967496
227.0,160785350.60906073,8581221.851452556,0.4477692634062913,19.328635624677304
228.0,178461802.45262644,9523436.747052511,0.4484055846664766,19.403124337544096
229.0,198142017.28161502,10581831.545944162,0.44908729929229874,19.483289280876892
230.0,220083160.0303127,11767962.846126929,0.44981375142803776,19.569130288600817
231.0,244565026.68412572,13093150.297299558,0.4505842717997407,19.660650009372123
232.0,271888781.94459194,14568323.022872616,0.45139817773317675,19.757853787873316
233.0,302374883.62993664,16203892.012041688,0.45225477320925134,19.860749530085453
234.0,336360560.9555153,18009640.649016496,0.45315334882455777,19.969347588275994
235.0,374197785.5255143,19994634.802553777,0.4540931819130652,20.083660640871507
236.0,416249883.0294197,22167294.602824833,0.45507353658097344,20.203703566534656
237.0,462889577.6559834,24535707.452407267,0.4560936637744371,20.329493339380367
238.0,514497335.3850779,27108122.257481184,0.45715280146536696,20.46104889853398
239.0,571461214.9818413,29893535.95024113,0.4582501746741355,20.598391048654644
240.0,634177815.3785973,32902298.40466066,0.4593849956843105,20.74154233314409
241.0,703056120.0860884,36146681.16591292,0.46055646423023144,20.89052692995559
242.0,778519947.4869467,39641429.39893975,0.4617637675615562,21.045370539886918
243.0,861013649.0856509,43404167.85975566,0.46300608075112004,21.206100270700592
244.0,951008137.2075446,47455721.68917974,0.4642825668915885,21.372744531396876
245.0,1049006427.6802663,51820350.58433972,0.4655923772478531,21.54533292781791
246.0,1155549005.8482225,56525832.126013584,0.46693465153877706,21.723896149972546
247.0,1271219774.3771846,61603430.05257457,0.4683085181980701,21.90846586734065
248.0,1396651492.5159721,67087778.54374304,0.4697130945647085,22.099074629697768
249.0,1532528055.938209,73016680.1180124,0.47114748712148435,22.29575576331605
