Time,J,A,S,tau
0.0,100.0,100.0,0.6699326596010694,38.57105104073841
1.0,98.6180235248312,90.53319231936982,0.6687425946976359,39.5562580515893
2.0,97.31385913561927,82.0052204327461,0.6675703192134398,40.54244759382822
3.0,96.07913895649855,74.32411352750822,0.6664153564674394,41.52940544960147
4.0,94.90808283552893,67.40440854994186,0.6652771025281621,42.51706718863588
5.0,93.79541691177866,61.16931478868397,0.6641549481034268,43.50537395552664
6.0,92.7363235009326,55.54996316094723,0.6630482808317425,44.49427192685399
7.0,91.72639790400021,50.48449807653867,0.6619564872407151,45.48371184169217
8.0,90.7616061343852,45.917380231088075,0.6608789543998076,46.47364854035358
9.0,89.83825087157078,41.79876170086015,0.6598150713197961,47.464040592166086
10.0,88.95293659663076,38.083832124655316,0.6587642300902367,48.45484991256342
11.0,88.10254178918674,34.732389251717116,0.6577258268417076,49.44604145726425
12.0,87.28419102703215,31.708270534803553,0.6566992624902848,50.437582914004295
13.0,86.4952315047918,28.979026242624226,0.6556839433434124,51.42944444261157
14.0,85.73321111221561,26.515466975093652,0.6546792815583392,52.4215984313326
15.0,84.99585831274182,24.29138123823679,0.6536846954564924,53.414019272688655
16.0,84.2810648747164,22.283197882199868,0.6526996097724755,54.40668317024019
17.0,83.5868687749158,20.46973987638039,0.6517234557438923,55.39956794693677
18.0,82.91144026572874,18.83196829659545,0.6507556711983035,56.3926528879987
19.0,82.25306749139139,17.35277253426829,0.6497957004783369,57.38591857858359
20.0,81.61014482924153,16.016756772320495,0.6488429943916648,58.379346771159355
21.0,80.98116115057657,14.810096888103105,0.6478970100407231,59.372920251885404
22.0,80.36468958739904,13.720345146915951,0.6469572106464145,60.36662272319328
23.0,79.75937798393316,12.736330287050093,0.6460230653244555,61.36043869379368
24.0,79.16393978883805,11.847989874421724,0.6450940488086797,62.35435337325289
25.0,78.57714617019761,11.046295657180732,0.6441696411999457,63.34835257961691
26.0,77.99781784744418,10.323129075831117,0.6432493276168381,64.34242264397695
27.0,77.42481820278893,9.671190109502412,0.6423325979112366,65.33655032826988
28.0,76.85704625149702,9.08393171603383,0.6414189463160721,66.33072274153298
29.0,76.29343004294334,8.555466936484601,0.6405078710900691,67.32492726054102
30.0,75.73292057721221,8.080513568791005,0.6395988741971724,68.31915145501054
31.0,75.17448561587506,7.654343355267526,0.6386914609369978,69.31338301176989
32.0,74.61710379432324,7.272715979971133,0.6377851395942452,70.3076096614849
33.0,74.05975886744041,6.931832228013463,0.6368794211023252,71.30181910590913
34.0,73.5014339184399,6.628300954929645,0.6359738187115377,72.29599894371498
35.0,72.94110560067594,6.3591007438272324,0.6350678476541448,73.29013659649767
36.0,72.37773834121735,6.121540398788075,0.634161024836307,74.28421923290257
37.0,71.8102784603043,5.913228695262528,0.6332528685444475,75.27823369089741
38.0,71.23764799758817,5.732057162091253,0.6323428981746245,76.27216639489357
39.0,70.65873853446276,5.576164837491475,0.6314306339809911,77.26600327245934
40.0,70.07240449074168,5.443930276884016,0.6305155968554327,78.25972966248167
41.0,69.47745642861862,5.333939330103849,0.6295973081392031,79.253330222963
42.0,68.87265347950014,5.244985934464042,0.628675289468967,80.24678882532385
43.0,68.25669607833986,5.1760393927046575,0.6277490626687463,81.24008845262942
44.0,67.62821695409514,5.126251076812687,0.6268181496825983,82.233211071659
45.0,66.98577209822827,5.094932890368889,0.625882072567639,83.22613750402664
46.0,66.32783348608004,5.081534784392389,0.6249403535432071,84.21884732234139
47.0,65.65277894755008,5.085684630113674,0.623992515066893,85.2113187047301
48.0,64.95886564126666,5.107142540741565,0.6230380801614126,86.20352804509594
49.0,64.24425222120782,5.145844671077162,0.6220765724029341,87.1954502838648
50.0,63.50694232605242,5.2018259106854305,0.6211075166827839,88.18705807231913
51.0,62.744811203491466,5.275223724556105,0.6201304392768417,89.178322165511
52.0,61.95555445626969,5.366423092790326,0.619144868751478,90.1692106701951
53.0,61.136694699654434,5.475848793250272,0.6181503364992286,91.15968913276112
54.0,60.28555389392312,5.604095092081977,0.6171463776079681,92.14972013203312
55.0,59.39923153764365,5.751929520137669,0.6161325318927559,93.13926295234603
56.0,58.474575256734795,5.920277674353385,0.6151083453013831,94.12827314003148
57.0,57.50816948754526,6.110209073652553,0.6140733709361528,95.11670232702073
58.0,56.49629600525913,6.322976394309791,0.6130271709454536,96.10449763602153
59.0,55.43490668375453,6.5600217692044165,0.6119693182793655,97.09160126303189
60.0,54.31958888942963,6.8229877068700695,0.6108993988220209,98.07794994701776
61.0,53.14552691847343,7.11373672789649,0.6098170138452363,99.06347437700732
62.0,51.90745778430484,7.434375120911372,0.6087217828813838,100.04809850998663
63.0,50.59963298988387,7.787238951960899,0.607613346528201,101.03173897181549
64.0,49.215761571655484,8.174951719422499,0.6064913702155568,102.01430417501258
65.0,47.748956871744284,8.600438062586852,0.6053555480624706,102.99569348300086
66.0,46.191675658534066,9.066950811745562,0.6042056072926668,103.97579625199228
67.0,44.535651492981785,9.578101335616592,0.6030413131563872,104.95449077709007
68.0,42.77182176375101,10.137892927483167,0.6018624744055494,105.93164313231915
69.0,40.89024792450766,10.750757384376145,0.6006689493648089,106.907105895767
70.0,38.880028472930746,11.421594916044924,0.5994606526408339,107.88071675086228
71.0,36.72920423076975,12.155817492502583,0.5982375625107058,108.85229695484551
72.0,34.4246529291497,12.95941344385395,0.59699972918426,109.82164962689558
73.0,31.951986919569922,13.83894387184062,0.5957472831138348,110.78855806105712
74.0,29.295422361313637,14.801648922488834,0.5944804452899896,111.75278358204041
75.0,26.43765446591454,15.855492513047437,0.5931995374217925,112.71406346584507
76.0,23.35971781148509,17.009230834671904,0.5919049932977379,113.67210860021524
77.0,20.040850790486772,18.27244766058957,0.5905973700554663,114.62660117928877
78.0,16.458327676807933,19.65562330210208,0.5892773618706638,115.57719184761585
79.0,12.587302822770843,21.170235549353933,0.5879458129621419,116.52349700411291
80.0,8.40064491874463,22.828779985533313,0.5866037314858527,117.46509589156997
81.0,3.8687639326910523,24.64486182531709,0.5852523040370767,118.40152752617712
82.0,0.0,26.633245336048827,0.5838929102223965,119.33228757647406
83.0,0.0,28.809904343299316,0.5825271372319142,120.25682519118493
84.0,0.0,31.192074902261332,0.5811567940442981,121.1745398408794
85.0,0.0,33.79828583311365,0.5797839247953348,122.08477825753836
86.0,0.0,36.648373956097316,0.5784108209145649,122.98683153736945
87.0,0.0,39.76347521768486,0.5770400312285292,123.87993256061293
88.0,0.0,43.16599291876425,0.5756743696565637,124.7632537830638
89.0,0.0,46.87952488700581,0.574316919215157,125.6359056590983
90.0,0.0,50.928780121902,0.5729710320461698,126.49693572721968
91.0,0.0,55.339407268628484,0.5716403244248643,127.34532854977988
92.0,0.0,60.13779122708905,0.5703286643605702,128.18000704797083
93.0,0.0,65.35083937507652,0.5690401537796222,128.99983468876755
94.0,0.0,71.0055896114748,0.5677791003396678,129.80361972022467
95.0,0.0,77.12889250260916,0.5665499822520927,130.5901205099765
96.0,0.0,83.746974739734,0.5653574011814412,131.35805333318402
97.0,0.0,98.54403774493474,0.56420602640555,132.10610161459988
98.0,0.0,115.49751901523257,0.563100527792362,132.83292747749752
99.0,0.0,133.6547403006734,0.5620454990050259,133.5371850446815
100.0,0.0,153.07710902792118,0.5610453713986191,134.21753564886578
101.0,57.72494173351083,173.82284827494823,0.5601043201686372,134.8726645680356
102.0,130.5691268843426,195.94589132876223,0.5592261647129836,135.50129895155496
103.0,218.4056743322799,219.49475306163725,0.5584142657903473,136.1022264552921
104.0,323.2225401219274,244.51141309589093,0.557671422503069,136.67431401297605
105.0,447.19472657214686,271.0302516609952,0.5569997726642618,137.21652607012396
106.0,592.68919085793,299.07707545989115,0.5564006998418958,137.72794163462117
107.0,762.2675812919446,328.6682759166814,0.555874750918086,138.20776941574326
108.0,958.6864101055564,359.8101582314839,0.555421567595792,138.6553603878916
109.0,1184.8947292234384,392.49845953105046,0.5550398338460354,139.07021736713574
110.0,1444.028592744213,426.71809323144686,0.5547272424903402,139.45200101770726
111.0,1739.4025915100895,462.44311894055795,0.5544804814990316,139.8005321600983
112.0,2074.4981776582913,499.63694075318443,0.5542952403531924,140.11579032173313
113.0,2452.948762247334,538.2527251610337,0.5541662361224123,140.39790862249745
114.0,2878.521701533882,578.2340118032093,0.5540872571824437,140.6471653944503
115.0,3355.097222199458,619.5155005909843,0.5540512237688101,140.8639727732211
116.0,3886.6444067946345,662.0239570766618,0.5540502597556644,141.0488632561471
117.0,4477.194827582146,705.6792166887114,0.5540757755512099,141.2024743875879
118.0,5130.813260918042,750.3952662056882,0.5541185594024514,141.325532193155
119.0,5851.56665520837,796.0812888963873,0.5541688669661611,141.4188349246327
120.0,6643.491233874845,842.6427611048125,0.5542165190523671,141.483235987532
121.0,7510.557759677044,889.9824388955545,0.5542509905499942,141.5196284248278
122.0,8456.635428608675,938.001321727901,0.5542615001608195,141.52892986227945
123.0,9485.455864917969,986.5995092951226,0.5542370939035781,141.51206899131023
124.0,10600.57507080484,1035.676964734107,0.5541667211645144,141.46997363765257
125.0,11805.335967810104,1085.1341705982531,0.5540393051204225,141.40356039291026
126.0,13102.830150451302,1134.8727032694294,0.5538438058949019,141.31372588276295
127.0,14495.860706354959,1184.795673239066,0.5535692769288592,141.20133973902617
128.0,15986.906130253812,1234.8080983100726,0.5532049141683784,141.0672391495516
129.0,17578.083913547183,1284.8171896258516,0.5527401003074229,140.91222464206115
130.0,19271.11215488593,1334.7325721786835,0.5521644459682095,140.73705686491053
131.0,21067.273821939078,1384.4664087246574,0.5514678258457596,140.54245484130303
132.0,22967.417634548307,1433.9333148496705,0.5506403875993952,140.32909787767056
133.0,24971.859473073306,1483.0509138362536,0.5496726287815042,140.0976188111183
134.0,27080.428670153262,1531.7391080574914,0.5485553674800988,139.84861269281848
135.0,29292.425002786065,1579.9205755484359,0.5472797856815537,139.58263363762174
136.0,31606.522967364006,1627.5206972276546,0.5458374991422134,139.30019364278962
137.0,34020.92101791253,1674.4670238547685,0.5442204641692081,139.00177353442496
138.0,36533.10557461575,1720.69005139222,0.5424211619822826,138.68781211667354
139.0,39162.47106678142,1724.3277455940247,0.6016553263250498,70.91531391606394
140.0,41781.46829527909,1683.1216000578697,0.6284062495254161,50.62898307908241
141.0,44308.185376211026,1652.072350788359,0.6356699268249395,44.471613110179824
142.0,46763.00419451407,1789.4031456653,0.637882219274862,40.95114822185217
143.0,49494.520256992546,2006.5195416510467,0.6376024493600451,38.543371895305256
144.0,52669.23023389003,2294.661997310833,0.6357962797267775,36.74398405622783
145.0,56439.663593153564,2650.029237149181,0.6329427787245473,35.32505663457574
146.0,60952.881932774035,3070.9788777166177,0.6293187414052472,34.16458084671763
147.0,66353.73434492218,3556.9183294644904,0.6251008429882774,33.18981300145496
148.0,72786.17615640354,4107.761464222034,0.6204101903967253,32.354002587532484
149.0,80393.3879748524,4723.631401000741,0.6153344046862756,31.625409357600997
150.0,89317.25582328477,5404.6770066183735,0.609939665846426,30.981556063388098
151.0,99697.58063011391,6150.946969261805,0.604277739027535,30.405990532024155
152.0,111670.78636459299,6962.3049896071525,0.5983903151873374,29.886348467093892
153.0,125368.71278449861,7838.361781500766,0.5923118094831497,29.41313475572677
154.0,140917.11051274653,8778.42924410965,0.5860712529875446,28.978921662439678
155.0,158433.8971988037,9781.484693872788,0.579693568694124,28.577817875366634
156.0,178027.80210513817,10846.145121183576,0.5732005116078587,28.205084070109198
157.0,199796.61276934028,11970.648724889044,0.5666113146986422,27.856872537835734
158.0,223825.5188182325,13152.849771867448,0.5599431973258326,27.530026501405217
159.0,250185.7703943254,14390.21510218024,0.553211730294892,27.221935765383794
160.0,278933.18496293464,15679.829667083815,0.546431116719374,26.93042748236771
161.0,310106.78877262113,17018.407479200727,0.5396144088717174,26.65368210179221
162.0,343728.03291107016,18402.30987477066,0.5327736836479394,26.39016562579887
163.0,379799.8025856169,19827.567169618218,0.5259201728205811,26.138579337940072
164.0,418305.70731621585,21289.905781394857,0.5190643697453414,25.897818770093604
165.0,459221.466974112,22756.307472883094,0.5122161188380696,25.666940385990554
166.0,502373.45236047386,24130.306734821577,0.5053846742814075,25.44513485928825
167.0,547346.9585977464,25460.865278481935,0.4985787654298705,25.23170583556558
168.0,593966.586312737,26979.346174289487,0.49180663810592967,25.02605167224803
169.0,642642.8973428912,28820.52163421081,0.485076092445502,24.827650922120725
170.0,694099.9447085666,31091.0160120473,0.478394513389607,24.636050042714597
171.0,749305.1812712181,33886.216435413065,0.4717688957927144,24.450853279692865
172.0,809429.7105515202,37293.49707725384,0.46520586569537425,24.271714125412974
173.0,875815.8417006842,41393.37265300929,0.45871169799706907,24.098328189254794
174.0,949947.228881161,46259.74419221722,0.4522923315745032,23.930427174426104
175.0,1033419.1539491864,51959.696056970235,0.44595338219544994,23.767773810030377
176.0,1127909.6065293017,58553.07654820997,0.4397001540071589,23.61015751222182
177.0,1235149.3765300713,66091.98180373044,0.4335376495717464,23.45739073706991
178.0,1356892.2342887453,74620.2277569552,0.4274705789886979,23.309305863041953
179.0,1494884.1980675769,84172.8552802607,0.42150336815801454,23.165752551302504
180.0,1650836.232579542,94775.72767807195,0.41564016683790833,23.026595439165746
181.0,1826392.844908381,106445.2416581378,0.40988485679599707,22.89171221191409
182.0,2023108.6852361686,119188.10267628828,0.4042410577895813,22.760991954781673
183.0,2242420.107126115,133001.34441955783,0.39871213686335305,22.634333681802243
184.0,2485626.122393087,147872.37621476894,0.3933012142200489,22.511645131355543
185.0,2753865.9883927177,163779.21532516085,0.3880111707591084,22.39284171606562
186.0,3048103.0295456597,180690.89093786658,0.38284465657219363,22.277845582029848
187.0,3369109.7468866073,198565.4808863993,0.37780409760621153,22.1665848617916
188.0,3717461.562470471,217275.59702684963,0.37289170538828675,22.05899291035305
189.0,4093259.477337522,236626.77334450744,0.36810948164589186,21.955007808015235
190.0,4496065.243363622,256638.07725829433,0.3634592293449817,21.854571810603762
191.0,4925595.357262464,277578.01704863104,0.35894256066108027,21.757630899491556
192.0,5382300.050874558,299847.0842872035,0.3545609043567975,21.66413441679834
193.0,5867642.36463374,323940.7304362754,0.3503155155272234,21.574034716533667
194.0,6384271.7816254515,350425.3983642372,0.3462074839430383,21.48728688336025
195.0,6936133.158195433,379918.768901773,0.34223774260809875,21.40384847843451
196.0,7528503.243119181,413072.75872680766,0.338407077198977,21.3236793130531
197.0,8167991.552665582,450558.34146516456,0.33471613420799173,21.246741265767177
198.0,8862501.85109741,493051.4455122954,0.33116543028843304,21.172998105008745
199.0,9621145.271467438,541220.3450746699,0.3277553608187312,21.102415346205444
200.0,10454155.357340999,595713.9198771332,0.32448620837101483,21.0349601231585
201.0,11372754.7927939,657151.4900766776,0.321358151658696,20.970601069272693
202.0,12389018.683266029,726113.6042799484,0.3183712733946598,20.909308224136055
203.0,13515743.460445827,803134.3850505288,0.3155255688548215,20.85105293954195
204.0,14766265.53611954,888695.2625080937,0.3128209535887961,20.79580780418167
205.0,16154343.137323761,983219.8414727328,0.31025727116312163,20.74354657453337
206.0,17693972.312867746,1087070.6039627152,0.30783430060255657,20.69424411123814
207.0,19399286.352915194,1200546.3555710698,0.3055517634986518,20.647876327100022
208.0,21284367.669596538,1323878.9099451464,0.30340933063306014,20.604420136616778
209.0,23363185.541529868,1457174.5390550229,0.30140662881891617,20.563853410175557
210.0,25649238.28038271,1600362.3755275744,0.29954324652134967,20.526154939893566
211.0,28155208.67341504,1753382.8590632472,0.29781873979689766,20.491304399969074
212.0,30893202.748057727,1916415.2977882312,0.2962326377465848,20.45928231383999
213.0,33875462.08971807,2089985.888280974,0.2947844471709896,20.430070027554546
214.0,37115327.78296947,2275024.192599426,0.29347365736411396,20.403649682074363
215.0,40628232.330623426,2472893.3951316727,0.29229974399390846,20.380004188839084
216.0,44432785.49171063,2685399.408123542,0.2912621732240919,20.359117208768566
217.0,48551698.09628844,2914786.17863375,0.2903604045683424,20.340973128663315
218.0,53012757.540190674,3163719.3303772137,0.28959389404950914,20.32555704311958
219.0,57849703.94022518,3435263.920412778,0.2889620966141335,20.312854739588097
220.0,63102925.35794852,3732853.5110491402,0.28846446799919867,20.30285267913669
221.0,68820126.88645399,4060254.928836078,0.2881004665068138,20.29553798026136
222.0,75056968.25968468,4421531.682099563,0.2878695544082507,20.290898406446523
223.0,81877463.4203129,4821007.213709842,0.2877711985119377,20.288922353593218
224.0,89354313.32748485,5263225.464078794,0.2878048706113112,20.2895988347784
225.0,97569234.83270192,5752913.2988343695,0.2879700476574112,20.292917468571513
226.0,106613271.5380023,6294945.004562191,0.2882662115580188,20.298868470510463
227.0,116586765.95846918,6894309.854701384,0.2886928481559111,20.307442641508786
228.0,127599481.35863338,7556080.68455005,0.2892494463315638,20.31863135670656
229.0,139770744.5797885,8285379.152851841,0.2899354967670012,20.33242655746823
230.0,153229414.85225913,9087296.713814104,0.2907504901400136,20.348820745275855
231.0,168113494.63660735,9966816.573999133,0.2916939149249404,20.36780697187911
232.0,184569853.32024583,10928878.610776415,0.29276525523745955,20.389378832163775
233.0,202754290.12822267,11978575.617049962,0.29396398836219295,20.413530460070422
234.0,222831781.37576357,13121410.951571703,0.2952895815720975,20.440256524067628
235.0,244977589.71974483,14363573.849982196,0.29674148909709436,20.46955222102598
236.0,269379147.8502144,15712218.759824943,0.29831914889154554,20.501413273413235
237.0,296238669.36585474,17175747.338133834,0.3000219790414978,20.5358359296789
238.0,325775910.8225476,18764082.40348532,0.30184937375334736,20.57281696235766
239.0,358231891.12725675,20488914.859328628,0.3038006996251894,20.612353667546092
240.0,393873245.4967762,22363938.756236594,0.3058752916291108,20.654443867968293
241.0,432996845.1709642,24405081.624721207,0.30807244863410266,20.699085918780327
242.0,475934456.0599557,26630700.277324148,0.3103914290979782,20.746278711119754
243.0,523058162.41153026,29061754.89467085,0.31283144680676717,20.79602167942521
244.0,574786407.2279643,31721974.676109694,0.3153916663107804,20.848314813240908
245.0,631589287.1155539,34638018.273613445,0.3180711980944456,20.903158670521528
246.0,693994303.5091745,37839590.59720844,0.3208690942573869,20.960554390978523
247.0,762592581.6418267,41359553.17670488,0.32378434399727557,21.020503714784667
248.0,838045433.5538311,45234035.1715419,0.3268158687594787,21.083009007368606
249.0,921089237.5722117,49502528.614069074,0.3299625176859157,21.148073284626168
250.0,1012541425.5260147,54207948.59402748,0.33322306340215574,21.215700241787264
251.0,1113306862.4244807,59396681.48834369,0.3365961975354809,21.28589428965838
252.0,1224383012.3930054,65118605.10360733,0.3400805260138598,21.35866059867864
253.0,1346863805.2124128,71427055.5772384,0.343674565170557,21.43400514340226
