Time,J,A,S,tau
0.0,100.0,100.0,0.7552382865523293,26.352308690091764
1.0,3264.6029774558237,792.0362435677486,0.7532343642209471,26.292605639925817
2.0,12220.305138064117,1456.9025926821212,0.7511648288799829,26.231044098011942
3.0,26639.790795144017,2095.4480684356886,0.7490303211078764,26.16764046267313
4.0,46206.290642167085,2708.5004526366292,0.7468315184379394,26.102411319255136
5.0,70613.39923241631,3296.8634514689074,0.7445691501828906,26.03537387518515
6.0,99564.88383408096,3861.3174067556192,0.7422439970876319,25.966545956357074
7.0,132774.51698282178,4402.619930380973,0.7398568909403063,25.895946003840645
8.0,169965.8862988069,4921.506584941276,0.7374087140274599,25.823593069491427
9.0,210872.2234816596,5418.691503198181,0.7349003985621759,25.74950681205095
10.0,255236.2110552917,5894.868058358468,0.7323329259936479,25.67370749257982
11.0,302809.8174440869,6350.709420508975,0.7297073261405678,25.596215968607574
12.0,353354.15208356996,6786.869090608921,0.7270246765415657,25.517053691734535
13.0,406639.2746946881,7203.981469597584,0.7242861011911661,25.43624269845986
14.0,462443.9179326591,7602.662785951395,0.721492769773255,25.353805607588335
15.0,520555.52422539535,7983.5109728155985,0.7186458964154869,25.26976561332157
16.0,580769.9525462472,8347.106568754269,0.7157467384896375,25.184146478825667
17.0,642891.2265802539,8694.013465143538,0.7127965952387488,25.096972528335698
18.0,706731.5812935387,9024.778766149106,0.7097968065977656,25.00826864334134
19.0,772111.000301673,9339.934146890804,0.7067487515591202,24.918060252104205
20.0,838857.425305312,9639.995175274364,0.7036538468510696,24.826373325921026
21.0,906806.1602655345,9925.4630604838,0.7005135451317164,24.733234367063858
22.0,975800.1507497729,10196.823754162648,0.6973293336539873,24.638670406682518
23.0,1045689.3920040111,10454.549635549316,0.6941027321978827,24.542708989985652
24.0,1116331.070430665,10699.099067068566,0.6908352917451521,24.445378175754428
25.0,1188071.0737291619,11691.531401727974,0.6886409027729675,24.38306139912154
26.0,1278050.2160803627,16586.57247006911,0.6872243437325076,24.34620760844308
27.0,1419420.090419384,25398.609703747792,0.6858262991139424,24.310015729214207
28.0,1642384.8636729317,37765.641404421316,0.6844474091548073,24.274493259820964
29.0,1973596.724393576,53347.61545417257,0.683088307157704,24.23964747599965
30.0,2436403.3127015303,71825.40896338334,0.6817496189990699,24.2054854325993
31.0,3051082.54724974,92899.8474618823,0.6804319626438569,24.172013965371313
32.0,3835066.4956955183,116290.75728558931,0.6791359476672505,24.139239692805383
33.0,4803155.5211006105,141736.04365741444,0.6778621747882344,24.107169018097316
34.0,5967717.482398775,168990.8263036957,0.676611235401169,24.075808130907554
35.0,7338881.75320253,197826.57847232415,0.6753837111277106,24.045163009428475
36.0,8924720.921215687,228030.30618006006,0.6741801733790063,24.015239422455554
37.0,10731416.064198546,259403.80231758332,0.6730011829005136,23.98604293094808
38.0,12763432.004935345,291762.81581565837,0.6718472893901941,23.95757889085111
39.0,15023654.549200969,324936.4306766583,0.6707190310143187,23.92985245381334
40.0,17513549.596767697,358766.2574075434,0.6696169340991471,23.902868570844053
41.0,20233290.853218615,393105.83193710103,0.668541512681912,23.876631993309097
42.0,23181888.528049033,427819.96982965537,0.6674932681307983,23.851147274996773
43.0,26357309.999328256,462784.1372944286,0.6664726888010096,23.826418774454794
44.0,29756592.23508512,497883.8716239605,0.665480249658353,23.80245065674665
45.0,33375949.39048212,533014.1897602363,0.6645164119814896,23.77924689601445
46.0,37210865.52303805,568079.0881203923,0.663581622988589,23.756811276921088
47.0,41256192.06625664,602990.9676527979,0.6626763156177222,23.735147397786708
48.0,45506252.625117436,637670.2105447233,0.6618009078557842,23.7142586679804
49.0,49957128.48755285,674918.9345296546,0.6609558031384731,23.69414831853006
50.0,54673791.72982604,733491.2418528605,0.6601413895153235,23.674819396955037
51.0,59892520.56589094,835180.555503425,0.659358039570475,23.65627477147147
52.0,66010879.87848791,998503.4365463979,0.6586061101690409,23.638517132788703
53.0,73558971.43504323,1238999.7196443959,0.657885942226659,23.62154899598672
54.0,83173757.94033843,1569520.8347249168,0.6571978604916224,23.6053727023468
55.0,95576176.58826748,2000497.2057200756,0.656542173342913,23.589990421168388
56.0,111550951.71076526,2540185.164272453,0.6559191726037832,23.5754041515655
57.0,131928668.05827713,3194894.9667260936,0.655329133364134,23.5616157241719
58.0,157570157.03839937,3969201.179393157,0.6547723138242235,23.548626802881817
59.0,189352719.22063705,4866136.419068044,0.6542489551458214,23.536438886484433
60.0,228158325.3229907,5887369.124715245,0.6537592813202622,23.5250533102879
61.0,274863361.1346455,7033367.53667343,0.6533034990589475,23.51447124777738
62.0,330329913.1296899,8303548.463940237,0.6528817976757962,23.504693712027564
63.0,395398345.0009994,9696415.103104651,0.6524943490093111,23.495721557308503
64.0,470881204.919452,11209681.488911029,0.6521413073430274,23.487555480504458
65.0,557558139.8906411,12840386.335532922,0.6518228093398223,23.480196022490542
66.0,656171912.8730941,14584996.372691305,0.6515389739984776,23.47364356953989
67.0,767425110.2324036,16439501.057538977,0.6512899026369247,23.46789835479073
68.0,891977675.8616968,18399495.784919307,0.651075678804251,23.46296045894823
69.0,1030445355.4571099,20460260.95179171,0.6508963683835094,23.45882981244752
70.0,1183398855.8534575,22616826.906126305,0.6507520194924036,23.45550619574599
71.0,1351362275.1136847,24864040.870062344,0.6506426625191182,23.45298924059078
72.0,1534813543.6910124,27196720.55167042,0.6505683101879067,23.451278431387053
73.0,1734215812.4006646,29632208.902750384,0.6505289576289418,23.450373106443315
74.0,1950426707.2697563,32283849.264108952,0.6505245823895186,23.450272458576624
75.0,2185554118.1017694,35371995.06200891,0.6505551445056216,23.450975536049587
76.0,2443738572.294291,39202318.84483561,0.6506205865839453,23.452481243460866
77.0,2731752558.274698,44146229.90519325,0.6507208339046916,23.454788342652954
78.0,3059442046.2214513,50623947.69015818,0.6508557945219146,23.457895453449773
79.0,3440033920.700266,59089870.60275727,0.6510253593830168,23.46180105440667
80.0,3890329120.1286774,70020032.92951308,0.6512294024582385,23.46650348349746
81.0,4430799894.689693,83901418.25222333,0.6514677808823879,23.47200093875916
82.0,5085606330.337299,101222931.25676833,0.6517403351054983,23.47829147886799
83.0,5882547017.151562,122467836.28062294,0.6520468890588081,23.4853730237027
84.0,6852956717.405376,148107497.73877922,0.6523872503302469,23.49324335484853
85.0,8031558815.030098,178596277.49541602,0.6527612103481101,23.501900116031035
86.0,9456287030.12734,214367430.7801069,0.6531685445772868,23.511340813520004
87.0,11168080085.4163,255829905.46169618,0.6536090127352857,23.521562816570167
88.0,13210654858.04746,303365906.2585168,0.6540823589950718,23.53256335760911
89.0,15630273818.276829,357329139.6339727,0.6545883122323835,23.54433953268785
90.0,18475498676.376194,418043624.00315124,0.6551265862458407,23.556888301554125
91.0,21796942920.413174,485803031.9805526,0.65569688001878,23.57020648797268
92.0,25647022610.534603,560870442.3551306,0.6562988779702882,23.584290779818204
93.0,30079721818.08346,643478433.226569,0.6569322502310421,23.599137729275302
94.0,35150341791.845924,733829534.64978,0.6575966529098548,23.614743752818455
95.0,40915280545.03591,832096854.6188211,0.6582917283854522,23.631105131312086
96.0,47431810907.637245,938426130.1700277,0.6590171056041932,23.648218010049096
97.0,54758015174.68293,1053029980.6910354,0.6597724003893665,23.666078398789885
98.0,62954438943.212975,1176597674.1394353,0.6605572157314128,23.684682171470584
99.0,72089725479.24739,1310800203.8515236,0.6613711421285436,23.704025066327347
100.0,82250022718.02377,1458680210.1560383,0.6622137579204567,23.724102685849246
101.0,93551208667.10236,1624935290.394318,0.663084629610255,23.74491049647312
102.0,106153090727.10948,1816106902.1205683,0.6639833122150199,23.76644382849026
103.0,120274740392.24872,2040693628.0456278,0.6649093496124997,23.788697875796355
104.0,136210516735.20544,2309198475.9168205,0.6658622749090026,23.811667695804662
105.0,154346279368.5097,2634128498.6730714,0.6668416107921087,23.835348209053265
106.0,175175135018.67493,3029949076.629229,0.6678468699094672,23.859734199049214
107.0,199312926658.81995,3513007092.8993,0.6688775552413455,23.884820311933836
108.0,227512579049.1653,4101427789.3650303,0.6699331604854032,23.91060105622012
109.0,260677841524.35364,4814992197.331183,0.6710131704429786,23.937070802464103
110.0,299875499106.97955,5675001665.168435,0.672117061411297,23.96422378293277
111.0,346346842366.98456,6704131328.574835,0.6732443015814294,23.992054091286192
112.0,401517392876.1,7926280410.088086,0.6743943514368965,24.020555682182646
113.0,467005865973.7779,9366417279.848671,0.6755666641612355,24.04972237097706
114.0,544631320463.39716,11050428075.42012,0.6767606860419815,24.079547833272088
115.0,636419599661.5881,13004963967.627144,0.677975856885862,24.11002560464288
116.0,744608047176.5978,15257296381.340237,0.6792116104264213,24.14114908012848
117.0,871649138044.4128,17835174886.285625,0.6804673747445181,24.172911513978896
118.0,1020213522013.7725,20766691573.731968,0.6817425726812543,24.2053060191844
119.0,1193191163165.4958,24080154610.4705,0.6830366222563036,24.238325567093465
120.0,1393691761618.2402,27803967408.546535,0.6843489370876031,24.27196298707076
121.0,1625044836942.876,31966568690.14222,0.685678926809709,24.306210966128372
122.0,1890799883578.295,36597161029.022644,0.687025997490649,24.34106204847968
123.0,2194740257130.637,41728502606.14844,0.688389552051354,24.37650863526311
124.0,2540927402994.4253,47401836075.359276,0.6897689906810291,24.412542984128013
125.0,2933793171092.816,53673377330.49223,0.691163711252348,24.44915720890132
126.0,3378291402726.338,60621841019.541176,0.6925731097345073,24.486343279292253
127.0,3880115261984.745,68356598565.24529,0.6939965806031528,24.524093020565857
128.0,4445984789001.559,77026117709.13048,0.6954335172474678,24.562398113248758
129.0,5084005593146.624,86826406924.37383,0.6968833123737695,24.601250092854375
130.0,5804097448349.104,98009258636.11766,0.6983453584052789,24.640640349618508
131.0,6618489351280.637,110890149279.58826,0.6998190478781708,24.680560128212115
132.0,7542283260426.336,125855471600.45572,0.7013037738299943,24.721000527727362
133.0,8594067822595.5205,143369405631.1254,0.7027989301867125,24.76195250130463
134.0,9796589000965.973,163979973983.7425,0.7043039121417978,24.803406856052423
135.0,11177466335626.492,188324421522.8785,0.7058181165294297,24.84535425293835
136.0,12769948686784.818,217133874206.2483,0.7073409421912615,24.887785206705885
137.0,14613703057150.955,251237265705.2563,0.7088717903362626,24.930690085826466
138.0,16755631352727.498,291564536478.2705,0.7104100648932177,24.9740591124869
139.0,19250706026503.28,339149147258.8026,0.7119551728562135,25.0178823625981
140.0,22162817559776.457,395129884821.08386,0.7135065246213608,25.062149765879436
141.0,25565631423770.023,460752011253.71985,0.7150635343150371,25.106851105979974
142.0,29543446411518.41,537367807277.8821,0.716625620113642,25.15197602063742
143.0,34192049363315.61,626436533546.0334,0.7181922045543483,25.197514001884517
144.0,39619564257511.85,729523842190.1112,0.719762714836564,25.243454396302074
145.0,45947283713869.06,848300725250.6342,0.7213365831147118,25.289786405307282
146.0,53310481003022.445,984541974498.8505,0.7229132467799189,25.33649908553043
147.0,61859204745249.66,1140124938793.1418,0.7244921487317434,25.38358134923821
148.0,71759066594769.22,1317033489241.4265,0.7260727376399104,25.431021964808107
149.0,83192098988715.64,1517376608150.8901,0.727654468195573,25.47880955726272
150.0,96357859769948.25,1743430287951.9128,0.7292368013514794,25.52693260886685
151.0,111474932587746.5,1997709213414.102,0.7308192045546316,25.575379459751737
152.0,128783230381501.14,2283071375069.6533,0.732401151962142,25.624138308686277
153.0,148547270794548.12,2602858500849.057,0.7339821246501089,25.673197213855232
154.0,171060800873853.3,2961072403310.284,0.7355616108099298,25.722544093726764
155.0,196653013933938.03,3362586965629.6084,0.7371391059342464,25.772166727986882
156.0,225696701214175.7,3813394301076.3525,0.7387141129918556,25.822052758538963
157.0,258618646150440.5,4320882690622.577,0.7402861425897322,25.872189690596446
158.0,295912408666118.75,4894143701666.671,0.7418547131245893,25.92256489385204
159.0,338153788984720.6,5544305740234.072,0.743419350923148,25.973165603722197
160.0,386019150407254.8,6284890588366.397,0.7449795903710741,26.02397892267412
161.0,440306758371310.6,7132189516524.469,0.7465349740306627,26.074991821636978
162.0,501961262321025.3,8105655604277.791,0.7480850527473345,26.126191141499394
163.0,572101414591162.1,9228308816999.3,0.7496293857450208,26.177563594695087
164.0,652051083046761.0,10527150551295.348,0.7511675407106376,26.22909576687765
165.0,743373592127921.1,12033584763355.28,0.7526990938682132,26.2807741186804
166.0,847909455282315.0,13783841201393.191,0.754223630041002,26.332584987584987
167.0,967817341471762.2,15819398955829.09,0.7557407427034044,26.384514589883086
168.0,1105618312969307.4,18187407322992.195,0.7572500340226153,26.43654902273214
169.0,1264243242685038.2,20941101350701.68,0.7587511148899635,26.488674266310955
170.0,1447083309479455.2,24140209593479.71,0.760243604942159,26.540876186076854
171.0,1658043453301316.8,27851351866823.145,0.76172713257265,26.59314053512617
172.0,1901598654207054.0,32148425017419.547,0.7632013349333032,26.64545295665986
173.0,2182852856625598.8,37112975144737.45,0.7646658579267696,26.6977989865548
174.0,2507600417518149.5,42834557945591.68,0.7661203561901065,26.750164056038475
175.0,2882390141144892.5,49411104858388.85,0.767564493068162,26.80253349448694
176.0,3314591688849533.5,56949357773276.37,0.7689979405787901,26.854892532330513
177.0,3812465544740928.5,65565469033663.625,0.7704203793697446,26.90722630407039
178.0,4385238275717804.5,75385893545190.34,0.7718314986673781,26.959519851410327
179.0,5043186032192992.0,86548715766456.77,0.7732309962174403,27.011758126504745
180.0,5797730487587058.0,99205565433932.48,0.7746185782182576,27.063925995324663
181.0,6661552711808346.0,113524277893820.97,0.7759939592465824,27.116008241142843
182.0,7648731650952885.0,129692453590546.45,0.7773568621765661,27.167989568138285
183.0,8774915429225805.0,147922066509317.56,0.7787070180923259,27.219854605119732
184.0,1.0057534831356632e+16,168455247405304.03,0.780044166192924,27.27158790938137
185.0,1.1516068170271958e+16,191571378147888.25,0.7813680536917766,27.323173970678468
186.0,1.317236936738453e+16,217595601994703.88,0.7826784357102997,27.374597215326474
187.0,1.5051070813478554e+16,246908846567953.5,0.7839750751660124,27.42584201042594
188.0,1.7180073386496564e+16,279959439391378.75,0.7852577426554073,27.47689266821407
189.0,1.959113647520604e+16,317276379993643.5,0.7865262163318921,27.527733450543558
190.0,2.232058117360541e+16,359484316052732.5,0.7877802817791035,27.578348573489333
191.0,2.5410119672626156e+16,407320262829575.2,0.7890197318800661,27.628722212083197
192.0,2.8907825332809852e+16,461652083459994.06,0.790244366682509,27.67883850517689
193.0,3.286925655083342e+16,523498702371103.75,0.7914539932595323,27.72868156043839
194.0,3.735874556321785e+16,594052079376661.9,0.7926484255673454,27.778235459474846
195.0,4.2450867110764776e+16,674700903445817.2,0.7938274842998997,27.827484263084145
196.0,4.823209881761276e+16,767055972830846.4,0.7949909967406533,27.876412016635502
197.0,5.4802685273649544e+16,872977215086905.8,0.7961387966117522,27.92500275557885
198.0,6.227871727110366e+16,994602289651829.5,0.7972707239209028,27.9732405110826
199.0,7.079443704951587e+16,1134376709030637.8,0.7983866248062076,28.021109315799205
200.0,8.050477838305736e+16,1295085427188628.2,0.7994863513793918,28.06859320975858
201.0,9.158815615197768e+16,1479885788843842.2,0.8005697615675824,28.115676246388926
202.0,1.0424951026161136e+17,1692341698805064.2,0.8016367189531778,28.162342498660447
203.0,1.1872360831232045e+17,1936459070776934.8,0.8026870926131067,28.208576065353366
204.0,1.3527862117092123e+17,2216722628726224.8,0.8037207569573562,28.254361077448074
205.0,1.5421997989506266e+17,2538134557117037.0,0.8047375915669737,28.299681704636004
206.0,1.7589453020031027e+17,2906256004631383.5,0.805737481031771,28.344522161949396
207.0,2.0069501113491786e+17,3327253072866971.0,0.8067203147879569,28.38886671650791
208.0,2.2906490046315533e+17,3807949607576740.0,0.8076859869559123,28.43269969437988
209.0,2.6150368574996934e+17,4355889901465193.0,0.8086343961784478,28.476005487559135
210.0,2.985726725677667e+17,4979414973749831.0,0.8095654454596178,28.51876856105177
211.0,3.409014336045662e+17,5687756867790493.0,0.8104790420038683,28.560973460061614
212.0,3.8919506104020454e+17,6491156288511889.0,0.8113750970563922,28.60260481728326
213.0,4.4424244191160486e+17,7401009236147519.0,0.8122535257446504,28.643647360295077
214.0,5.069258068232886e+17,8430048998933654.0,0.8131142469211979,28.684085919048602
215.0,5.782318595813272e+17,9592570327211936.0,0.8139571830079907,28.72390543345053
216.0,6.592648509261604e+17,1.0904703046915442e+16,0.8147822598423323,28.763090961033125
217.0,7.512620176942348e+17,1.2384742729646778e+16,0.8155894065246247,28.801627684708855
218.0,8.556118563007428e+17,1.4053546591574058e+16,0.8163785552681434,28.8395009206118
219.0,9.73875837893123e+17,1.5935002273332304e+16,0.8171496412509236,28.87669612601031
220.0,1.1078140955727137e+18,1.805657773955443e+16,0.8179026024696091,28.9131989072773
221.0,1.2594157773073441e+18,2.044996101637395e+16,0.8186373795958395,28.948995027932718
222.0,1.430934822791875e+18,2.315179778392893e+16,0.8193539158351694,28.984070416744185
223.0,1.624931954919743e+18,2.6204535128522372e+16,0.8200521567886169,29.018411175880225
224.0,1.8443237505026186e+18,2.9657379586523424e+16,0.8207320503169543,29.05200358910976
225.0,2.0924397171550223e+18,3.356737742500715e+16,0.8213935464078581,29.084834130041497
226.0,2.37308836113848e+18,3.800062491605727e+16,0.8220365970460225,29.116889470396835
227.0,2.6906332588179144e+18,4.303361719804587e+16,0.8226611560863567,29.148156488321185
228.0,3.0500804344465183e+18,4.87547405165623e+16,0.8232671791304262,29.17862227670351
229.0,3.457177911292169e+18,5.526591549226663e+16,0.8238546234059494,29.208274151494606
230.0,3.9185287748774405e+18,6.268439886941249e+16,0.8244234476497435,29.237099660040425
231.0,4.4417190385481313e+18,7.114474891216765e+16,0.824973611994142,29.265086589410924
232.0,5.035461594037804e+18,8.080096023007163e+16,0.8255050778569356,29.292222974716516
233.0,5.709757600303328e+18,9.182877367470928e+16,0.8260178078349182,29.318497107403672
234.0,6.476076713439142e+18,1.044281682015145e+17,0.8265117656011135,29.343897543521003
235.0,7.347557610133329e+18,1.188260452484421e+17,0.826986915805748,29.36841311194781
236.0,8.339230295756378e+18,1.3527912555826933e+17,0.8274432239810156,29.39203292259285
237.0,9.468262580500322e+18,1.540770773389556e+17,0.8278806564498915,29.414746374514785
238.0,1.0754231683206502e+19,1.7554592173209178e+17,0.828299180238706,29.43654316396639
239.0,1.2219423946155508e+19,2.000517754155254e+17,0.8286987629937944,29.45741329237635
240.0,1.3889165619711543e+19,2.280050096287234e+17,0.8290793729022569,29.477347074244893
241.0,1.579218835955401e+19,2.5986493331140874e+17,0.8294409786168538,29.4963351449438
242.0,1.7961034116966408e+19,2.9614513783613504e+17,0.829783549185099,29.514368468410748
243.0,2.0432505334998237e+19,3.3741967465315686e+17,0.8301070539826009,29.53143834472772
244.0,2.324816779685545e+19,3.843302754424583e+17,0.8304114626506942,29.54753641757509
245.0,2.6454915264312054e+19,4.375948722399247e+17,0.8306967450383672,29.56265468157153
