Time,J,A,S,tau
0.0,100.0,100.0,0.9445590229096229,15.233775055551954
1.0,136.57155340962885,150.57585778769607,0.944713172570044,15.159052943426817
2.0,215.3523549662239,200.62588384195814,0.9448946720447633,15.070930236179594
3.0,339.9146775444271,250.13474306584007,0.945103386647509,14.969437238329144
4.0,513.8989492621187,299.0910220003387,0.9453392015091268,14.854598202341993
5.0,740.995348171399,347.4837475463212,0.945602007454012,14.72643817880678
6.0,1024.9258636976303,395.3024044815993,0.9458917008550051,14.584983076862711
7.0,1369.425239523681,442.5369524938723,0.9462081834391965,14.43025973739867
8.0,1778.2211228666517,489.17784072946637,0.946551362052205,14.26229601857858
9.0,2255.013413067379,535.2160224722218,0.9469211483816602,14.08112089171772
10.0,2803.453128898462,580.6429678749276,0.9473174586474744,13.88676454749998
11.0,3427.120866900161,625.4506762953362,0.9477402132591687,13.679258510810538
12.0,4129.505376593144,669.6316865336714,0.9481893364380689,13.458635759769582
13.0,4913.98187561701,713.1790840257727,0.9486647558327049,13.22493086116828
14.0,5766.902989597865,785.5165363268434,0.9490194511621525,13.04907472906579
15.0,6730.1135172557015,911.2805240926075,0.9493351578676252,12.891759725820494
16.0,7884.287985515131,1091.9416479125384,0.9496412183947498,12.738885539006455
17.0,9320.06162925407,1330.8363115332243,0.9499380904484213,12.590274517027991
18.0,11140.634804478745,1631.1871933230689,0.9502262010549103,12.44576068929773
19.0,13462.048011296516,1996.0717356155403,0.9505059485495085,12.305188919907655
20.0,16413.30336766492,2428.3909381989333,0.9507777044356691,12.168414125227338
21.0,20136.322516367418,2930.8388136602066,0.9510418151413322,12.035300543897751
22.0,24785.736164617065,3505.872871879244,0.9512986036614612,11.90572106195932
23.0,30528.488211944383,4155.686211578899,0.951548371103764,11.779556585497593
24.0,37543.25863413179,4882.181518051613,0.9517913981395225,11.656695458764105
25.0,46018.84321075234,5687.955761368376,0.952027946359082,11.537032926826775
26.0,56140.82200444695,6619.015642863978,0.9522582595561709,11.42047063271695
27.0,68197.27372452889,7772.681287761708,0.9524825649166115,11.30691615724377
28.0,82679.81397747397,9258.76310837696,0.9527010741396875,11.196282590177702
29.0,100322.27222249548,11200.237768447088,0.9529139844876091,11.0884881335687
30.0,122142.05832168815,13732.900482509991,0.9531214797663019,10.983455735353694
31.0,149481.48358356117,17004.76103356912,0.9533237312445174,10.88111275004105
32.0,184047.9841961879,21175.18228912443,0.9535208985132542,10.781390625149864
33.0,227952.4183781209,26413.76192471321,0.9537131302888595,10.684224611547934
34.0,283744.0509268681,32898.970608207484,0.9539005651631881,10.589553496073393
35.0,354441.51689764194,40816.55611784397,0.9540833323058564,10.497319354064642
36.0,443553.9992616456,50365.22079772998,0.9542615521173381,10.407467321893874
37.0,555103.3505338198,61862.0846219451,0.9544353368418677,10.319945385890264
38.0,693941.5284252167,75872.42136989688,0.954604791135796,10.234704188866226
39.0,866356.4980337131,93257.43947399026,0.9547700126001939,10.151696850812321
40.0,1080809.3202095723,115217.32286770263,0.9549310922765131,10.070878803907092
41.0,1348795.5430041766,143331.33702183678,0.9550881151084666,9.992207640469978
42.0,1685821.8357446524,179593.43164697196,0.9552411603722859,9.91564297287398
43.0,2112483.5486011105,226441.93692083232,0.9553903020771861,9.841146304579558
44.0,2655623.3808151293,286781.98243365524,0.9555356093385631,9.768680911217848
45.0,3349548.4145890432,363999.51095172873,0.9556771467252079,9.698211731116558
46.0,4237269.940225666,461982.0349112193,0.9558149745821869,9.629705264558163
47.0,5371762.366408068,585367.6313508906,0.9559491493310912,9.56312948105283
48.0,6817951.64576974,740204.9039354612,0.9560797237490309,9.498453734046224
49.0,8656428.633286057,934801.8974293276,0.956206747228217,9.435648682311966
50.0,10989338.071662188,1180696.7586055642,0.9563302660170604,9.374686217635574
51.0,13948760.812650308,1493729.9437825512,0.9564503234440357,9.31553939829151
52.0,17707843.901404805,1895190.3480562964,0.9565669601255316,9.258182387829882
53.0,22494844.627279494,2413002.8839673847,0.956680214158713,9.20259039877582
54.0,28610150.442316692,3082919.54263721,0.9567901213007118,9.148739640722013
55.0,36446237.50700108,3949679.181463546,0.9568967151348112,9.096607272569006
56.0,46510367.74638938,5068319.846023781,0.9570000272245479,9.046171358567694
57.0,59450470.62560946,6506673.626169026,0.9571000872565981,8.997410827844316
58.0,76087591.55702968,8350068.836239187,0.9571969231731982,8.95030543713735
59.0,97460634.76372278,10708632.765677597,0.9572905612950264,8.904835736390242
60.0,124890038.89625983,13727413.037780028,0.9573810264350143,8.860983037054586
61.0,160067459.10369983,17599414.211748313,0.9574683420037609,8.818729382865989
62.0,205178696.1575378,22581511.131715357,0.9575525301071518,8.778057522885572
63.0,263066812.06907746,29013066.0494006,0.9576336116367337,8.738950886621978
64.0,337441748.13112843,37336930.50122956,0.957711606353476,8.701393560992416
65.0,433141827.01717895,48122853.807043985,0.9577865329652506,8.66537026904335
66.0,556452528.1078509,62095791.01490408,0.9578584091985102,8.630866350267741
67.0,715495561.3070389,80174882.70095573,0.9579272518645763,8.597867742388209
68.0,920716254.6600493,103530120.72073968,0.9579930769209405,8.566360964477365
69.0,1185514996.991549,133663839.34736712,0.958055899527996,8.536333101253906
70.0,1527086509.9568129,172523931.74600804,0.9581157341014293,8.507771788517342
71.0,1967547123.998643,222654938.7998143,0.9581725943606124,8.480665199609199
72.0,2535445408.876044,287392024.8482045,0.9582264933732698,8.455002032821424
73.0,3267761959.457329,371101513.3475142,0.9582774435967127,8.430771499659537
74.0,4212512089.0942597,479471445.45281076,0.9583254569159041,8.407963313855225
75.0,5432074400.655581,619863134.9109596,0.9583705446785166,8.386567681117217
76.0,7007397520.943224,801750268.4562955,0.958412717727215,8.366575289543018
77.0,9043310808.49963,1037289901.6739349,0.9584519864293392,8.347977300646283
78.0,11675276233.784752,1342086404.4807377,0.958488360704204,8.330765340930546
79.0,15078077417.494968,1736222559.3624063,0.9585218500481668,8.314931493943481
80.0,19477133645.465824,2245642984.9813304,0.9585524635575735,8.300468292815923
81.0,25163337692.970604,2903980537.6511016,0.9585802099497369,8.287368713232008
82.0,32512551253.84973,3754918196.3144855,0.9586050975820533,8.275626166807761
83.0,42011104719.14635,4855184231.286768,0.9586271344694175,8.265234494823737
84.0,54288903012.03905,6278304577.536907,0.9586463283000007,8.256187962274078
85.0,70162071090.22256,8119308607.014287,0.9586626864494708,8.248481252245014
86.0,90687579127.83173,10500692036.496548,0.9586762159937461,8.242109460585782
87.0,117233114992.96652,13580081666.201279,0.9586869237203399,8.237068090864623
88.0,151566566737.3582,17560209030.81737,0.9586948161384087,8.233353049565272
89.0,195971099666.48773,22701960896.689785,0.9586998994875099,8.230960641507073
90.0,253393820592.05344,29341450685.221012,0.9587021797451202,8.229887565506703
91.0,327638416296.38824,37912205443.96693,0.9587016626329596,8.230130910256943
92.0,423615059857.53015,48973732903.98413,0.9586983536221385,8.231688150425859
93.0,547663866452.91486,63247983678.132034,0.9586922579372026,8.23455714293919
94.0,707972272494.4178,81665610509.19623,0.9586833805590415,8.238736123444939
95.0,915111684350.773,105424620602.53001,0.9586717262266812,8.244223702981525
96.0,1182725377927.064,136064938221.15706,0.9586572994379717,8.251018864835013
97.0,1528409093341.8691,175563644978.47336,0.9586401044491526,8.25912096159713
98.0,1974837136414.036,226457185579.03644,0.958620145273339,8.268529712393601
99.0,2551203765076.358,291998486039.3288,0.9585974256778605,8.279245200294504
100.0,3295069972946.2163,376359000092.9456,0.9585719491804469,8.291267869931469
101.0,4254730894075.6216,484887803636.8729,0.9585437190442381,8.30459852531644
102.0,5492250695617.496,624442509087.641,0.9585127382715732,8.31923832788135
103.0,7087345264322.893,803810127782.0332,0.958479009596568,8.335188794715403
104.0,9142341071581.764,1034240289605.3894,0.9584425354763867,8.352451797022828
105.0,11788493359840.227,1330119876162.9092,0.9584033180811743,8.37102955883074
106.0,15194017073862.264,1709826204253.2637,0.9583613592825934,8.390924655951226
107.0,19574277665505.402,2196806841573.1035,0.95831666064089,8.412140015225278
108.0,25204692194195.195,2820947374939.6475,0.9582692233904705,8.434678914033812
109.0,32437048751811.418,3620303535214.105,0.958219048423868,8.458544980109341
110.0,41720127922725.12,4643294128219.89,0.9581661362740305,8.483742191685188
111.0,53625730113181.016,5951472324059.909,0.9581104870948447,8.510274877996919
112.0,68881488170038.58,7623019866004.072,0.9580521006397875,8.538147720173486
113.0,88412121391150.44,9757140188005.346,0.9579909762386553,8.567365752514018
114.0,113391208598083.08,12479564050473.756,0.9579271127722266,8.597934364194845
115.0,145305988621230.6,15949436086844.375,0.9578605086447515,8.629859301454363
116.0,186038242225815.06,20367911714244.78,0.9577911617541452,8.66314667028268
117.0,237964993923473.53,25988875977209.1,0.9577190694597488,8.697802939666152
118.0,304083433112115.4,33132290106945.184,0.9576442285475683,8.733834945395479
119.0,388165551724232.6,42200781131105.25,0.957566635192835,8.771249894494213
120.0,494949033937225.44,53700237541534.414,0.9574862849197222,8.810055370330145
121.0,630372259548675.5,68265323775886.8,0.9574031725580742,8.850259338450726
122.0,801862857957445.0,86691019125226.11,0.9573172921969615,8.891870153208542
123.0,1018690564211647.6,109971488502553.02,0.9572286371349565,8.934896565200004
124.0,1292397528685110.5,139347830175176.3,0.9571371998269448,8.97934772958793
125.0,1637321050354512.0,176366575160334.78,0.9570429718272546,9.025233215389653
126.0,2071226120350586.2,222951137959013.72,0.9569459437289377,9.072563015787606
127.0,2616067855345310.5,281488858290734.4,0.9568461050989673,9.121347559547829
128.0,3298905551701543.0,354936715961648.3,0.9567434444092404,9.171597723584002
129.0,4152994518862766.0,446949318295238.44,0.956637948963178,9.22332484675314
130.0,5219083906922916.0,562033472269818.25,0.9565296048176521,9.276540744987006
131.0,6546952186654308.0,705734271002473.2,0.9564183967000607,9.331257727832181
132.0,8197215111709618.0,884858448430348.6,0.9563043079202757,9.38748861650605
133.0,1.024344088919812e+16,1107741430351021.6,0.956187320277368,9.44524676351741
134.0,1.2774613544122642e+16,1384565328885620.8,0.9560674139608889,9.504546073953463
135.0,1.5897983736133014e+16,1727736229390223.2,0.9559445674464023,9.565401028560254
136.0,1.974234765595297e+16,2152329909586960.0,0.9558187573850945,9.62782670870221
137.0,2.4461793254343348e+16,2676616315241656.5,0.9556899584871688,9.691838823329089
138.0,3.0239943813864816e+16,3322673717507225.5,0.9555581433989898,9.7574537380005
139.0,3.72947340478234e+16,4117104461976051.0,0.9554232825737676,9.824688506082142
140.0,4.588373781673131e+16,5091865560954000.0,0.9552853441354726,9.893560902258384
141.0,5.631006209182343e+16,6285227750282741.0,0.9551442937358806,9.964089458444487
142.0,6.892879537866699e+16,7742878115893073.0,0.9550000944044106,10.036293502260692
143.0,8.41539788421133e+16,9519179839316122.0,0.9548527063909675,10.110193198067716
144.0,1.0246609421494718e+17,1.1678603407314318e+16,0.9547020870015559,10.18580959070145
145.0,1.2441995090309042e+17,1.4297344425227668e+16,0.954548190426376,10.263164652069186
146.0,1.506528936097732e+17,1.7465139781589606e+16,0.9543909675605414,10.342281330640775
147.0,1.8189320670105354e+17,2.12872917439692e+16,0.9542303658175839,10.423183603866223
148.0,2.1896843474212467e+17,2.5886915233543932e+16,0.9540663289346216,10.505896533955358
149.0,2.6281362511619504e+17,3.140739907234866e+16,0.9538987967714637,10.590446326402063
150.0,3.144789786310976e+17,3.801509331286447e+16,0.9537277051019192,10.6768603918989
151.0,3.751367601267155e+17,4.590221134993412e+16,0.9535529853982406,10.765167411441675
152.0,4.460869989768768e+17,5.528994297876601e+16,0.9533745646080719,10.855397404932184
153.0,5.2876180728686054e+17,6.643175188866225e+16,0.9531923649249668,10.947581803043398
154.0,6.247276201933663e+17,7.961680685710667e+16,0.9530063035561513,11.041753521378244
155.0,7.356851382608271e+17,9.51735798654187e+16,0.9528162924783102,11.137947039792003
156.0,8.63466517715276e+17,1.1347345185801477e+17,0.952622238196231,11.236198482512915
157.0,1.010028926162314e+18,1.349344026647432e+17,0.9524240414888229,11.336545703924648
158.0,1.177445045325239e+18,1.600245374443388e+17,0.9522215971623201,11.439028373972725
159.0,1.3678891603573978e+18,1.8926557115658323e+17,0.9520147937892173,11.543688069995133
160.0,1.5836184570099684e+18,2.232359928004124e+17,0.9518035134554093,11.650568368212326
161.0,1.8269507274638333e+18,2.6257387272401066e+17,0.9515876315051032,11.759714938016012
162.0,2.1002368762064108e+18,3.079792353521343e+17,0.9513670162835456,11.871175639362733
163.0,2.4058282265249393e+18,3.6021580588719616e+17,0.9511415288859814,11.985000620765994
164.0,2.746040191450307e+18,4.201119853726627e+17,0.9509110229129151,12.101242417787255
165.0,3.123111760156436e+18,4.88560966466906e+17,0.9506753442310806,12.219956052411622
166.0,3.539160300190605e+18,5.665198843112081e+17,0.9504343307393558,12.341199133818687
167.0,3.996134836143307e+18,6.550077156296333e+17,0.9501878121545863,12.465031955508213
168.0,4.4957665508959457e+18,7.55101992155189e+17,0.9499356098030853,12.59151759372447
169.0,5.039517753980953e+18,8.679341133263478e+17,0.9496775364369192,12.720722000979228
170.0,5.628532498513057e+18,9.946831729678609e+17,0.9494133960661006,12.852714097396237
171.0,6.263585484626222e+18,1.1365683987695031e+18,0.9491429837994724,12.987565863136581
172.0,6.945040289444683e+18,1.2948396989633024e+18,0.9488660857512897,13.125352411193672
173.0,7.672802783511443e+18,1.470767144386038e+18,0.9485824789403307,13.26615206745749
174.0,8.446288572289676e+18,1.665628489186419e+18,0.9482919312214015,13.410046442687488
175.0,9.264391655324475e+18,1.8806957013391726e+18,0.9479942013049877,13.557120477927892
176.0,1.012546671811138e+19,2.1172196661962132e+18,0.947689038744895,13.707462504804791
177.0,1.102731162033435e+19,2.376414447701953e+18,0.9473761840205284,13.861164277781063
178.0,1.1967175412767132e+19,2.659440190381799e+18,0.9470553686974665,14.018320978721782
179.0,1.2941759094051846e+19,2.9673854417979576e+18,0.9467263155421164,14.179031246920596
180.0,1.3947239921468162e+19,3.3012491056295557e+18,0.9463887387814025,14.343397157721318
181.0,1.497930097232413e+19,3.661922962265466e+18,0.9460423444114777,14.511524187325982
182.0,1.6033176435451329e+19,4.050173721007077e+18,0.945686830555544,14.683521162946942
183.0,1.7103702150598928e+19,4.4666262759436933e+18,0.9453218878971695,14.859500189342821
184.0,1.8185376640868364e+19,4.911748021605898e+18,0.9449472001883444,15.039576550456584
185.0,1.9272429940254695e+19,5.38583456043899e+18,0.9445624448342266,15.223868585232086
186.0,2.0358898574639972e+19,5.888997262239089e+18,0.9441672935571223,15.412497536071225
187.0,2.143870607415324e+19,6.421153080396486e+18,0.9437614131496699,15.605587363768382
188.0,2.2505741839247786e+19,6.982016393631374e+18,0.9433444662777067,15.803264551790424
189.0,2.355394743268214e+19,7.571094142085975e+18,0.94291611241761,16.00565784987443
190.0,2.4577397143187472e+19,8.187683410619839e+18,0.9424760088414158,16.21289800563223
191.0,2.5570377103275926e+19,8.830872290463186e+18,0.9420238116999308,16.42511745214327
192.0,2.652745753996013e+19,9.499542979875144e+18,0.9415591771536529,16.64244998972708
193.0,2.744356210863469e+19,1.0192379365247322e+19,0.9410817626323986,16.865030388768236
194.0,2.8314028682288108e+19,1.0907875281335587e+19,0.9405912281326265,17.09299400869753
195.0,2.913465866595922e+19,1.1644348381473147e+19,0.9400872375922406,17.326476343779078
196.0,2.9901758864405225e+19,1.2399954518021292e+19,0.9395694603148107,17.56561256633185
197.0,3.061217280142616e+19,1.3172704932235844e+19,0.9390375724470527,17.810537035384993
198.0,3.1263302088814248e+19,1.3960485223428235e+19,0.9384912585007116,18.061382779131094
199.0,3.1853118314960265e+19,1.4761075941468217e+19,0.9379302129243087,18.318280952468754
200.0,3.2380165110210593e+19,1.5572174423063308e+19,0.9373541417217605,18.581360260741217
201.0,3.2843546769384526e+19,1.639141777727685e+19,0.9367627639919851,18.8507463863896
202.0,3.3242916385292603e+19,1.7216405600760097e+19,0.9361558136556344,19.126561369308085
203.0,3.3578442924989886e+19,1.8044723225385458e+19,0.9355330408090532,19.408923051485562
204.0,3.3850783716421366e+19,1.8873963397255676e+19,0.9348942133031358,19.697944470106453
205.0,3.4061051394124173e+19,1.97017480854974e+19,0.9342391183826809,19.99373322017141
206.0,3.4210770726751134e+19,2.0525749472288035e+19,0.933567564170125,20.296390818896427
207.0,3.4301835045690343e+19,2.1343709765529313e+19,0.9328793811774365,20.606012077403303
208.0,3.433645106418211e+19,2.2153455560488382e+19,0.9321744228803391,20.922684737771352
209.0,3.431710060217324e+19,2.2952913792088322e+19,0.9314525672390416,21.246488843632143
210.0,3.4246498766049153e+19,2.3740131168961245e+19,0.9307137189540563,21.577495815947724
211.0,3.412753106744868e+19,2.451327806121593e+19,0.9299578087576633,21.915768445261673
212.0,3.3963218423729017e+19,2.527065614997027e+19,0.929184794155859,22.26136054030946
213.0,3.3756677738523107e+19,2.6010716664590238e+19,0.9283946622546978,22.614315740733886
214.0,3.3511073701302084e+19,2.673205593130092e+19,0.9275874284370095,22.974667722130484
215.0,3.322958892381733e+19,2.7433415048530104e+19,0.9267631362080497,23.34244012822625
216.0,3.291538832348713e+19,2.8113692878140297e+19,0.9259218597044789,23.71764545561547
217.0,3.257158836153992e+19,2.877193821182952e+19,0.9250637024539606,24.100285223229296
218.0,3.220123771051129e+19,2.9407341934373495e+19,0.9241887962023935,24.490350264815177
219.0,3.1807288531406004e+19,3.0019243896124813e+19,0.9232973027522903,24.88781982129877
220.0,3.13925790217507e+19,3.060712464191442e+19,0.9223894130853268,25.292661573168623
221.0,3.095982661261268e+19,3.117059233227347e+19,0.9214653452839268,25.704832283328674
222.0,3.051160850694025e+19,3.1709383570965725e+19,0.9205253454953237,26.124277195537065
223.0,3.005035161998319e+19,3.222335675544527e+19,0.9195696875089918,26.55092988424341
224.0,2.957833771274408e+19,3.271247605753621e+19,0.9185986700499176,26.984713173242497
225.0,2.9097694168212234e+19,3.3176807626181075e+19,0.9176126167179616,27.425538939324817
226.0,2.861038235373687e+19,3.361651661545935e+19,0.9166118765777274,27.873307501194326
227.0,2.811822282299172e+19,3.403184587317897e+19,0.9155968196900717,28.3279093958175
228.0,2.762287758539418e+19,3.442311698429963e+19,0.914567838316568,28.78922456331416
229.0,2.7125854725685907e+19,3.479072213559166e+19,0.9135253462186161,29.257122277400246
230.0,2.6628536163851563e+19,3.5135105689278673e+19,0.9124697738284913,29.731463334767373
231.0,2.6132146294225215e+19,3.545677089885918e+19,0.911401571989676,30.212097720221745
232.0,2.563779891489552e+19,3.5756259287300026e+19,0.9103212060881798,30.69886744959146
233.0,2.514646756284915e+19,3.6034152224103166e+19,0.9092291579087938,31.191605093700378
234.0,2.465902356173936e+19,3.6291059624962073e+19,0.9081259226881536,31.690135245628404
235.0,2.417622376520678e+19,3.6527615133402337e+19,0.9070120081818462,32.194274565205866
236.0,2.3698725035044e+19,3.6744472043202273e+19,0.9058879348039209,32.703831452667906
237.0,2.3227091570274955e+19,3.694229419405707e+19,0.9047542319682461,33.218607773047474
238.0,2.2761807734833193e+19,3.712175589493143e+19,0.9036114396964424,33.73839789479291
239.0,2.2303264224802443e+19,3.728353261358546e+19,0.902460106115036,34.26298917832016
240.0,2.185180952223124e+19,3.742830346069456e+19,0.9013007858718496,34.79216419346229
