Time,J,A,S,tau
0.0,100.0,100.0,0.4582834756123146,37.03703703703704
1.0,100.85017200077546,98.49284504755839,0.4567419780809181,37.97305193260708
2.0,101.79943302873426,97.01428015912182,0.4551913460582025,38.91337515054909
3.0,102.8446978249455,95.56397910306086,0.4536365854311668,39.85653693218674
4.0,103.98466812287845,94.14098267768507,0.45207918989942375,40.80227187512738
5.0,105.21754256741559,92.7443615618861,0.4505204587740618,41.750334866724
6.0,106.54100662488212,91.37324698275467,0.44896145255180636,42.70050610561514
7.0,107.95262905431352,90.02677631795868,0.44740318889631736,43.652570327092896
8.0,109.44945480722379,88.70413181875811,0.4458464697525491,44.60633540502953
9.0,111.02835033787666,87.40452777949898,0.44429200028732196,45.56161976267386
10.0,112.68593588731096,86.12720046787179,0.4427403826480422,46.51825308789092
11.0,114.41862500575827,84.87142839572648,0.44119209868183307,47.47607840523825
12.0,116.22272214611277,83.63650088309421,0.439647581848109,48.43494412065394
13.0,118.09437525406649,82.42175064367173,0.4381071554572766,49.39471106484064
14.0,120.02969130058607,81.22652176664315,0.4365711132565377,50.35524342658809
15.0,122.02469785713869,80.05019158040747,0.4350396738419844,51.31641398628768
16.0,124.07542115729031,78.89215797546143,0.4335130244404613,52.278099153211166
17.0,126.17786752466317,77.75183816406016,0.4319913153614382,53.2401795799392
18.0,128.32808672835324,76.62867915820273,0.43047466626860964,54.20253947180911
19.0,130.5221335609001,75.52213714804425,0.4289631840450113,55.16506447760592
20.0,132.75615227347677,74.4317013505598,0.4274569587496806,56.12764208552131
21.0,135.02630845611262,73.3568682944188,0.42595607745966985,57.090160075756586
22.0,137.32887295056713,72.29716204259917,0.42446063155942665,58.05250539237126
23.0,139.6601727393714,71.25211992113628,0.4229707169789177,59.014564296883506
24.0,142.01661828391525,70.22129631696905,0.4214864493963672,59.976220235718515
25.0,144.394722495454,69.20426673593276,0.42000796665157875,60.937353581564984
26.0,146.79104715127622,68.20061488011316,0.4185354292977237,61.89784152855366
27.0,149.2022879593743,67.20994974206022,0.41706904954983004,62.85755412543573
28.0,151.62517169459352,66.23188526359819,0.4156090592981209,63.816358670824016
29.0,154.05655349735494,65.26605837755149,0.4141557710994608,64.77411122555748
30.0,156.49333471418177,64.31211451801998,0.41270952716158177,65.73066371756522
31.0,158.93250402371498,63.369714329219335,0.4112707595709375,66.68585542754984
32.0,161.37112677264923,62.43853336649134,0.40983996568233155,67.63951648777811
33.0,163.8063095343432,61.51825430410927,0.40841771728922555,68.59146643820341
34.0,166.23526374374066,60.60858129820458,0.40700472312102154,69.5415054273169
35.0,168.65521275082617,59.70922067059879,0.4056017257196985,70.4894287508092
36.0,171.06346206390134,58.81989664365894,0.404209656816307,71.43500457987462
37.0,173.45736338141438,57.94034405823093,0.4028295307284602,72.37798928323807
38.0,175.83429024310314,57.07030332406672,0.4014624854352457,73.3181212496324
39.0,178.19169322030274,56.209534177275216,0.400109878131845,74.25510715061533
40.0,180.52702637092105,55.3577976389693,0.39877311044065944,75.18864715214805
41.0,182.83779770379675,54.51487043010633,0.39745387113592384,76.11839924778754
42.0,185.12155822200495,53.680540766730395,0.3961539903357586,77.04400072861978
43.0,187.37585449827694,52.85459740007533,0.3948753998218186,77.96507368550378
44.0,189.59829843719882,52.03684836249036,0.3936203953196168,78.88118583766494
45.0,191.78651994667518,51.22710664962271,0.3923913467747383,79.79189383290996
46.0,193.93815640267593,50.42518957057162,0.3911908362482087,80.69672190887002
47.0,196.05091189936684,49.63093228682687,0.3900217681707174,81.59514473390185
48.0,198.12249082534268,48.84417057956896,0.38888708973953584,82.48663048651524
49.0,200.1506305894675,48.06474936235808,0.3877900365516137,83.37060122831839
50.0,202.13313555815287,47.29252859337403,0.3867340533175658,84.24644468129584
51.0,204.06780334362995,46.52736711320864,0.3857226219680694,85.1135428055418
52.0,205.95248559345896,45.76913396440842,0.3847594298506121,85.97124010704741
53.0,207.7851067458689,45.017711620467836,0.38384823992462486,86.81886441137479
54.0,209.56358428792353,44.27298098670384,0.3829928463092803,87.65573837920834
55.0,211.2859186423401,43.53483388223551,0.38219699949058045,88.48117924315854
56.0,212.9501878784306,42.803173878035075,0.38146435264337386,89.29451104814623
57.0,214.5544651350322,42.077902555705,0.3807985561616843,90.09505712090572
58.0,216.09694181356977,41.35893312781315,0.3802028207081596,90.88218826466503
59.0,217.5758894407255,40.646188974549595,0.3796800923222245,91.65530535021819
60.0,218.98956966005292,39.93959003347138,0.37923328304480963,92.41381340478088
61.0,220.33641298084976,39.239069652584945,0.37886434687444226,93.15723439406105
62.0,221.61494461263942,38.54457138105118,0.3785747914447297,93.88514475858183
63.0,222.82367634968827,37.856035868055365,0.37836611537555126,94.59712272157822
64.0,223.96125661539867,37.173408766700035,0.3782387821479097,95.29287774468189
65.0,225.02653028874266,36.496653407383434,0.37819224838935284,95.97224415691026
66.0,226.0183463662393,35.82573354108234,0.3782259478572028,96.63505916306072
67.0,226.93555725188023,35.16060602677968,0.37833895111533444,97.28120873752971
68.0,227.77732079400295,34.501247131493706,0.3785288544142632,97.910760061093
69.0,228.5428860787901,33.847641581955216,0.3787929434901334,98.52381693273493
70.0,229.23149939822818,33.19977329657534,0.3791284888220597,99.12048532009939
71.0,229.842491269962,32.55762172977608,0.37953218591326104,99.70094196524938
72.0,230.37546288513371,31.921183920507655,0.3800000286720142,100.26544026669086
73.0,230.83005358379492,31.2904610458219,0.3805279712808553,100.81423663491358
74.0,231.20592413853572,30.665448435665567,0.3811118100108151,101.34760482170172
75.0,231.5030018175108,30.04615493008686,0.3817470577086397,101.8658356351866
76.0,231.7212919883743,29.4325963528578,0.3824292030983979,102.3692179161629
77.0,231.8607975390008,28.824782818672062,0.38315370357521356,102.85804209446742
78.0,231.9217514698495,28.22273206040542,0.38391606549079377,103.33256956309134
79.0,231.90451600075056,27.626472863383167,0.38471185977091715,103.79304387306294
80.0,231.80944116020163,27.03602954804527,0.3855366616426377,104.23970658880064
81.0,231.63704430394614,26.451427146057803,0.3863862466632353,104.67275118131734
82.0,231.3880271680682,25.872705350726214,0.3872565517321743,105.09233538926777
83.0,231.0630811592125,25.29990123792861,0.3881435217629443,105.49861519900213
84.0,230.66299405774865,24.733046382790725,0.38904330157359424,105.8917018543729
85.0,230.188785248678,24.172188819790673,0.389952250883909,106.27165855372945
86.0,229.6414789991662,23.61737654660934,0.39086674039360814,106.63854617114369
87.0,229.02212717806327,23.06864725745438,0.3917832728238043,106.99239439076501
88.0,228.33204533464436,22.52605441444233,0.39269855341964904,107.33318188904308
89.0,227.57258366757935,21.98965470113489,0.39360930423409857,107.66088295499632
90.0,226.74506291316072,21.459491845134274,0.39451231140991944,107.97545445385421
91.0,225.85107411097457,20.935621484732206,0.3954044969595184,108.27680800229498
92.0,224.8922897951564,20.418106345315966,0.396282800226954,108.56484827253153
93.0,223.87031942527824,19.906996446956587,0.3971441834976032,108.83947195855374
94.0,222.7870058669223,19.402346037676107,0.39798565653757273,109.1005417389788
95.0,221.64434397641983,18.90422111465778,0.39880423220048467,109.34791150084975
96.0,220.4442615821239,18.412677783987448,0.39959692892913773,109.58143202810203
97.0,219.188828023095,17.92776587325344,0.4003607374387629,109.80093279590744
98.0,217.88036108518682,17.449552005144238,0.4010926160770649,110.00623440253898
99.0,216.52112294824528,16.978096225515806,0.40178952417382335,110.1971563886417
100.0,215.1133969453293,16.51344297526698,0.4024483500254747,110.37350767913249
101.0,213.65980235875972,16.05565604486818,0.40306589643712276,110.53509098001015
102.0,212.1629366780028,15.604796804370174,0.4036389643640605,110.68170859370744
103.0,210.62528373939855,15.160904002184006,0.4041642746355237,110.81315949612784
104.0,209.04970676130299,14.72403484161614,0.4046384033590882,110.92924181933002
105.0,207.4391062363619,14.29424904498495,0.40505791615047826,111.02975373930207
106.0,205.79614657403704,13.87157999218904,0.4054193144138634,111.11449394359387
107.0,204.1238234254315,13.456074336281517,0.4057189057493298,111.18326763860445
108.0,202.42525113318567,13.047786885920386,0.40595296881058784,111.23588132919288
109.0,200.7032379404452,12.646746642773467,0.4061177441993863,111.27214316919742
110.0,198.96073431137972,12.252985609734244,0.4062092568943201,111.29187580429245
111.0,197.20090109378873,11.866550295292448,0.4062234741545002,111.29490623207182
112.0,182.49375500033477,23.642808260881754,0.427841777213383,97.01221380815252
113.0,147.43262029316696,53.85092341350624,0.46427994162657044,74.48407160155568
114.0,127.21494315273819,68.89858102276214,0.48091832396922585,63.93430495465795
115.0,114.99786203286898,75.84996577036549,0.4876087499863574,58.38118371712363
116.0,106.02012278372167,79.52971331667658,0.4899924440444363,54.74680537123451
117.0,98.69966008723064,81.5504087374027,0.4901051961243941,52.05253479334854
118.0,92.37877547438906,82.58819335424258,0.4888563413387941,49.89673010419432
119.0,86.73160965392134,82.98179611861202,0.48672307780874124,48.08214685432754
120.0,81.5759049163277,82.92332803207978,0.48398446306529724,46.49980203799916
121.0,76.80030905849357,82.53216651900767,0.4808162609002523,45.08443903633869
122.0,72.33201876568496,81.8879259323336,0.47733501898496344,43.794719861702134
123.0,68.12072654302436,81.0468601392169,0.47362081622075664,42.603363919318596
124.0,64.12999283904593,80.05069805890932,0.46973008681104594,41.4917877025315
125.0,60.33233040642802,78.93169282792063,0.46570326434448966,40.44700742492816
126.0,56.70629236555551,77.71561937485323,0.46156958536301695,39.45976168556727
127.0,53.23464062339123,76.42366511347988,0.45735028530189153,38.52330522116153
128.0,49.90320335839406,75.0736159883957,0.4530607692774301,37.63262895319325
129.0,46.70009628066398,73.68066395526542,0.4487121349267209,36.78392895317556
130.0,43.61523165864413,72.2579249325781,0.4443122591048262,35.974253758518174
131.0,40.639955737203096,70.81681668158991,0.4398665868600531,35.20125510076077
132.0,37.76680091536848,69.36732008867699,0.43537871795308464,34.46301604772634
133.0,34.98932465633375,67.91815776756066,0.4308508396400944,33.75793482986553
134.0,32.301960135639696,66.47694729048801,0.4262840626351829,33.084636158181254
135.0,29.699924633088028,65.05030287726346,0.4216786724474962,32.44191343444386
136.0,27.17914645263484,63.6439128542928,0.41703432320436323,31.82868696298338
137.0,24.736207001695426,62.262614291501556,0.412350203844669,31.243973949198452
138.0,22.368299730634195,60.91043043413727,0.40762515354900236,30.68686758956575
139.0,20.073197050690297,59.59060603291851,0.4028577692348847,30.156521203751055
140.0,17.849190988952,58.305659903773744,0.39804649168529405,29.652135103798813
141.0,15.860180322703787,56.892425623091114,0.39318971409471165,29.17295388575632
142.0,15.098829231763373,54.36014449962092,0.388285778524776,28.7182520660331
143.0,14.424416609686439,51.849974508329375,0.3833330944243868,28.287335756377992
144.0,13.76687901298196,49.43068495162835,0.37833015310236334,27.879535295075595
145.0,13.126714270133876,47.10056198813329,0.37327567106080545,27.49420954724312
146.0,12.504486031716525,44.85769474910971,0.36816848754788645,27.13073190861104
147.0,11.900915642729526,42.70026526302434,0.363007792561139,26.788500676898348
148.0,11.3168294163438,40.6262983612881,0.35779297164846346,26.466925666111724
149.0,10.753313510059543,38.6338389544439,0.35252376934259594,26.165433987550873
150.0,10.21184006455666,36.72090847551933,0.34720031001405643,25.88346702952991
151.0,9.694327627365533,34.88549864540814,0.34182308081499274,25.62047796450471
152.0,9.203346475043281,33.12558318753368,0.3363929979039294,25.37593173344312
153.0,8.74226773439875,31.43913418668768,0.33091141774789556,25.149303618206762
154.0,8.315422918243513,29.824108503484403,0.3253801525618779,24.94007817573788
155.0,7.928252247097588,28.27846278144676,0.3198014836993532,24.7477483212664
156.0,7.587410555117689,26.800151609887802,0.3141781679512623,24.57181445115859
157.0,7.300823565890874,25.387133438384602,0.3085134414897004,24.411783667929726
158.0,7.077652967962036,24.03737345825603,0.30281101469897487,24.267169024856727
159.0,6.928161824883611,22.74884592990981,0.297075063132476,24.13748886876039
160.0,6.863491034320865,21.519540706088947,0.29131021471994306,24.022266226235207
161.0,6.895283223844916,20.347462222075603,0.2855215283693419,23.92102827216563
162.0,7.03525104613032,19.230636551078288,0.27971447058682125,23.83330581826476
163.0,7.294605966559143,18.16711061218237,0.27389488515551264,23.75863290325473
164.0,7.683493858492085,17.15495828253618,0.2680689597451582,23.696546376457807
165.0,8.2103446313523,16.19228113737867,0.2622431879398303,23.6465855884628
166.0,8.881305746814201,15.277221992985432,0.2564243274717068,23.60829206820611
167.0,9.699681778958668,14.407958471978873,0.2506193558997398,23.581209296806197
168.0,10.66557367164993,13.582714152744373,0.24483542707501563,23.564882445902153
169.0,11.775627971829223,12.799765485025713,0.23907982143510684,23.558858174022973
170.0,13.022776645875066,12.057442953419072,0.23335989455694775,23.56268453939179
171.0,14.39633831926198,11.354144437807319,0.22768302970224505,23.57591082922854
172.0,15.882244704011352,10.688346933211308,0.22205659001103287,23.598087433342364
173.0,17.46331825189526,10.05861457026894,0.21648786805194978,23.62876578758567
174.0,19.11982632736888,9.463613988660434,0.2109840428579828,23.667498261755437
175.0,20.829989767043237,8.902122314526226,0.20555213289786206,23.71383813729358
176.0,22.570679380894887,8.373040243964644,0.20019895737661242,23.767339538632626
177.0,24.31806923324774,7.875395575178259,0.19493109608637352,23.827557427364276
178.0,26.048378128535184,7.408350682366074,0.18975485598477104,23.894047568267705
179.0,27.73855080976437,6.971198017305121,0.18467624104635533,23.966366531170948
180.0,29.36694626830438,6.563355669675029,0.17970092405806548,24.0440716962316
181.0,30.913942604966845,6.184353406552646,0.17483422747817134,24.12672126288043
182.0,32.36249433716442,5.833813993613918,0.17008110333385085,24.21387428414318
183.0,33.69858352455176,5.5114297011957705,0.16544612129010505,24.30509070165893
184.0,34.911546864767494,5.216933271855235,0.16093346134333314,24.399931396359232
185.0,35.99429687208554,4.95006547692119,0.15654690870576482,24.497958258663754
186.0,36.94339959084584,4.710542051309285,0.15228985401627926,24.598734271614394
187.0,37.75909974959382,4.498014553889341,0.1481652875132828,24.70182365043797
188.0,38.444636269923826,4.312067288097086,0.14417584906861466,24.806791847290064
189.0,39.00644668572269,4.152154524669976,0.14032377780194383,24.913205937271538
190.0,39.45354642832697,4.017593512499203,0.13661097419984514,25.02063453830952
191.0,39.79699376938635,3.9075470821451956,0.13303899236858155,25.128648195592476
192.0,40.049176044843826,3.8210218645456626,0.12960907505191818,25.23681957592714
193.0,40.22327336181123,3.7568637591266163,0.12632217230450435,25.344723771175808
194.0,40.33263906251194,3.7137642322787174,0.12317896697662493,25.45193866708325
195.0,40.39044039991884,3.6902689092439904,0.12017989804400186,25.55804527472316
196.0,40.40906189433276,3.684799559544317,0.11732519244093612,25.66262823172344
197.0,40.39982528904269,3.69567442881194,0.11461489250866026,25.765276300605116
198.0,40.37276017417682,3.72113320908234,0.11204888546122878,25.865582951238547
199.0,40.3364776581754,3.7593641385647985,0.1096269332504587,25.963147016292705
200.0,40.298136408220195,3.8085319837412492,0.10734870254851794,26.05757342626197
201.0,40.26348596507986,3.866806060999797,0.10521379460373177,26.14847402948871
202.0,40.2369695185812,3.9323875846823073,0.10322177473362043,26.23546850219936
203.0,40.221867418041754,4.003535806743036,0.10137220124055431,26.31818535320662
204.0,40.22046363631922,4.078592642585444,0.09966465354916165,26.396263027305167
205.0,40.234219613732165,4.156005673180015,0.0980987593755137,26.46935111056535
206.0,40.26394293092365,4.234349501354915,0.09667422074557674,26.53711163968398
207.0,40.30994152406813,4.312345488099083,0.09539083868399649,26.599220516261077
208.0,40.372155911649656,4.388879880255936,0.09424853632313894,26.65536900021116
209.0,40.45027030245695,4.463020685981609,0.09324738084464557,26.705265395775314
210.0,40.543799941837754,4.534031549527781,0.09238760271891586,26.748636735028114
211.0,40.652145431703076,4.6013844233167305,0.09166961357239402,26.785230521518876
212.0,40.77464664410374,4.664763946525915,0.0910940176841255,26.81481627073879
213.0,40.91062859002856,4.7240808535469085,0.09066163266460062,26.837188986642115
214.0,41.059318892083255,4.7794716555012595,0.09037349810729771,26.852169241040116
215.0,41.22003929568037,4.831266308405143,0.09023085784862554,26.859605871230464
216.0,41.39196386842215,4.880023903628438,0.09023520795278572,26.859378922171853
217.0,41.57426446848668,4.926478016646208,0.09038826271742917,26.85140019619057
218.0,41.76609500193294,4.971517534789633,0.09069195364901268,26.835615977896914
219.0,41.96653457766571,5.016165972442947,0.09114843348267868,26.812009287178093
220.0,42.17461126868674,5.061537371227073,0.09176005140469552,26.780601199148403
221.0,42.38928393995299,5.108800317988324,0.09252933528464666,26.741452483278177
222.0,42.60942821246714,5.159139917945993,0.09345896646317922,26.69466500246952
223.0,42.83381826629026,5.213721380781305,0.09455174875838104,26.640382875875083
224.0,43.061104293005734,5.273656915679292,0.09581057119711693,26.57879343692137
225.0,43.28978338823372,5.339977636357112,0.0972383644601523,26.51012799647619
226.0,43.51816696637327,5.413613071717415,0.0988380506484583,26.434661809663982
227.0,43.7443493690691,5.495377517570341,0.10061248693622077,26.352713751527713
228.0,43.9661747098409,5.585962568887995,0.10256440264868592,26.264645961935724
229.0,44.18121449210365,5.685938884371951,0.10469633662611089,26.17086198502326
230.0,44.38675082232533,5.795757973680884,0.10701056383570853,26.07180643032882
231.0,44.57974498187947,5.915761075894288,0.10950900257309637,25.96796344236612
232.0,44.75687691497967,6.0461997047903235,0.11219318076978209,25.85985059626886
233.0,44.914541871670444,6.18723899210882,0.11506412024603711,25.748020708804734
234.0,45.04886657343584,6.338976389251919,0.1181222508891565,25.633055994470215
235.0,45.15579001905686,6.501457021991684,0.12136740378396438,25.51556336314021
236.0,45.23109263837456,6.6746808449683055,0.12479866268504804,25.396173493977663
237.0,45.27047086726762,6.858613532704699,0.1284143292573785,25.27553385605511
238.0,45.26961743529362,7.05319516634202,0.13221193382116866,25.154304995350582
239.0,45.224304721525776,7.258341941383377,0.13618808139414887,25.03315670406582
240.0,45.130472308719256,7.473946662734848,0.14033849737101778,24.912762069324007
241.0,44.984301338452255,7.699881788612738,0.1446580460179844,24.793794009145966
242.0,44.78234659200586,7.935990434254516,0.14914061456113717,24.676919555650603
243.0,44.52158590337977,8.182081701603202,0.15377923803193935,24.56279641021984
244.0,44.199500474487195,8.4379272943001,0.15856612411078758,24.452069095463262
245.0,43.81424437640886,8.703239527158058,0.16349259461162585,24.34536229052034
246.0,43.364557779127956,8.977674194919425,0.1685493209764541,24.24328269060923
247.0,42.850003888708976,9.260802892899141,0.17372625579139775,24.14640947449185
248.0,42.27090830086078,9.552102410460405,0.17901277721670397,24.055296645526983
