Time,J,A,S,tau
0.0,100.0,100.0,0.9973020748995192,5.555555555555555
1.0,99.74879005870356,97.89590195299323,0.9954063276777835,5.2905118581681245
2.0,99.45962265142296,95.76490917326686,0.9931382201431742,4.999445877718747
3.0,99.1276305157168,93.6098944162478,0.9904450365207591,4.682209790255529
4.0,98.74740873097389,91.43267731253773,0.9872652807252296,4.338473584393867
5.0,98.31330266722831,89.23536504357888,0.9850364173497984,4.182747097575885
6.0,97.81998619890325,87.02022624781398,0.9830369046869498,4.097097076166534
7.0,97.26339309510391,84.7897673759506,0.980790168914315,4.013973414188126
8.0,96.64267538850874,82.54704390790155,0.978269411965764,3.9333117167843934
9.0,95.96333202562403,80.29601666449187,0.9754455220985522,3.855057779711581
10.0,95.24195050212965,78.04221644460752,0.9722871865083139,3.7791666274624807
11.0,94.51623516874687,75.79440026015006,0.9687605337650071,3.7056071527025893
12.0,93.85822949444535,73.5673176571117,0.9648291600255359,3.6343648877391197
13.0,93.39392678010657,71.3870576665229,0.9604539543163153,3.5654472269839124
14.0,93.32407166719862,69.30019049132414,0.9555929270650305,3.498890156399641
15.0,93.93442524127732,67.3891585276555,0.9502009084079517,3.434767784412181
16.0,95.55938124088598,65.79569654381305,0.9442290926186949,3.373204993406789
17.0,98.43276810597729,64.7518320536167,0.9376243090095904,3.3143942994761355
18.0,102.35676450905521,64.60895110051317,0.9303278727874315,3.2586180419019537
19.0,106.26690815184476,65.83330632883664,0.9222738120341467,3.206277165127897
20.0,108.15468735631586,68.8993626939721,0.9133861791052347,3.157928228193483
21.0,106.00709405002942,73.99402733709753,0.903575088721983,3.1143300348923617
22.0,99.45445018219516,80.5694586333198,0.8927310415907109,3.076501232537688
23.0,90.39262984752953,87.15621064277092,0.8807170540049335,3.045789642663847
24.0,81.64805794617024,92.03151751647994,0.8673581830995796,3.0239528657796675
25.0,75.13722788867373,94.40317316698808,0.85242831401298,3.013247447228292
26.0,71.43184637992175,94.72872770780263,0.8356346992686842,3.0165206913062184
27.0,70.58347296353384,93.9811196519992,0.8166020490769524,3.037293594995282
28.0,72.71384075323937,93.02933630676607,0.7948598863778971,3.0798181345175877
29.0,77.87108181209611,92.52508689304346,0.7698397981169712,3.1490848503754902
30.0,85.59031846864784,92.9350197441372,0.7408923418446813,3.250752368166504
31.0,94.68859003098481,94.50485916152529,0.7073356129033129,3.3909711224308596
32.0,103.65414866369599,97.17262877972941,0.6685459934314933,3.5760841067552804
33.0,111.48300163062905,100.52961654357523,0.6240937480737379,3.8122098281894643
34.0,118.32963265137862,103.91257660328004,0.5739096771036829,4.104745636360882
35.0,125.5422394102455,106.61252440931614,0.5184471645241908,4.45786464491488
36.0,135.30145767303424,108.08748331623148,0.45878628710405484,4.874098800649258
37.0,150.3027926361119,108.07251159149756,0.3966264148069425,5.354095235675419
38.0,173.6547483044763,106.56852009038427,0.33413899362226107,5.896597455967914
39.0,208.85628221962776,103.7614115970025,0.2736981935007184,6.498646943565956
40.0,259.6076671745279,99.92970032378189,0.21755158077082953,7.1559505999253785
41.0,329.2708677709974,95.37210094890963,0.16751432248836562,7.863330607925306
42.0,419.96810340654815,90.36225492257658,0.12476048711189242,8.6151733349432
43.0,531.5339630608378,85.12643292505197,0.08974880889927574,9.405815260919228
44.0,660.7088584189949,79.83746376488695,0.06227798447063916,10.22983350157042
45.0,800.9498031063579,74.61843556944547,0.04163173787023601,11.082235787013076
46.0,943.077250068259,69.55113102928117,0.02677455373259886,11.958562515357437
47.0,1076.6286436373439,64.68587857832087,0.016543881407986332,12.85492064728764
48.0,1191.5502659171284,60.05066383566013,0.009807677340290324,13.767971064757115
49.0,1279.7634334314962,55.65852403268983,0.005570506579373885,14.694887614463065
50.0,1336.2276661128856,51.51300152156425,0.0030269464791637425,15.633301877625772
51.0,1359.3208274679598,47.611873314520714,0.0015713845625886901,16.581243265083046
52.0,1350.570788212835,43.94954523834696,0.0007782675876797989,17.537080408043447
53.0,1313.9284630682853,40.518508752834386,0.0003672540105295303,18.49946720191131
54.0,1254.8305178302057,37.31019107261526,0.00016491353961615047,19.467295038282177
55.0,1179.2834094916304,34.31543859268567,7.038790263098551e-05,20.439651623370672
56.0,1093.1199030757086,31.524792152549903,2.8526537008688322e-05,21.41578613691201
57.0,1001.4993800148314,28.928649916966766,1.0968096356539298e-05,22.395080141005376
58.0,908.6468377304082,26.51737208025801,3.997978719782189e-06,23.377023519429702
59.0,817.7842760195441,24.28135575616996,1.3808454243286037e-06,24.361194708457383
60.0,731.1919213847626,22.211094010115357,4.517179041517845e-07,25.34724452687921
61.0,650.3407422677669,20.29722540035909,1.3989599446300295e-07,26.33488298824305
62.0,576.0509691077045,18.53057662280493,4.095918832462634e-08,27.323868561258834
63.0,508.64663056913014,16.902199358972897,1.127157109372682e-08,28.31399943682181
64.0,448.1176494318667,15.403405629403245,2.9242113138141116e-09,29.30510641251742
65.0,394.19714092492785,14.025791619317836,7.166111809416136e-10,30.29704710816335
66.0,346.4706525666546,12.761260616667148,1.6618522219856198e-10,31.28970123378047
67.0,304.44242472677354,11.60204114008647,3.6612530267392534e-11,32.28296673087275
68.0,267.5751458761745,10.540700057648216,7.66295993996456e-12,33.276756614503284
69.0,235.33486730744522,9.570153702446657,1.5346390115149245e-12,34.270996382719716
70.0,207.20334747696597,8.68367256588897,2.962719421576499e-13,35.26562187033383
71.0,182.69265422138506,7.874883158804117,5.455377724943934e-14,36.260577485533744
72.0,161.3637043761579,7.137769591340711,9.676588821761053e-15,37.25581474028219
73.0,142.81377659726724,6.466668650753576,1.651803104279619e-15,38.25129102575429
74.0,126.683538629267,5.8562643572911695,2.7193118019738956e-16,39.246968578697604
75.0,112.65781613451168,5.301580711482181,4.362579592561067e-17,40.24281361222398
76.0,100.45457286767756,4.797970826979666,6.7417792780966e-18,41.23879556717263
77.0,89.83352927815473,4.341107425163647,1.0181385035577447e-18,42.234886468515626
78.0,80.58044659679375,3.926969271793703,1.497790354049531e-19,43.231060358542855
79.0,72.51221458407235,3.5518289475918037,2.1571133777611898e-20,44.2272927921283
80.0,65.47045144302233,3.2122384077780897,3.065949613911885e-21,45.22356037569544
81.0,59.31682725742393,2.905014864307092,4.24327742997598e-22,46.2198403382465
82.0,53.933903170280736,2.6272266652263307,5.769310294241313e-23,47.216110119222286
83.0,49.21966165185558,2.376178178013105,7.482848422831316e-24,48.2123469623033
84.0,45.08642266596225,2.149395406596843,8.822977501518845e-25,49.208527503144886
85.0,41.45977303440948,1.944612431954698,9.927008921281534e-26,50.204627338899776
86.0,38.27452672099388,1.7597570633266215,1.0428912023702998e-26,51.20062055977817
87.0,35.47482878133671,1.592937016425539,1.3014936406332312e-27,52.19647924921641
88.0,33.01256446352276,1.4424268893598367,1.935511501625796e-28,53.192172900129485
89.0,30.8469273817288,1.306654792877078,2.9917770367719365e-29,54.18766776895004
90.0,28.942551800901647,1.1841921545281706,4.83191273180933e-30,55.182926110429904
91.0,27.268905652271958,1.0737418351545427,8.539977002353004e-31,56.177905286590146
92.0,25.80023824934837,0.9741269068869174,1.5789805179940856e-31,57.17255670526361
93.0,24.513907797119916,0.8842812551763171,3.0668836826797243e-32,58.166824552065364
94.0,23.390576379969016,0.8032399416684239,6.279770555339506e-33,59.160644261163014
95.0,22.413730161997506,0.7301304325649353,1.356966336485275e-33,60.15394066032519
96.0,21.569320056935243,0.6641644575255172,3.088580307104541e-34,61.14662570644393
97.0,20.845251234078056,0.6046304923849771,7.419964179198493e-35,62.13859570978062
98.0,20.23124324774688,0.5508867374068127,1.8848252152537226e-35,63.129727917057735
99.0,19.718618050931084,0.5023546792628443,5.0686775908993366e-36,64.11987628183877
100.0,19.300114082980887,0.4585131727556777,1.4439279144975495e-36,65.10886620724177
101.0,18.969764881040394,0.4188930058413902,4.3549884449862505e-37,66.09648798287176
102.0,18.722842579037973,0.3830719142372033,1.3850057283499105e-37,67.08248854709777
103.0,18.555277974945596,0.3506701347216126,4.6623702007507425e-38,68.06656111111579
104.0,18.46417805404026,0.32134615656065685,1.6601298420825815e-38,69.04833204093597
105.0,18.447569939522936,0.29479297091432427,6.231925110808248e-39,70.02734415243037
106.0,18.50393028052373,0.27073473149602056,2.4716073821143582e-39,71.00303537540584
107.0,18.632761208160634,0.24892354812212933,1.0333029919428209e-39,71.9747113311338
108.0,18.833996875512323,0.2291367728641402,4.554831931341269e-40,72.94150967209636
109.0,19.10860580049854,0.2111743399112213,2.1100894817719197e-40,73.90235404309209
110.0,19.457725435923606,0.19485659133394917,1.028165283122858e-40,74.85589388810185
111.0,19.883404644916947,0.18002214728130037,5.257220662340233e-41,75.80042267734667
112.0,20.388122389381046,0.1665260069719227,2.819063753908441e-41,76.7337741669144
113.0,20.975099273536475,0.15423793643264336,1.5823324477979819e-41,77.65317276008707
114.0,21.647703872320296,0.1430409353786738,9.298316951430203e-42,78.55504077771037
115.0,22.410428673976465,0.13282978921323912,5.709077730422472e-42,79.4347189853381
116.0,23.267835458825513,0.12351000204901606,3.662496986089458e-42,80.28606792529891
117.0,24.22516179421158,0.11499655089966472,2.454250880637243e-42,81.10090167509004
118.0,25.28822035367323,0.10721298379334651,1.7189132953525762e-42,81.86808361345084
119.0,26.463097535104282,0.10009053174887973,1.2609593320801955e-42,82.57212286074446
120.0,27.75637392355314,0.0935672807243919,9.727848571252364e-43,83.19078360943521
121.0,29.1750606166122,0.08758749719119586,7.954773945558998e-43,83.69058702468426
122.0,30.72634321638935,0.08210100216467377,7.001040118433854e-43,84.01762861481643
123.0,32.41787915677803,0.07706252937036909,6.84411706251104e-43,84.07647969005941
124.0,34.2574773745987,0.0724312896817954,8.02372352437732e-43,83.66858672653476
125.0,36.25312499291803,0.06817047416372285,1.448060810868271e-42,82.25127634243465
126.0,38.412835681825285,0.06424686616652524,2.485129009770914e-41,76.90348847973982
127.0,40.74463835208912,0.06063433215014261,1.8432158240741008e-07,14.357765626983323
128.0,43.263170053152464,0.05740335798049166,3.821739172232958e-06,8.279451517421844
129.0,45.99166077079482,0.054499135357843946,8.246870718987593e-06,6.148198289847598
130.0,48.94306483254893,0.05184021966156906,1.1817829430439875e-05,5.005722644359724
131.0,52.12528069537866,0.04938929755659088,1.4520103644218906e-05,4.30457279630905
132.0,55.54490209039056,0.04712394929676888,1.6554963066545323e-05,3.847055103536614
133.0,59.20822314084707,0.045027940036781004,1.81063966121976e-05,3.53998501690433
134.0,63.12138137892754,0.043087424484962,1.9312030120994705e-05,3.332349508212391
135.0,67.29021109098876,0.04129010436528372,2.026956059760775e-05,3.1934149039537805
136.0,71.7200934565058,0.03962492416212999,2.1047259969373564e-05,3.103417672716769
137.0,76.41582702740608,0.03808184984588993,2.1692687109603754e-05,3.0490501561521595
138.0,81.38151000434675,0.03665172120926614,2.2239040879266757e-05,3.02105068592147
139.0,86.62044873487525,0.03532614884968668,2.2709597706826167e-05,3.012821258513643
140.0,92.13508019028563,0.03409743563634299,2.3120786054708146e-05,3.019582536736171
141.0,97.92691127058823,0.032958513300361064,2.3484299892269496e-05,3.0378345404242597
142.0,103.9965093308749,0.03190288341743122,2.3808571649006336e-05,3.0649928115999994
143.0,110.3434398265341,0.03092457415364398,2.4099765080182992e-05,3.0991451411935964
144.0,116.9662881865145,0.030018091490204405,2.436248699064088e-05,3.1388716972952717
145.0,123.86267049462818,0.02917838060670304,2.4600261375475403e-05,3.183120480135207
146.0,131.02924439411586,0.028400789604220576,2.4815861517065625e-05,3.231114310239766
147.0,138.46173002074804,0.027681035568203664,2.5011537847298435e-05,3.282281721287193
148.0,146.15492728327314,0.027015175357021286,2.5189171208007216e-05,3.336206177413837
149.0,154.10278662905333,0.026399575796202508,2.5350378266481292e-05,3.392587083012775
150.0,162.29846735770792,0.025830882925076678,2.5496583855690152e-05,3.451209752006609
151.0,170.73435014883148,0.025306000844133817,2.5629065442469885e-05,3.511924783047994
152.0,179.40206517368043,0.02482207146375086,2.5748983690280736e-05,3.5746318662525813
153.0,188.2925471323345,0.024376455065717152,2.585740236750499e-05,3.639267447134705
154.0,197.39613674238257,0.023966702591636177,2.595530500288582e-05,3.7057944428403684
155.0,206.70254701635386,0.02359054256894716,2.6043602951763795e-05,3.7741962074318867
156.0,216.2008860018416,0.02324587007409096,2.6123139650543662e-05,3.8444718277635452
157.0,225.87975674831785,0.022930728385786726,2.6194695890811423e-05,3.9166319879603395
158.0,235.72728558424615,0.02264328802751776,2.6258997466186377e-05,3.9906958837392135
159.0,245.7310373601665,0.022381847490440265,2.6316713342277788e-05,4.066690136179427
160.0,255.8781968137053,0.02214481499425756,2.6368459788924378e-05,4.144646945343603
161.0,266.15555166963514,0.021930693753299126,2.6414806535867137e-05,4.224602990355079
162.0,276.54937876398475,0.021738084369246465,2.645627462648881e-05,4.306599522022967
163.0,287.0456923066733,0.021565667528988672,2.6493341146053283e-05,4.390681470486396
164.0,297.6301340101511,0.021412194666412372,2.6526445112653238e-05,4.476897305703508
165.0,308.28800179064524,0.021276492083632036,2.655598304254262e-05,4.565299759888925
166.0,319.00439437289265,0.02115744177530659,2.658231851355063e-05,4.655945075726215
167.0,329.7640720560498,0.021053984922369325,2.6605780942672187e-05,4.748894188904621
168.0,340.5516842346613,0.020965114085150987,2.662666780706644e-05,4.844212728381615
169.0,351.35167898390335,0.020889864617788776,2.664525113356026e-05,4.941971145908739
170.0,362.14842199374107,0.020827320676167892,2.6661772731842985e-05,5.04224674372871
171.0,372.9262393816186,0.020776598409239275,2.6676454883162106e-05,5.145121996731347
172.0,383.6694438481314,0.020736857849641386,2.668949341261674e-05,5.250688890830315
173.0,394.36244402894914,0.02070728522680582,2.6701068306505367e-05,5.359045608432631
174.0,404.98977746319895,0.020687103828933896,2.6711338003169428e-05,5.470302081989722
175.0,415.5361968760715,0.020675561759137817,2.6720446820014353e-05,5.584576946300744
176.0,425.9867253500238,0.020671937293651445,2.6728522595589733e-05,5.702002483326144
177.0,436.3267517912103,0.020675533450035945,2.6735680358501983e-05,5.8227233374148195
178.0,446.5420779585579,0.020685678924897692,2.674202239604393e-05,5.946900604318498
179.0,456.6189948505983,0.020701725242221993,2.674764057764174e-05,6.074710562356248
180.0,466.5443810195296,0.020723048215411165,2.6752616168345053e-05,6.206350355145832
181.0,476.3057045785523,0.020749044776122275,2.6757022223626112e-05,6.342035458675112
182.0,485.89118580382865,0.020779135315784392,2.6760923096641922e-05,6.482007264021146
183.0,495.28972024157014,0.02081276024890733,2.6764376681161252e-05,6.626528931038795
184.0,504.49110140606433,0.02084938321888154,2.676743377569348e-05,6.775895279731721
185.0,513.485862335413,0.020888487209309494,2.6770140119748377e-05,6.93042642548477
186.0,522.2655527822584,0.02092957867313233,2.677253570190919e-05,7.090480368393434
187.0,530.8225011252779,0.02097218302194917,2.6774656563707842e-05,7.256443736487161
188.0,539.1501451216125,0.02101584994553941,2.6776534089822897e-05,7.428747680043909
189.0,547.242722258747,0.02106014801868391,2.6778196583618768e-05,7.607855227446298
190.0,555.0955258931173,0.021104669185831024,2.6779668854357468e-05,7.794274598880651
191.0,562.704828069712,0.021149028385536273,2.6780972820997187e-05,7.98855666686399
192.0,570.0677683090333,0.02119286064069726,2.6782128115171275e-05,8.191291759111529
193.0,577.1825685494127,0.02123582766435107,2.6783151785332608e-05,8.403120294741143
194.0,584.0482116437229,0.0212776106571811,2.678405921515934e-05,8.624717819485825
195.0,590.6647046393213,0.021317918188341757,2.6784863772058023e-05,8.856808601356825
196.0,597.0328154787018,0.021356481139374557,2.6785577396824033e-05,9.100149940123128
197.0,603.1541455965246,0.021393055513227004,2.678621062910668e-05,9.355536695774179
198.0,609.0310918933798,0.02142742435690297,2.6786772705074947e-05,9.623792333650037
199.0,614.666679053896,0.021459393014871608,2.678727191657986e-05,9.905761466606721
200.0,620.0646925147857,0.021488797330050134,2.6787715442472897e-05,10.202304679101559
201.0,625.2294162859034,0.021515495012454953,2.6788109748069365e-05,10.514284482041036
202.0,630.1657498122305,0.02153937358038319,2.6788460466578185e-05,10.842558674022753
203.0,634.8790351161584,0.021560345101452626,2.6788772601391844e-05,11.187962266494036
204.0,639.3750392424221,0.021578347347965193,2.6789050592125193e-05,11.55130302062317
205.0,643.6599174117821,0.021593345810442,2.67892983097751e-05,11.933333961836734
206.0,647.7400915687501,0.021605327149500586,2.678951923989859e-05,12.334758814340965
207.0,651.6222736989399,0.021614305915829787,2.6789716400547392e-05,12.756195482039221
208.0,655.3133400367395,0.02162031547253076,2.6789892504521718e-05,13.19818565624806
209.0,658.8203291717117,0.021623412388327923,2.6790049929762913e-05,13.661169862655953
210.0,662.1503679752385,0.021623671651524144,2.679019077338653e-05,14.145476943463414
211.0,665.3106377135792,0.021621185557107625,2.6790316910336768e-05,14.651334629006486
212.0,668.3083264105734,0.021616060565003703,2.6790429982723725e-05,15.178842421090238
213.0,671.1505726564129,0.021608419629260158,2.6790531422573674e-05,15.727965249107863
214.0,673.8445131363166,0.021598389647109473,2.679062257848811e-05,16.298611730717784
215.0,676.3970906372213,0.021586111622345396,2.6790704531259056e-05,16.890485168792562
216.0,678.8151599340138,0.02157173039036165,2.6790778302075945e-05,17.503237058293223
217.0,681.1054991146165,0.021555392727433377,2.679084482194435e-05,18.136441086459
218.0,683.2746065686089,0.021537248301998605,2.6790904850001343e-05,18.789524049332726
219.0,685.3288909565844,0.021517446630839595,2.679095910973735e-05,19.461880365015436
220.0,687.2744799812369,0.021496133938777213,2.6791008208551882e-05,20.152809679728502
221.0,689.117349477234,0.021473454214159957,2.6791052709335226e-05,20.86158014294034
222.0,690.863225958321,0.02144954557600492,2.6791093098037256e-05,21.587406963867764
223.0,692.5176057246339,0.021424540471721626,2.6791129810140706e-05,22.329484459559275
224.0,694.0857965920917,0.021398565597040276,2.6791163236286807e-05,23.086985994016803
225.0,695.5728023076309,0.021371738249879448,2.6791193713968892e-05,23.8590826011266
226.0,696.9834793923928,0.021344176294566947,2.6791221554985504e-05,24.64494480980886
227.0,698.0672981348022,0.017558890941458596,2.679124702846712e-05,25.443754073364165
228.0,698.06707487063,0.006475078111017049,2.6791270377542656e-05,26.254709266692362
229.0,698.0668710127476,0.0023965688668090538,2.6791291817783742e-05,27.077031979984923
230.0,698.0666844755547,0.0008952132872527585,2.6791311541610423e-05,27.9099710826792
231.0,698.0665134154935,0.00034200444623364083,2.679132972070987e-05,28.75280577844393
232.0,698.0663562009607,0.00013766714771214634,2.6791346508392832e-05,29.604847919410826
233.0,698.0662113861316,6.173793003042371e-05,2.679136204167627e-05,30.465443480825837
234.0,698.0660776881674,3.3109083812778065e-05,2.6791376443124307e-05,31.333973312929757
235.0,698.0659539673474,2.1938410345875696e-05,2.679138982247593e-05,32.209853283825765
236.0,698.0658392097332,1.7243228433150543e-05,2.679140227808458e-05,33.09253392064254
237.0,698.0657325120293,1.4979099274419045e-05,2.67914138981917e-05,33.981499647297866
238.0,698.0656330683446,1.3654269258481658e-05,2.6791424762053884e-05,34.87626770653778
