Time,J,A,S,tau
0.0,100.0,100.0,0.6178817210327372,31.25
1.0,98.47697587303084,97.40160218868024,0.6178361621159606,31.25744858910284
2.0,96.97283241864255,94.86110916535839,0.6178200835429773,31.260081669151152
3.0,95.48913925114203,92.38033601448963,0.6178333416264472,31.257905108016946
4.0,94.02567786589672,89.95808922677645,0.6178756197736792,31.250950399536055
5.0,92.58222649808125,87.59314158241577,0.6179465839727283,31.239251259218857
6.0,91.15858752696542,85.28429468538693,0.6180458061928998,31.222852818329905
7.0,89.75458584059749,83.03043820894051,0.618172814422378,31.201805422724313
8.0,88.37004382425187,80.83037791250739,0.6183271025221455,31.176163587660966
9.0,87.00486295687412,78.68300718388502,0.6185080373129724,31.145996676672492
10.0,85.65896355997975,76.58726074546472,0.6187149604215487,31.11137695664186
11.0,84.33231388762565,74.54199960203782,0.618947136844345,31.072385590528587
12.0,83.02505681308853,72.54620014171235,0.6192036982427099,31.029118830499943
13.0,81.73734434959779,70.59883250778341,0.6194837595178785,30.98167483864389
14.0,80.46955427654576,68.69882741388005,0.6197863018979933,30.93016674249031
15.0,79.22236438239302,66.84522854677593,0.6201101892539541,30.874720591795846
16.0,77.99646998976276,65.03703385615692,0.6204542600123385,30.81546527225718
17.0,76.79322416597375,63.27325486093204,0.6208171606028429,30.752550558763023
18.0,75.61436844827513,61.55298790143456,0.6211974535014985,30.68613525816557
19.0,74.46196396035018,59.87527782433195,0.6215936221199193,30.616386660435996
20.0,73.33905402528912,58.23921044281723,0.6220039761591162,30.54349056350188
21.0,72.24925884180898,56.643875429320644,0.6224267357037099,30.467642217016877
22.0,71.19746594446991,55.08840366550857,0.62285996095516,30.389053667040432
23.0,70.18949109244302,53.571921830135246,0.6233016030074892,30.30794833228183
24.0,69.23259729642497,52.09358010144003,0.6237494672283191,30.224564768622933
25.0,68.33567871973175,50.6525441162899,0.6242012159182988,30.13915629435506
26.0,67.50929124022524,49.2479933184123,0.6246543791741059,30.05198980871199
27.0,66.7659846776012,47.879122195579214,0.625106344000721,29.963346852205856
28.0,66.12048032225405,46.54514148991147,0.6255543574033912,29.873523235902343
29.0,65.58986952061956,45.2452766613743,0.6259955268136413,29.78282895397612
30.0,65.19368878380472,43.97876614631185,0.6264471240016732,29.688315900452967
31.0,64.95404488288112,42.74486651843112,0.626904365088588,29.590583465397476
32.0,64.89576199002897,41.54285181179759,0.6273093521187655,29.498789776604344
33.0,65.04635548777607,40.37201010391855,0.6276595701386141,29.413166464522785
34.0,65.43600173705924,39.23164747231373,0.6279524997326545,29.333944664928296
35.0,66.09743735638848,38.12109016383624,0.6281856283832167,29.261354134890446
36.0,67.06578892554698,37.03968775955939,0.6283564627592714,29.195622299408605
37.0,68.37832834392157,35.98681759685092,0.6284625418680813,29.136973234127357
38.0,70.07415354257996,34.96189087984546,0.6285014510533306,29.08562658460844
39.0,72.19379820482959,33.96436102048097,0.6284708366839811,29.04179643432955
40.0,74.77875637344407,32.99373406048543,0.6283684212922077,29.005690141825934
41.0,77.87093790749897,32.04958197127171,0.6281920191541313,28.977507144016414
42.0,81.51205262223858,31.131558999894573,0.6279395521259854,28.957437740347206
43.0,85.74292513772662,30.239421315049466,0.6276090655631135,28.94566187013572
44.0,90.60273771332045,29.37304983036896,0.6271987441540975,28.942347895709887
45.0,96.12821475689579,28.532476672777737,0.6267069276973991,28.9476513841239
46.0,102.35274877142169,27.717913893818835,0.6261321258794784,28.961713965174404
47.0,109.30546011592946,26.929784762578322,0.6254730328976223,28.984662192870342
48.0,117.01023801419915,26.168756318151427,0.6247285408055904,29.016606496096223
49.0,125.4846965494826,25.435772464593864,0.6238977523512915,29.05764016215576
50.0,134.73911025602004,24.7320823326982,0.6229799908434366,29.107838554090254
51.0,144.77572821974448,24.059268618804754,0.6219748074558131,29.167258473258094
52.0,155.5870425542372,23.419309501907684,0.620882010891308,29.235935697846458
53.0,167.15593802882583,22.81452627928142,0.6197016341931684,29.313887707093507
54.0,179.45400253287357,22.247652605169545,0.6184339713719869,29.401110574935505
55.0,192.44126226432513,21.721838459011696,0.6170795765704571,29.49757889905358
56.0,206.0657298595161,21.240618622573173,0.6156392537060023,29.603246589623144
57.0,220.26326205908077,20.807926537423178,0.6141140665363289,29.718045829581115
58.0,234.9577067107176,20.4280679256859,0.6125053335544213,29.84188731960826
59.0,250.06122796540654,20.105693161099673,0.6108146248513753,29.97466032417618
60.0,265.4749137395152,19.845761935985216,0.6090437571151146,30.116232842089715
61.0,281.0895874247475,19.653501313841364,0.6071947871800105,30.266451871457704
62.0,296.78677419202944,19.534358280430833,0.6052700042551344,30.425143760491892
63.0,312.43977253886214,19.493948577033457,0.6032719209745555,30.592114634564282
64.0,327.9148051790384,19.538003405002055,0.6012032634453414,30.767150886964153
65.0,343.0722442849448,19.67231540488505,0.5990669604785674,30.950019720344464
66.0,357.7679077052861,19.90268458467809,0.5968661319538608,31.140469750811118
67.0,371.85460798394087,20.234867557461847,0.594604076779549,31.338231632295468
68.0,385.1840101099206,20.67452996018263,0.5922842605073434,31.543018703335512
69.0,397.60894465979317,21.227203268985402,0.589910302759702,31.754527645460787
70.0,408.98628453570865,21.898246740961387,0.587485964628988,31.972439142771588
71.0,419.1804263342667,22.69281490332687,0.5850151361954427,32.19641853327314
72.0,428.0673160410336,23.61583072732137,0.5825018242999128,32.42611644327806
73.0,435.53883597093864,24.671964349226528,0.5799501406949048,32.66116939702869
74.0,441.50722567568425,25.865616830128786,0.5773642906475565,32.90120040098854
75.0,445.9091117679884,27.200904670275808,0.5747485622030212,33.14581947305019
76.0,448.70910217082724,28.68166525585865,0.5721073160344515,33.394624166743455
77.0,449.9015478038115,30.311436163257632,0.56944497616259,33.64719999128972
78.0,449.51163369414746,32.09345883600259,0.5667660218182073,33.90312069951625
79.0,447.59343016487344,34.03066710922972,0.5640749786829632,34.16194882200049
80.0,444.2273876407277,36.1257164287802,0.5613764122743351,34.42323605956714
81.0,439.5160619523459,38.38092310643291,0.5586749225499511,34.686523206433414
82.0,433.57864699503443,40.7982929583903,0.555975138411028,34.951340513239764
83.0,426.5448049741454,43.37949642026648,0.5532817134744554,35.217207808266835
84.0,418.54850168966857,46.12584870450065,0.550599322731644,35.4836345836714
85.0,409.72226139570154,49.03828133496164,0.5479326600498303,35.750120036552566
86.0,400.19225147215377,52.11730754476914,0.5452864364899461,36.01615306828515
87.0,390.07448417777283,55.36297405044856,0.5426653794046914,36.28121224701644
88.0,379.47225583820244,58.774812618867635,0.5400742322733793,36.54476573912681
89.0,368.474846104167,62.35175987957013,0.5375177552271132,36.80627121364088
90.0,357.15729701990693,66.09209556403836,0.5350007262313146,37.065175716439576
91.0,345.5812151772099,69.99334531286314,0.5325279427636678,37.320915589639846
92.0,333.7960679659391,74.05218277070992,0.5301042241254499,37.572916296952336
93.0,321.8410545543672,78.26431011621754,0.5277344141265096,37.820592334833336
94.0,309.7471611590653,82.62436260827701,0.5254233835681485,38.06334735024337
95.0,297.5389290453456,87.12576416590278,0.5231760332968562,38.30057397653268
96.0,285.2363433261859,91.76048850779668,0.5209972996981371,38.53165331761232
97.0,272.8567324743176,96.51909072036554,0.5188921539034426,38.75595633680352
98.0,260.41583445152764,101.39037124995406,0.5168656073155421,38.97284297154198
99.0,247.92921673505123,106.36115726481964,0.5149227160375109,39.18166250134751
100.0,235.4130681219794,111.41630952982037,0.5130685777434641,39.38175499981056
101.0,222.88508792678417,116.53827716539355,0.5113083376736188,39.572450999174215
102.0,210.36517382752967,121.70687992706705,0.5096471877242543,39.75307269438558
103.0,197.87596437176003,126.89905993700228,0.5080903649062887,39.92293520968949
104.0,185.44334086896097,132.08858030463986,0.5066431487054093,40.08134797918633
105.0,173.0969668938798,137.2456343602818,0.5053108568306364,40.22761639806157
106.0,160.87075067660288,142.33651265187927,0.5040988390753519,40.361044022356
107.0,148.80325535956294,147.32327368598737,0.5030124669119163,40.480935140180854
108.0,136.9380592885895,152.16346208790017,0.5020571206824777,40.58659784514542
109.0,125.3239059257756,156.810024544423,0.5012381734385272,40.67734751119302
110.0,114.01475992108558,161.211315726237,0.5005609697855166,40.75251103621555
111.0,103.06944093775708,165.31151102058726,0.5000307999006203,40.8114316294039
112.0,92.55082113526565,169.05145144822174,0.49965286927821967,40.85347412067693
113.0,82.52451027971438,172.3699812241706,0.4994322607004703,40.87803129372146
114.0,73.05683092212104,175.20596612653517,0.4993738903622157,40.884530771369235
115.0,64.21213078489495,177.5009459425338,0.49948245747244263,40.87244258050784
116.0,56.049483563028154,179.2023589424644,0.49976238628608777,40.84128747556613
117.0,48.61894864230828,180.2671642099093,0.5002177603422117,40.79064598507029
118.0,41.957623347794225,180.6656196016703,0.5008522475543468,40.72016827699928
119.0,36.086108071209736,180.38460430259306,0.5016690214220999,40.62958396505198
120.0,31.005499427151925,179.4303672155292,0.5026706667273394,40.51871352753648
121.0,26.69628509980006,177.8293799300957,0.5038590988413219,40.38747705438004
122.0,23.118114106995264,175.62829289433859,0.5052354530503758,40.235906616478026
123.0,20.212005720602654,172.89148256136951,0.5067999903085698,40.06415537907279
124.0,17.90409896466011,169.69710822433544,0.5085519954235577,39.87250708083999
125.0,16.11080727436778,166.1318327391458,0.510489680401488,39.661384039264405
126.0,14.744663668147503,162.28493080255282,0.5126100946295465,39.431353530558724
127.0,13.72007964555056,158.24256379343734,0.5149090460687136,39.1831320985976
128.0,12.958271891909058,154.08295684737243,0.5173810375276813,38.917587392889196
129.0,12.390800136656816,149.87301761040604,0.5200192225514326,38.63573713348627
130.0,11.96144383899093,145.66664650102499,0.522815385820574,38.3387448277236
131.0,11.626485179342021,141.50464731142267,0.5257599508560747,38.027912140836726
132.0,11.353719774612,137.41589754311573,0.52884201812198,37.704667826922936
133.0,11.120661085471848,133.4192997117392,0.532049435242511,37.37055330928735
134.0,10.91241531243793,129.52603063830182,0.535368899622033,37.027205164673276
135.0,10.71960825546985,125.74170496772642,0.5387860934063511,36.676334844686195
136.0,10.53662820684268,122.06819682434674,0.5422858461797685,36.31970635059953
137.0,10.360264867606164,118.50503948892572,0.5458523240021708,35.95911241662614
138.0,10.188762828654946,115.05039651688817,0.5494692334395687,35.59635030255782
139.0,10.021200214997943,111.7016986555413,0.5531200378903036,35.2331976372362
140.0,9.857110052606512,108.45603072765977,0.556788197500942,34.87138610717372
141.0,9.696256127759183,105.3103384267112,0.5604573433931144,34.51258942344414
142.0,9.538543292965192,102.26158201625223,0.5641115845342178,34.158385102078704
143.0,9.383932267266895,99.30671936830731,0.5677355701224601,33.810262363295
144.0,9.23243343461379,96.44282094463807,0.5713147667520789,33.469589464824864
145.0,9.084085968150744,93.66699387564276,0.5748355978614117,33.13760838901886
146.0,8.938959165431136,90.97647935263028,0.5782854597200356,32.81543829463997
147.0,8.797152709702871,88.36855457100799,0.5816529981432705,32.50405160856099
148.0,8.658797882532726,85.84061711191212,0.5849278926902719,32.204302891643934
149.0,8.524069778891198,83.39011373008861,0.58810127672771,31.91689024711167
150.0,8.393187038537627,81.01462026758145,0.591165315632466,31.6424032907628
151.0,8.266416667028022,78.71172329015,0.5941135115034187,31.38129748913642
152.0,8.144099511827605,76.47916047491874,0.5969405519114663,31.13391193869512
153.0,8.026627782181578,74.31467264041004,0.5996421746019555,30.900486930392905
154.0,7.914483861840652,72.21611177000298,0.6022152380356678,30.681159052136216
155.0,7.8082405610050625,70.18137903732826,0.6046576363912441,30.47597307266576
156.0,7.708567563177213,68.20845619844701,0.6069680845092875,30.284902386821603
157.0,7.616255514509038,66.29538111994694,0.6091462079618141,30.10784391797161
158.0,7.532219267633562,64.44025322564733,0.611192342140039,29.944636926177203
159.0,7.45751906887844,62.641238233935454,0.6131074810321714,29.79506860576964
160.0,7.393376885980091,60.89655836850093,0.6148932134925206,29.658880955077972
161.0,7.341192124326949,59.20449355567619,0.6165516270634893,29.535779568100025
162.0,7.302559192153484,57.5633795680277,0.6180852357259976,29.425440274522426
163.0,7.279286774581069,55.971607446072795,0.6194969125332045,29.327515107717783
164.0,7.2734173977370284,54.427619963023304,0.620789830597025,29.24163758646425
165.0,7.28724980105559,52.92991253338672,0.6219674021283933,29.167427740982156
166.0,7.323359411963688,51.47703128062102,0.6230332270078055,29.10449634843855
167.0,7.3846237240516395,50.06757289356621,0.6239910463976188,29.052448626040867
168.0,7.474234436374894,48.700181108962,0.6248447002077135,29.010887524295292
169.0,7.595729277146829,47.37354865942841,0.6255980915803521,28.979416386882736
170.0,7.753010973363221,46.08641576552112,0.6262551544729763,28.957641312852626
171.0,7.9503687825716565,44.83756968095201,0.626819825901664,28.94517311064457
172.0,8.192499201824479,43.6258443979946,0.6272960220805299,28.941628917519562
173.0,8.484527173970202,42.45012070709012,0.627687618038034,28.946633531504766
174.0,8.832020044205866,41.30932580130374,0.6279984307180244,28.959820445103343
175.0,9.241004102196197,40.20243359370926,0.6282322045774456,28.980832706402964
176.0,9.717977154161327,39.1284651847286,0.6283925999037859,29.009323554586672
177.0,10.26992087032525,38.08648971247005,0.6284831832911066,29.044956895480574
178.0,10.904302155572505,37.07562477711075,0.6285074205481419,29.087407587341797
179.0,11.629071115929715,36.095037259450045,0.6284686711260549,29.136361629620094
180.0,12.452652448551973,35.143944452087666,0.6283701837490664,29.19151627696434
181.0,13.383936049583115,34.22161573683514,0.628215093604393,29.25258003462977
182.0,14.432249700640146,33.32737375390774,0.628006421116865,29.319272540450626
183.0,15.607323856353855,32.4605960210112,0.6277470713774164,29.391324417201506
184.0,16.919243744819678,31.620716824298533,0.6274398340938392,29.46847710217311
185.0,18.378397490067385,30.807229669659726,0.627087384482352,29.550482609744336
186.0,19.995398695676297,30.019689211362962,0.6266922852026572,29.63710322230708
187.0,21.78099489829989,29.257713620443727,0.6262569884306776,29.728111187675427
188.0,23.74595507979206,28.520987257650805,0.6257838380522106,29.823288421061278
189.0,25.900948017839195,27.809263743953508,0.6252750724558074,29.92242616604813
190.0,28.256392291217068,27.122368844224763,0.6247328277369357,30.02532463306358
191.0,30.822279627848243,26.460203254891262,0.6241591411763111,30.13179262542935
192.0,33.60798645936564,25.82274646051138,0.623555954216622,30.241647217598477
193.0,36.62203809089854,25.210059293318334,0.6229251164300204,30.354713356977598
194.0,39.871886327313824,24.62228835675267,0.622268388731733,30.4708235368832
195.0,43.36363595166874,24.059669269837343,0.6215874471686035,30.589817427563283
196.0,47.10175169782693,23.52253072130659,0.6208838862820931,30.711541548475925
197.0,51.0887030861951,23.01129809810082,0.6201592225547031,30.83584893749555
198.0,55.32470964717134,22.526486241587225,0.6194149033466065,30.962598373249495
199.0,59.80748339084393,22.068745466601985,0.6186522921802671,31.09165555176562
200.0,64.53205116388474,21.638801997990864,0.617872701021276,31.22289039414112
201.0,69.48979434889097,21.23750688234469,0.61707736934989,31.356178735151268
202.0,74.66855620094657,20.865825778061634,0.6162674770574809,31.491401232872963
203.0,80.0525339205722,20.524839668597227,0.6154441485776151,31.628443009595916
204.0,85.62166928360246,20.215752488838447,0.6146084527698238,31.767193629996612
205.0,91.3516850959308,19.9398932102597,0.613761407274118,31.907546724617323
206.0,97.2138733521321,19.698718182637176,0.6129039810580551,32.0493997585885
207.0,103.17504558623344,19.493813458684137,0.6120370971172572,32.19265379022482
208.0,109.19753879532928,19.326893205299406,0.611161635640965,32.337213195036554
209.0,115.23939689160343,19.199803887068605,0.6102784358398372,32.48298549690953
210.0,121.2546429304215,19.114523105994458,0.6093882986010274,32.62988113542803
211.0,127.19367696919925,19.073158649722856,0.6084919887362276,32.77781326653714
212.0,133.0038313921896,19.077946486728937,0.6075902371464215,32.92669757117473
213.0,138.63008370258402,19.131247535122814,0.6066837428798832,33.07645207355687
214.0,144.01593146625697,19.235543027484926,0.6057731750860661,33.22699696884616
215.0,149.10442798267513,19.393428280388196,0.6048591748682893,33.37825445992076
216.0,153.83936891205232,19.607604655516703,0.6039423570383455,33.53014860295342
217.0,158.16660923469507,19.88086948935447,0.6030233117763046,33.68260516150413
218.0,162.035476645187,20.216103750231003,0.6021026061989108,33.83555146882675
219.0,165.40023235217623,20.61625716935846,0.6011807858400438,33.98891629808893
220.0,168.22147756916326,21.084329945536126,0.6002583760864152,34.14262973744671
221.0,170.46757120442527,21.623353464808382,0.599335883416538,34.296623080727265
222.0,172.11579421827065,22.236365743677663,0.5984137966251818,34.450828719922924
223.0,173.15321416332404,22.926382423901476,0.5974925880101317,34.605180041897874
224.0,173.577054580312,23.696366482684116,0.5965727146640933,34.75961132290055
225.0,173.39491361093692,24.549194569487423,0.5956546192964683,34.914057653125184
226.0,172.62441717289101,25.487613682073743,0.5947387311074496,35.06845485754659
227.0,171.2922873180113,26.514193493683038,0.5938254666869681,35.222739417713605
228.0,169.43273828307017,27.631289059963123,0.592915231351342,35.37684837721117
229.0,167.08615679670666,28.840974251736252,0.5920084193612655,35.53071930286496
230.0,164.29702835295717,30.144991271908918,0.5911054148973653,35.684290212605575
231.0,161.11195625073836,31.544685217116765,0.5902065927030047,35.83749952049593
232.0,157.5777438881011,33.04093630509157,0.5893123187413114,35.99028598360118
233.0,153.73970293120578,34.634090196674585,0.588422950806459,36.14258865370954
234.0,149.6403042576236,36.323884554966874,0.5875388390812588,36.294346833633895
235.0,145.31823429975228,38.10937351002342,0.5866603266571433,36.445500037327186
236.0,140.80788272420037,39.98884423851847,0.5857877500180543,36.595987953694305
237.0,136.13921662657717,41.95974661503866,0.5849214394903056,36.745750413938396
238.0,131.33800567446096,44.018612817009945,0.5840617196597898,36.894727362298134
239.0,126.42629743974494,46.16098218119038,0.5832089097509878,37.04285883007526
240.0,121.42308039811684,48.38133456826279,0.5823633240093006,37.1900849122935
241.0,116.3449780594798,50.67301517197671,0.5815252719777242,37.33634574831839
242.0,111.20701039470919,53.02819895273507,0.5806950588835662,37.48158150401962
243.0,106.02323099945733,55.437846101134056,0.5798729858958966,37.625732358125454
244.0,100.8073002278518,57.89166987326171,0.5790593503728556,37.768738490535135
245.0,95.57296916611034,60.37811038920915,0.5782544460693673,37.91054007270989
246.0,90.3344363353243,62.884360199840664,0.5774585633984919,38.05107726130744
247.0,85.10658909269263,65.39640152083452,0.5766719896384243,38.190290194102325
248.0,79.90515216367768,67.89906434003144,0.5758950091111178,38.328118988052964
249.0,74.74675733445031,70.37610893319498,0.5751279033380607,38.46450373917478
250.0,69.64894277505044,72.81033595258376,0.5743709511555471,38.5993845243293
