Time,J,A,S,tau
0,100,100,0.450649371,14.49275362
1,91.32908813,95.81798133,0.438984688,14.13271141
2,83.35750524,91.85156887,0.426374648,13.75152876
3,76.04826925,88.08883356,0.412821097,13.3514695
4,69.34548761,84.51745604,0.398323717,12.93526522
5,63.1850513,81.12595448,0.382886904,12.5064116
6,57.50200506,77.90362545,0.366521428,12.06929038
7,52.23634673,74.84048031,0.349247045,11.62927682
8,47.33693992,71.92719163,0.33109625,11.19282429
9,42.76358486,69.15505071,0.312119281,10.76750313
10,38.48707518,66.51592054,0.292390001,10.36194961
11,34.29823723,64.20045289,0.27732513,10.2528674
12,30.31728063,62.09182331,0.263180628,10.28124179
13,26.62339899,60.09886331,0.248001113,10.35833149
14,23.2287096,58.1969503,0.231807428,10.48812769
15,20.14048557,56.36547369,0.214692012,10.6740923
16,17.35893081,54.58931625,0.196825968,10.91891732
17,14.87678983,52.85899296,0.178457115,11.22432072
18,12.68049963,51.16984922,0.159896983,11.59090533
19,10.75192077,49.52075819,0.141497069,12.01811449
20,9.070059096,47.91278285,0.123618607,12.50427948
21,7.612597225,46.34802846,0.106600604,13.04675093
22,6.357089701,44.82879749,0.090731829,13.64209386
23,5.281750514,43.35705668,0.076230936,14.2863146
24,4.365944815,41.9341642,0.063236827,14.97509106
25,3.59047063,40.56078504,0.051809149,15.70398298
26,2.937610244,39.23692656,0.04193612,16.46860671
27,2.391227136,37.96203459,0.033548472,17.26476832
28,1.936709811,36.73511437,0.026534877,18.0885547
29,1.56092259,35.5548495,0.020757378,18.93638784
30,1.252130218,34.41970662,0.016064866,19.80504907
31,0.999944228,33.32802099,0.01230434,20.69168055
32,0.795230825,32.27806253,0.00932884,21.5937714
33,0.630037428,31.26808384,0.007003022,22.50913393
34,0.497495652,30.29635486,0.005206175,23.43587441
35,0.391730255,29.36118586,0.003833569,24.37236191
36,0.307763116,28.46094217,0.002796448,25.31719724
37,0.241414723,27.59405271,0.002021102,26.26918336
38,0.189209069,26.75901437,0.00144744,27.22729823
39,0.14828211,25.95439358,0.001027287,28.19067037
40,0.11629484,25.17882581,0.000722617,29.15855712
41,0.091353393,24.43101401,0.00050384,30.13032583
42,0.071936738,23.70972624,0.000348248,31.10543737
43,0.056833002,23.0137929,0.000238636,32.0834321
44,0.045083496,22.34210377,0.000162136,33.06391785
45,0.035934865,21.69360503,0.000109236,34.04655963
46,0.028798566,21.06729625,7.30E-05,35.03107094
47,0.023217273,20.46222754,4.84E-05,36.01720642
48,0.018837149,19.87749675,3.18E-05,37.00475561
49,0.015385404,19.31224683,2.07E-05,37.99353765
50,0.012652297,18.76566336,1.34E-05,38.98339688
51,0.010476803,18.23697219,8.62E-06,39.97419905
52,0.008735394,17.72543717,5.49E-06,40.96582815
53,0.007333262,17.23035812,3.47E-06,41.9581837
54,0.006197535,16.75106881,2.18E-06,42.95117854
55,0.005272088,16.28693514,1.36E-06,43.94473682
56,0.004513538,15.8373534,8.44E-07,44.93879245
57,0.003888233,15.4017486,5.19E-07,45.93328763
58,0.003369932,14.97957298,3.18E-07,46.92817176
59,0.002938101,14.57030452,1.93E-07,47.92340036
60,0.002576528,14.17344559,1.17E-07,48.91893424
61,0.0022724,13.78852168,7.02E-08,49.91473878
62,0.002015474,13.41508017,4.19E-08,50.91078329
63,0.001797563,13.0526892,2.49E-08,51.90704047
64,0.001612069,12.7009366,1.48E-08,52.90348594
65,0.001453637,12.3594289,8.70E-09,53.90009784
66,0.001317914,12.0277903,5.10E-09,54.89685652
67,0.001201353,11.70566189,2.98E-09,55.89374416
68,0.001100993,11.39270066,1.73E-09,56.89074458
69,0.001014421,11.08857879,1.00E-09,57.88784298
70,0.000939763,10.79298312,5.80E-10,58.88502573
71,0.000875288,10.50561388,3.35E-10,59.8822802
72,0.00081958,10.22618441,1.92E-10,60.87959458
73,0.000771558,9.954420604,1.11E-10,61.87695777
74,0.000730193,9.690059858,6.34E-11,62.87435919
75,0.000694736,9.432851078,3.64E-11,63.87178871
76,0.000664497,9.182553639,2.08E-11,64.86923651
77,0.000638924,8.938937176,1.19E-11,65.86669297
78,0.000617563,8.701781004,6.83E-12,66.86414855
79,0.000600025,8.470873589,3.90E-12,67.86159373
80,0.000586027,8.246012344,2.23E-12,68.85901884
81,0.000575321,8.027002982,1.27E-12,69.85641402
82,0.000567723,7.813659258,7.32E-13,70.85376904
83,0.000563076,7.605802444,4.21E-13,71.85107326
84,0.000561288,7.40326115,2.42E-13,72.84831543
85,0.00056231,7.205870919,1.40E-13,73.84548359
86,0.000566129,7.013473906,8.12E-14,74.84256492
87,0.000572767,6.825918577,4.72E-14,75.83954558
88,0.000582293,6.643059467,2.76E-14,76.83641049
89,0.000594813,6.464756874,1.61E-14,77.83314317
90,0.000610484,6.290876632,9.51E-15,78.82972544
91,0.000629484,6.121289753,5.63E-15,79.82613721
92,0.000652051,5.955872351,3.35E-15,80.82235613
93,0.00067848,5.794505334,2.00E-15,81.81835723
94,0.000709108,5.63707419,1.20E-15,82.81411253
95,0.000744352,5.483468849,7.26E-16,83.80959051
96,0.000784683,5.333583401,4.41E-16,84.80475561
97,0.000830666,5.187316006,2.70E-16,85.7995675
98,0.000882945,5.044568642,1.66E-16,86.79398041
99,0.000942269,4.905246981,1.03E-16,87.78794211
100,0.001009499,4.769260214,6.43E-17,88.78139297
101,0.001085644,4.636520927,4.04E-17,89.77426464
102,0.001171849,4.506944921,2.56E-17,90.7664786
103,0.001269449,4.380451099,1.63E-17,91.75794446
104,0.001379977,4.256961331,1.05E-17,92.74855787
105,0.001505188,4.136400306,6.78E-18,93.73819811
106,0.001647125,4.018695455,4.43E-18,94.72672523
107,0.001808117,3.903776789,2.91E-18,95.71397654
108,0.001990872,3.791576828,1.93E-18,96.69976265
109,0.002198477,3.68203046,1.29E-18,97.68386253
110,0.002434499,3.575074866,8.71E-19,98.66601771
111,0.002703043,3.470649415,5.93E-19,99.6459254
112,0.003008831,3.368695569,4.07E-19,100.6232302
113,0.003357292,3.269156797,2.81E-19,101.5975143
114,0.003754665,3.171978491,1.96E-19,102.5682856
115,0.004208124,3.077107878,1.38E-19,103.5349637
116,0.004725896,2.984493949,9.83E-20,104.4968632
117,0.005317421,2.894087375,7.05E-20,105.4531734
118,0.00599351,2.805840439,5.11E-20,106.4029351
119,0.006766544,2.719706965,3.73E-20,107.3450123
120,0.007650673,2.635642253,2.75E-20,108.278059
121,0.008662061,2.553603011,2.05E-20,109.2004804
122,0.00981914,2.473547294,1.54E-20,110.1103877
123,0.011142882,2.395434444,1.17E-20,111.0055457
124,0.012657114,2.31922503,9.02E-21,111.8833122
125,0.014388856,2.244880797,7.01E-21,112.7405703
126,0.01636868,2.172364607,5.51E-21,113.5736505
127,0.018631098,2.10164039,4.39E-21,114.3782438
128,0.021214991,2.032673096,3.54E-21,115.1493038
129,0.024164014,1.965428644,2.90E-21,115.8809319
130,0.027527047,1.899873873,2.41E-21,116.5662398
131,0.031358655,1.835976504,2.04E-21,117.1971674
132,0.035719547,1.77370509,1.75E-21,117.7642182
133,0.040677027,1.713028979,1.54E-21,118.2560394
134,0.046305436,1.653918272,1.39E-21,118.6587046
135,0.052686558,1.596343786,1.29E-21,118.9544294
136,0.059909944,1.540277012,1.23E-21,119.1191868
137,0.068073212,1.485690085,1.23E-21,119.1180831
138,0.077282246,1.432555745,1.31E-21,118.89579
139,0.087651293,1.380847303,1.50E-21,118.354614
140,0.099302987,1.330538617,1.98E-21,117.2952539
141,0.112368062,1.281604055,3.49E-21,115.2052602
142,0.126984911,1.234018458,1.64E-20,109.9137496
143,0.143298207,1.187758038,0.0002753,30.09345001
144,0.16121333,1.143056536,0.015169312,17.8791727
145,0.180574063,1.100267627,0.037531691,14.61599355
146,0.201652579,1.059331381,0.05907133,12.94019292
147,0.224750314,1.020146623,0.078141084,11.92759955
148,0.25014187,0.982630916,0.094601843,11.2742948
149,0.278079881,0.946720506,0.10871346,10.84347379
150,0.308802591,0.912365815,0.120824174,10.56219384
151,0.342539308,0.879527698,0.131272263,10.38716373
152,0.379513931,0.84817469,0.140356009,10.29071136
153,0.41994716,0.818280973,0.148327801,10.25416932
154,0.464057681,0.789825038,0.155396851,10.26442498
155,0.512061435,0.762790252,0.161734702,10.31197221
156,0.564172509,0.73716398,0.167481028,10.38975507
157,0.620605284,0.712935397,0.172749202,10.49242855
158,0.681575062,0.690094785,0.177630897,10.615888
159,0.747298597,0.668633031,0.182200187,10.75693806
160,0.81799491,0.648541169,0.186516794,10.91306939
161,0.893885779,0.629810068,0.190628771,11.08229715
162,0.975197328,0.612429978,0.194574751,11.26304063
163,1.062159673,0.596390405,0.198385684,11.45403713
164,1.155008782,0.5816797,0.202086336,11.65427312
165,1.253987086,0.56828484,0.205696454,11.86293328
166,1.359342864,0.556191316,0.209231703,12.07936146
167,1.471331008,0.545382911,0.212704477,12.30302791
168,1.590212343,0.535841592,0.216124504,12.5335051
169,1.716253419,0.527547357,0.219499367,12.77044775
170,1.849719958,0.520478547,0.222834912,13.01357733
171,1.990880107,0.514611337,0.226135579,13.26266895
172,2.139997808,0.509919993,0.22940469,13.51754099
173,2.297330665,0.506376838,0.232644673,13.77804608
174,2.463122895,0.503952437,0.235857237,14.04406504
175,2.637593875,0.50261588,0.239043497,14.31550204
176,2.820950591,0.502333871,0.242204118,14.5922783
177,3.013352537,0.503072793,0.245339423,14.8743296
178,3.214927299,0.504796839,0.24844942,15.1616037
179,3.425768478,0.507468715,0.251533917,15.45405628
180,3.645894184,0.511051176,0.254592547,15.75165119
181,3.875286502,0.515504623,0.257624801,16.05435721
182,4.113856422,0.520789452,0.260630083,16.36214763
183,4.361437564,0.526865355,0.263607716,16.67499964
184,4.617813718,0.533690482,0.266556967,16.99289269
185,4.882672164,0.541223738,0.269477069,17.31580921
186,5.155639246,0.549422404,0.272367219,17.64373352
187,5.436271033,0.558243526,0.275226597,17.97665187
188,5.724032853,0.567644383,0.27805437,18.31455308
189,6.018342212,0.577580588,0.280849684,18.65742781
190,6.318535739,0.58800841,0.283611683,19.0052696
191,6.62389274,0.598882971,0.286339493,19.35807523
192,6.933647156,0.610158584,0.289032228,19.71584461
193,7.246968276,0.621789812,0.291688986,20.07858266
194,7.563000038,0.633729375,0.294308839,20.44629915
195,7.880846841,0.645929803,0.29689084,20.81900957
196,8.199585982,0.658342608,0.299434003,21.19673744
197,8.518287575,0.670917648,0.301937306,21.57951358
198,8.836002807,0.683604388,0.304399685,21.96737877
199,9.151792686,0.696350159,0.306820016,22.36038506
200,9.464723035,0.709101107,0.309197123,22.75859542
201,9.773875212,0.721801894,0.311529761,23.16208822
202,10.07835996,0.734394973,0.31381661,23.5709561
203,10.37731276,0.746821449,0.316056279,23.98530812
204,10.66991461,0.759020038,0.318247283,24.40527334
205,10.95538557,0.770927746,0.320388062,24.83099831
206,11.23299796,0.782479478,0.322476961,25.26265237
207,11.50208128,0.793608121,0.324512239,25.70042689
208,11.7620179,0.804244997,0.326492075,26.14453462
209,12.0122622,0.814319328,0.328414564,26.59521471
210,12.25232635,0.823759599,0.330277736,27.05272765
211,12.48179433,0.832492759,0.332079567,27.51735824
212,12.70032196,0.840445664,0.333817991,27.98941449
213,12.90762679,0.847545638,0.335490927,28.46922313
214,13.10350778,0.853720196,0.337096304,28.95713158
215,13.28782444,0.85889999,0.338632087,29.45350091
216,13.46050658,0.863017512,0.340096307,29.95870404
217,13.62155454,0.866010127,0.341487113,30.4731205
218,13.77102181,0.867820953,0.342802783,30.99713046
219,13.90903253,0.868398433,0.344041789,31.53110959
220,14.03575957,0.867701168,0.345202829,32.07542031
221,14.15142476,0.865695726,0.346284831,32.63040919
222,14.25630898,0.862359505,0.347287072,33.19639196
223,14.3507137,0.857682913,0.34820907,33.7736588
224,14.43500542,0.85166645,0.349050812,34.36244805
225,14.50955419,0.84432434,0.349812494,34.96297011
226,14.57477348,0.835686413,0.350494851,35.57536319
227,14.63108941,0.825790916,0.351098844,36.19973184
228,14.67894044,0.81469481,0.351625898,36.83610713
229,14.7187738,0.802464849,0.352077721,37.48447174
230,14.75104751,0.789177849,0.352456395,38.14474141
231,14.77621356,0.774922263,0.352764264,38.8167785
232,14.79472257,0.759794029,0.353003936,39.50038937
233,14.80701763,0.743895619,0.353178247,40.19532611
234,14.8135301,0.727334695,0.353290202,40.90129373
235,14.81467903,0.710221595,0.35334294,41.61795547
236,14.81086745,0.692667792,0.353339694,42.34493565
237,14.80248014,0.674784551,0.353283749,43.08182661
238,14.78988412,0.656680969,0.353178403,43.82819527
239,14.77342623,0.638462797,0.353026938,44.58358724
240,14.753432,0.620231167,0.352832586,45.34753218
241,14.73020734,0.602081576,0.352598504,46.11954936
242,14.70403719,0.584103515,0.35232776,46.89915129
243,14.67518473,0.566379583,0.352023305,47.68584761
244,14.64389415,0.548984932,0.351687969,48.47914837
245,14.61039028,0.531987719,0.351324454,49.27856639
246,14.57487753,0.515449133,0.350935323,50.08361974
247,14.53754339,0.499422561,0.350522999,50.89383298
248,14.49855876,0.483954715,0.350089773,51.70873797
249,14.45807679,0.469086584,0.349637797,52.52787501
250,14.41623625,0.454852254,0.349169092,53.35079282
251,14.37316277,0.441279955,0.348685559,54.17704804
252,14.32896666,0.42839465,0.348188983,55.00620521
253,14.28374721,0.416215302,0.347681034,55.83783605
254,14.23759442,0.404756354,0.347163293,56.67151779
255,14.19058361,0.394032104,0.34663724,57.50683304
256,14.14278612,0.384049701,0.346104279,58.34336743
257,14.09425981,0.374819159,0.345565745,59.18070881
258,14.04505981,0.366343869,0.345022906,60.01844493
259,13.99523237,0.358629283,0.344476982,60.85616274
260,13.94481899,0.351678158,0.343929144,61.69344446
261,13.89385472,0.345495809,0.343380535,62.52986889
262,13.84237411,0.340083772,0.342832268,63.36500485
263,13.79040489,0.335448271,0.34228544,64.19841459
264,13.73797744,0.33159201,0.341741137,65.02964498
265,13.68511586,0.328523565,0.341200443,65.85823279
266,13.63185028,0.326248118,0.340664445,66.68369385
267,13.57820451,0.324778536,0.340134241,67.50552942
268,13.52421196,0.324124054,0.339610943,68.32321581
269,13.46990652,0.324298062,0.33909568,69.1362094
270,13.41532606,0.32531817,0.338589606,69.94393606
271,13.36051838,0.327201025,0.338093895,70.74579683
272,13.30553457,0.329970411,0.337609748,71.54115961
273,13.25044202,0.333648494,0.337138386,72.3293587
274,13.19531447,0.338263996,0.336681049,73.10969531
275,13.14024564,0.343845646,0.336238991,73.88143043
276,13.08534647,0.35042483,0.335813471,74.64378723
277,13.03074699,0.358036273,0.335405743,75.39594869
278,12.97660262,0.366716991,0.335017042,76.13705362
279,12.92309856,0.37650448,0.334648568,76.86619881
280,12.87045055,0.387438096,0.33430147,77.58243863
281,12.81891144,0.399558796,0.333976819,78.28478154
282,12.76877874,0.412905946,0.333675581,78.97219275
283,12.72039511,0.427518422,0.333398604,79.64359576
284,12.67415474,0.443434786,0.333146571,80.29787015
285,12.63051414,0.460689191,0.332919975,80.93385357
286,12.58999185,0.479312004,0.3327191,81.55034457
287,12.55317349,0.499329917,0.332543978,82.14610134
288,12.52072509,0.520762232,0.332394348,82.7198401
289,12.4933891,0.543619819,0.332269681,83.27024041
290,12.47198637,0.567908836,0.332169087,83.79593589
291,12.45743559,0.593619671,0.332091367,84.29551576
292,12.45072543,0.620737698,0.332034978,84.76751994
293,12.4529514,0.649230277,0.331998018,85.21042075
294,12.46527332,0.679056675,0.331978297,85.62262886
295,12.48894325,0.710159172,0.331973294,86.00245628
296,12.52528268,0.742465624,0.331980248,86.3481079
297,12.57566705,0.775891161,0.331996187,86.65765652
298,12.64152106,0.810334546,0.332017991,86.92898788
299,12.72429926,0.84567919,0.332042495,87.15977602
300,12.82545711,0.881795622,0.332066565,87.34742343
301,12.94643856,0.918537791,0.332087239,87.48897555
302,13.08864095,0.955745917,0.332101871,87.58103931
303,13.25338758,0.993246515,0.332108293,87.61967075
304,13.44189575,1.030852728,0.332105033,87.60022884
305,13.65523991,1.068364228,0.332091592,87.51715991
306,13.89432058,1.105566956,0.332068783,87.36374974
307,14.15983125,1.142232831,0.332039138,87.13179198
308,14.45222692,1.178118434,0.332007442,86.81114764
309,14.77168761,1.212962058,0.331981516,86.38906542
310,15.11809094,1.246478127,0.331973295,85.84923512
311,15.49100278,1.278350113,0.331999999,85.17072964
312,15.88964467,1.308216326,0.332086264,84.32602107
313,16.31288931,1.335650655,0.332266625,83.2785934
314,16.75924792,1.360131264,0.332589328,81.97919904
315,17.22686942,1.380999321,0.333120865,80.36120106
316,17.71352304,1.397404866,0.333951442,78.33464007
317,18.21655842,1.408268305,0.335197479,75.78269404
318,18.73276685,1.412324986,0.336991753,72.56997754
319,19.25804883,1.408431496,0.339436514,68.58891168
320,19.78680872,1.396355945,0.342489677,63.87739222
321,20.31151051,1.377862356,0.345832119,58.75635239
322,20.82341986,1.356998698,0.348920725,53.76443242
323,21.31474173,1.338872853,0.351287722,49.33889136
324,21.78039627,1.328147423,0.352743743,45.62574992
325,22.21828889,1.32849108,0.353319519,42.5656701
326,22.6286989,1.342731914,0.353134686,40.03264781
327,23.013532,1.373141087,0.352319587,37.9052424
328,23.37567682,1.421621586,0.350987457,36.08635371
329,23.71845821,1.489785956,0.349229644,34.50304111
330,24.04515213,1.578952238,0.347118209,33.10149032
331,24.3585421,1.690088824,0.344709929,31.84202634
332,24.66056363,1.823728834,0.342049888,30.69519848
333,24.95200781,1.979884188,0.339174303,29.63896311
334,25.23241672,2.15795433,0.336112603,28.656684
335,25.50008547,2.356665595,0.332888989,27.73571907
336,25.75227898,2.574035778,0.329523602,26.86638919
337,25.98557191,2.807371642,0.326033376,26.04123851
338,26.19625071,3.053282525,0.322432679,25.2545093
339,26.38078146,3.307697462,0.318733839,24.50172088
340,26.5362925,3.565814369,0.314947522,23.77937424
341,26.66102468,3.821968355,0.311083051,23.08471388
342,26.75458984,4.069549578,0.307148654,22.41555516
343,26.81713659,4.301897103,0.303151662,21.77014627
344,26.84665367,4.515101837,0.299098673,21.14706475
345,26.83693735,4.710290839,0.294995679,20.54513905
346,26.77880844,4.892617944,0.290848177,19.96338627
347,26.66233891,5.069122527,0.286661239,19.40096665
348,26.47856681,5.247005303,0.282439587,18.85714921
349,26.22073216,5.432322763,0.278187629,18.33128633
350,25.88509108,5.629013554,0.273909496,17.82279451
351,25.47125014,5.838307261,0.269609053,17.33114225
352,24.9818651,6.05872881,0.265289908,16.85584048
353,24.42188398,6.286594503,0.260955388,16.39643735
354,23.79750403,6.516882573,0.256608512,15.95251532
355,23.11517791,6.744159995,0.252251936,15.52369176
356,22.38095046,6.963308664,0.247887891,15.10962087
357,21.60023637,7.169887409,0.243518073,14.70999754
358,20.77790746,7.360214897,0.239143515,14.32456411
359,19.91835812,7.531487345,0.234764416,13.9531188
360,19.02552644,7.681959445,0.230379923,13.59552647
361,18.10316341,7.810876362,0.225987843,13.25173353
362,17.15521855,7.918214629,0.221584312,12.92178365
363,16.18620801,8.00437629,0.217163354,12.60583904
364,15.20149965,8.069865079,0.212716392,12.30420431
365,14.20744817,8.115029665,0.208231601,12.01735594
366,13.21132294,8.139945713,0.203693224,11.74597597
367,12.22104037,8.144452299,0.199080805,11.49098828
368,11.2447964,8.128282654,0.194368356,11.25360042
369,10.29068016,8.091222781,0.189523589,11.03534578
370,9.366317944,8.033256826,0.18450727,10.83812721
371,8.478574588,7.954686278,0.179272954,10.66425366
372,7.633318455,7.856209749,0.173767329,10.51646595
373,6.835270389,7.738949122,0.167931467,10.39794492
374,6.087931592,7.604425855,0.161703382,10.31229356
375,5.39360119,7.454497265,0.15502228,10.26348007
376,4.753437111,7.291272856,0.147834662,10.25573554
377,4.167550523,7.117023308,0.140102097,10.29340178
378,3.635120759,6.934090863,0.131810165,10.3807314
379,3.154541801,6.744803675,0.122977265,10.52165021
380,2.723587619,6.551397552,0.11366161,10.71950221
381,2.339535202,6.355947749,0.103964427,10.97680736
382,1.999345232,6.16031689,0.094027385,11.29507234
383,1.699779512,5.966116071,0.084024542,11.67466106
384,1.437515993,5.774687538,0.074148416,12.11477347
385,1.209239708,5.587102415,0.064593211,12.61350909
386,1.011708005,5.404174523,0.055537675,13.16801737
