Time,J,A,S,tau
0.0,100.0,100.0,0.5136232464330482,20.0
1.0,98.14184725612401,94.73541567527977,0.5185706809102469,20.148577132702595
2.0,96.37926332056395,89.81418222822462,0.5237623810031687,20.305581492232676
3.0,94.70683828222077,85.21298688433235,0.529188984415051,20.470752791638247
4.0,93.11876478391734,80.90752434474292,0.5348460776192846,20.643975918521463
5.0,91.60968185927703,76.87554897677485,0.5407295447879189,20.825135094054225
6.0,90.17464265108826,73.09668972879254,0.5468355462825822,21.014113946092543
7.0,88.80908841061893,69.55227586472598,0.5531604990847443,21.210795579293492
8.0,87.5088305081942,66.22518285160983,0.5597010596383424,21.415062641459087
9.0,86.27003881176418,63.09969571521074,0.5664541076915423,21.62679738899904
10.0,85.08924069710646,60.16137561359174,0.5734167320807407,21.845881748055756
11.0,83.96332982354448,57.39694847520445,0.5805862178874018,22.072197374058042
12.0,82.88958674813296,54.79420175395085,0.5879600348535854,22.305625708731107
13.0,81.86571262204431,52.34189154006321,0.595535827028874,22.546048034790292
14.0,80.88987465657165,50.029652538373924,0.6033114026133177,22.793345528440792
15.0,79.9607729998246,47.847937469134116,0.6112847278504576,23.047399309279797
16.0,79.07771128204293,45.78793030488146,0.6194539171254547,23.30809048881672
17.0,78.24068536201973,43.84148978836576,0.6278172269986971,23.575300215992737
18.0,77.4504806702083,42.00109248748157,0.6363730502356746,23.848909720656472
19.0,76.70877537504052,40.25978077878075,0.6451199104266364,24.12880035480508
20.0,76.01824303561081,38.611113458161554,0.6540564566838751,24.414853631725695
21.0,75.38266489463514,37.0491325992772,0.6631814617936814,24.706951262998093
22.0,74.80702312500847,35.56831625182486,0.6724938170309157,25.00497519550025
23.0,74.2975629313636,34.16354113190451,0.681992528044625,25.308807642165274
24.0,73.86184285646567,32.83005251501447,0.69167671253714,25.618331111920156
25.0,73.50875480011224,31.563435042398414,0.7015455978877317,25.93342843751244
26.0,73.2485169694126,30.359587178291154,0.7115985196550983,26.25398280197722
27.0,73.09279525142797,29.21458844046072,0.7183759643262878,26.50575245797726
28.0,73.05415612836681,28.124938259938634,0.7231681622563018,26.717018668769686
29.0,73.14624217024216,27.087403401450768,0.7278605196911014,26.92825766548182
30.0,73.38363728850516,26.098912604643107,0.7324537959829133,27.13939788646409
31.0,73.78155564676761,25.156602541566883,0.736948801686738,27.350366476734948
32.0,74.35561246461259,24.257805261974664,0.7413463936160987,27.56108928735009
33.0,75.12155667433109,23.40003484996913,0.7456474702474097,27.77149087441273
34.0,76.09498780682827,22.580975705124885,0.7498529672949334,27.981494497764956
35.0,77.29106556263984,21.798472510298616,0.7539638534575853,28.19102211922548
36.0,78.72422038032607,21.050521966668462,0.7579811263389704,28.399994400267158
37.0,80.40787285602063,20.335266412175866,0.7619058085409146,28.6083306990701
38.0,82.35416173001563,19.65098851236595,0.7657389440360213,28.815949070363914
39.0,84.57372950222506,18.99611302202689,0.7694815941856562,29.022766247295007
40.0,87.0754560663419,18.36920172258703,0.7731348349982663,29.228697653264575
41.0,89.86627175419679,17.76896179260692,0.7766997535391783,29.433657370003672
42.0,92.95108652489034,17.194240991411416,0.780177445153826,29.637558209930496
43.0,96.33260951036465,16.64406047804156,0.7835690087322423,29.840311564794124
44.0,100.01106372586854,16.117602763948252,0.7868755478172824,30.041827507209003
45.0,103.98465322058611,15.614228832455929,0.7900981636095157,30.242014849877858
46.0,108.24858391080426,15.133539458863167,0.7932379555760102,30.440780816057956
47.0,112.79627642118074,14.675326430313122,0.7962960165699472,30.63803152150748
48.0,117.61809138626523,14.23966914047941,0.7992734337649892,30.833671499061296
49.0,122.70216501253445,13.826908165428813,0.8021712855749461,31.02760402694071
50.0,128.03422240786503,13.437717904468695,0.8049906368462193,31.219730920930424
51.0,133.59740068505508,13.073136117223159,0.8077325400428564,31.409952553630564
52.0,139.3727114213969,12.734560046100336,0.8103980329751703,31.59816798689451
53.0,145.3387953690727,12.42382420108897,0.8129881362478576,31.784274808852295
54.0,151.4721402644108,12.143222594628444,0.8155038517383358,31.96816918067034
55.0,157.74722941119109,11.895518203160913,0.8179461621381918,32.14974589239885
56.0,164.136599457836,11.683988808085541,0.8203160284687511,32.32889830883986
57.0,170.61096748864983,11.512439431708845,0.8226143889350436,32.50551839947328
58.0,177.13928340200044,11.38521366739189,0.8248421576448856,32.67949675394554
59.0,183.68865783460373,11.307197077657168,0.8270002235481098,32.850722599953905
60.0,190.22426114567108,11.283813145726386,0.8290894489613718,33.0190838283628
61.0,196.7090247775462,11.321006607343707,0.8311106685093539,33.18446702595092
62.0,203.1032180631892,11.425205763481555,0.8330646880075557,33.34675751457263
63.0,209.3638822408405,11.603283844317803,0.8349522833849286,33.50583939798718
64.0,215.4442032077399,11.86250552733024,0.8367741995308884,33.66159561403271
65.0,221.29291709047203,12.210456732794308,0.8385311496073367,33.813908007141826
66.0,226.85391985621698,12.654968258012191,0.8402238138392365,33.962657394190316
67.0,232.06632868133772,13.204026376178193,0.8418528384757766,34.107723646334115
68.0,236.8651793117607,13.865672583655178,0.8434188349761985,34.24898578510283
69.0,241.1829230700117,14.647896431988945,0.8449223791536778,34.38632208663424
70.0,244.95180993738117,15.55852179781538,0.8463640103177512,34.51961019620924
71.0,248.10714554804068,16.6050879074814,0.8477442302994862,34.648727252600374
72.0,250.59114675985808,17.794729401876452,0.8490635026507994,34.773550025859876
73.0,252.35695518335015,19.13405456766352,0.8503222517918361,34.893955066144834
74.0,253.3721997402565,20.629026710426192,0.851520862404555,35.009818865652655
75.0,253.62175345820765,22.284845282133453,0.852659678393703,35.121018029027404
76.0,253.10894250302988,24.105834962978726,0.8537390022139516,35.22742945774433
77.0,251.8551053719562,26.095336382697624,0.8547590940227809,35.328930547437295
78.0,249.8974083405509,28.255595790641667,0.8557201706774498,35.425399407160505
79.0,247.2850570695079,30.587713078405304,0.8566224058367853,35.516715035383534
80.0,244.0753080284873,33.09150484653329,0.8574659286127324,35.60275760455207
81.0,240.32862178356882,35.76545636342117,0.8582508227155754,35.6834086732755
82.0,236.10457950475583,38.60663918845573,0.8589771259960095,35.75855144627514
83.0,231.45866422932835,41.61065887140605,0.8596448296993304,35.828071034040605
84.0,226.44023286193692,44.7716031535962,0.8602538777553258,35.89185472403855
85.0,221.09166112072504,48.0820026297733,0.8608041660747626,35.94979226114511
86.0,215.44849548998465,51.53279674728962,0.8612955418487537,36.00177613670787
87.0,209.54031321534535,55.11332479272263,0.8617278028502235,36.047701885600304
88.0,203.3920010403903,58.81131717262847,0.8621006966377428,36.087468393881885
89.0,197.02515347619214,62.61291512795374,0.8624139198282199,36.12097821869315
90.0,190.45939345811794,66.50270748165002,0.8626671175551179,36.14813789930446
91.0,183.7134756280615,70.46377901691638,0.8628598827391589,36.16885827661684
92.0,176.80614584879277,74.47776767704056,0.8629917553955831,36.183054817519576
93.0,169.75678300628707,78.5249111018555,0.8630622219437308,36.190647941311035
94.0,162.5858741035443,82.58406461542064,0.863070714520225,36.19156334679709
95.0,155.31539598333762,86.63266156893191,0.8630166102935901,36.18573233868279
96.0,147.96919460341954,90.6465698173789,0.8628992306422006,36.17309216105853
97.0,140.5734355150849,94.59981033307245,0.8627178405566523,36.153586323683925
98.0,133.15718027678918,98.46411159954864,0.8624716480901954,36.12716490387542
99.0,125.75313906339426,102.20827553931382,0.8621598034976348,36.0937848670423
100.0,118.39848731688092,105.79747630973084,0.8617813993306406,36.05341028997471
101.0,111.13584853208073,109.19242284379307,0.8613354690052398,36.006012743182545
102.0,104.01403796513885,112.3487590606217,0.8608209864453017,35.95157151444875
103.0,97.08836519488428,115.21692372985954,0.8602368660094432,35.89007382252636
104.0,90.42025015759255,117.74270187541357,0.8595819616223993,35.821515092892774
105.0,84.07567677312107,119.86890217909132,0.8588550665516369,35.74589913379366
106.0,78.12231590300527,121.53831523683276,0.858054912912207,35.66323833697261
107.0,72.62524996844627,122.69796689509634,0.8571801714843057,35.573553815329944
108.0,67.64164330466548,123.3043016019079,0.8562294516028001,35.47687551878768
109.0,63.21499206043334,123.32863680650509,0.855201301080528,35.373242323630336
110.0,59.36990216339336,122.7619466997289,0.8540942063495256,35.26270208785921
111.0,56.10830374537179,121.61805934780018,0.8529065921430268,35.14531169804416
112.0,53.40834764879634,119.93413880484489,0.8516368222210291,35.02113703068812
113.0,51.22611248179951,117.76834547209042,0.850283199643441,34.89025292936094
114.0,49.500204307353044,115.19469713782004,0.8488439675772534,34.752743066958644
115.0,48.158178673132575,112.29625062530049,0.8473173096637672,34.60869990271288
116.0,47.12390165440239,109.1575589231904,0.8457013512577448,34.45822446565962
117.0,46.324327889392166,105.85789237946975,0.8439941602595479,34.30142622562112
118.0,45.69463620751065,102.46629551713644,0.8421937488564198,34.138422823124394
119.0,45.181317474268845,99.03878453552912,0.8402980746690932,33.96933987517929
120.0,44.74298631323981,95.61789527179987,0.8383050430565759,33.79431066109
121.0,44.349644638284346,92.23376470565604,0.8362125086719533,33.61347587005867
122.0,43.98075691553839,88.90637067703,0.8340182782710118,33.426983239901354
123.0,43.623058217198526,85.64796814455521,0.8317201132202771,33.23498725291211
124.0,43.26840812010549,82.46542003805119,0.8293157325267488,33.03764877175457
125.0,42.91203255424608,79.36208258279984,0.8268028161280713,32.83513465093894
126.0,42.55125088693948,76.33916190077764,0.8241790076149156,32.62761745901571
127.0,42.18455826761399,73.39665687684412,0.8214419211105379,32.415275048706995
128.0,41.81112493030148,70.53393593684372,0.8185891424546315,32.19828973873922
129.0,41.43050461802798,67.74997852581176,0.8156182367338982,31.976849191127933
130.0,41.04243141774718,65.04376483368914,0.8125267423074861,31.751144169742773
131.0,40.64675752218273,62.41397018988615,0.8093122082973649,31.521369454845875
132.0,40.243500515952185,59.859538204282025,0.8059721522618319,31.287723848278247
133.0,39.83268844229721,57.37928610951889,0.8025041022644908,31.05040722533688
134.0,39.41461685603915,54.971902773926274,0.7989056135730856,30.809623703012445
135.0,38.98978623208118,52.636408512319875,0.7951742266280057,30.565578535391065
136.0,38.5588659893135,50.37155987310338,0.7913075235313682,30.318478474640905
137.0,38.12314001664733,48.17622664368521,0.7873031230717451,30.06853200386356
138.0,37.6842774513281,46.049253749126024,0.7831586772810105,29.815948107046776
139.0,37.24486919736951,43.9895299464307,0.7788718953481312,29.560936276254285
140.0,36.80846604130318,41.99591593455659,0.774440548220607,29.303705993663343
141.0,36.37994278194647,40.067290988839545,0.7698624777618941,29.0444663645357
142.0,35.96599173626281,38.20255939121612,0.7651356110856865,28.783425659426317
143.0,35.57537321858753,36.400596931645914,0.7602579720793993,28.520791020945758
144.0,35.219525354359845,34.66029243831498,0.7552276933141482,28.256768006029514
145.0,34.91298330845618,32.98053168552995,0.7500430281399658,27.99156025154321
146.0,34.6739011390296,31.36019846172189,0.744702365197222,27.725369084645976
147.0,34.52446030822057,29.798176592065257,0.7392042412395256,27.458393175420102
148.0,34.49111072038635,28.293341252429606,0.7335473556980439,27.190828202655606
149.0,34.6047098044395,26.84456716980273,0.7277305851529389,26.92286650590206
150.0,34.90028670978799,25.4507260542595,0.7217529970383343,26.654696797820762
151.0,35.41649605835376,24.110685822396587,0.7156138650514071,26.386503862917692
152.0,36.19469385161189,22.82331633766035,0.7093126844338241,26.118468271906952
153.0,37.277511354783876,21.587490658506685,0.7028491855153414,25.850766162447943
154.0,38.70705453525994,20.40209511913219,0.6962233502563405,25.583568977477782
155.0,40.52271573251513,19.266042531585548,0.6894354248322123,25.31704330262056
156.0,42.758636604150595,18.178293205775013,0.6824859360545124,25.05135065680904
157.0,45.44112203349171,17.13789084512963,0.675375703021281,24.786647387591664
158.0,48.58593779256955,16.144013416117907,0.668105851789079,24.523084536734526
159.0,52.19576559458109,15.196058697657659,0.6606778296314297,24.260807736380805
160.0,56.258597917067576,14.293784570113068,0.6530934111562339,23.99995725614709
161.0,60.745504367858906,13.437435995592885,0.6453547151359711,23.740667909279992
162.0,65.61032313508512,12.628019081433074,0.6374642103577941,23.483069147518076
163.0,70.7895856548682,11.867596968740273,0.6294247240486882,23.227285143682153
164.0,76.20361951325967,11.159680908839125,0.6212394479841528,22.973434937634742
165.0,81.75879314629272,10.509704616452884,0.6129119439597455,22.721632631818864
166.0,87.3511648502397,9.925509133617634,0.604446142983305,22.471987705548045
167.0,92.87135733192622,9.417848957450202,0.5958463467624059,22.22460535135871
168.0,98.21070299783787,9.000785090540203,0.5871172221964231,21.979586963089186
169.0,103.26790210851622,8.691888692836162,0.5782637946176955,21.737030715786375
170.0,107.95503188593673,8.512102900423544,0.5692914354401091,21.497032305075226
171.0,112.20127326272447,8.485165374189007,0.5602058458393993,21.25968585842156
172.0,115.95267411030832,8.63647002161685,0.5510130343741163,21.025085061240713
173.0,119.16720931991154,8.991342540658547,0.5417192880526691,20.793324546326378
174.0,121.80622326041362,9.572773939482007,0.5323311354583079,20.564501602480686
175.0,123.82550571104031,10.398770988820596,0.5228553005842791,20.33871827076182
176.0,125.17038168978512,11.47955749611981,0.5132986455884805,20.116083908062397
177.0,125.77867896729445,12.815010308945864,0.5036681013649342,19.896718390013387
178.0,125.59150323060265,14.39259094376129,0.49397058143569134,19.680755905773857
179.0,124.56901385516198,16.186115689902323,0.4842128778306936,19.468349663979332
180.0,122.70611752278134,18.155712587083762,0.4744015362841002,19.259677604300457
181.0,120.04245358554809,20.248979620539387,0.46454270551757,19.054949294292957
182.0,116.66430251728151,22.403436546373044,0.45464195740330027,18.854414265157047
183.0,112.69845872747979,24.550211657367424,0.44470407345909,18.65837198393191
184.0,108.30032008592055,26.61884489846234,0.43473279342744625,18.46718373918512
185.0,103.63898233228659,28.542964279808963,0.4247305220518745,18.281286687912306
186.0,98.88188608784776,30.26632877213504,0.41469799157964266,18.101210278717435
187.0,94.18108496714187,31.748276149335794,0.40463387790530003,17.92759534472951
188.0,89.66321010362016,32.96704709739037,0.39453437932940105,17.761215605403233
189.0,85.42477051469493,33.91939456853834,0.38439275429361375,17.603002275174926
190.0,81.53436494493691,34.61551693450081,0.3741988554513379,17.4540701204662
191.0,78.04016341886087,35.07032733925878,0.36393866281542786,17.315746399551166
192.0,74.98001460355914,35.29449189044039,0.3535939042114826,17.189598449509894
193.0,72.38843480069717,35.289423835714615,0.3431417852638625,17.077460788664485
194.0,70.2966470098666,35.04864544761637,0.3325549360145355,16.981458683288164
195.0,68.72557394713245,34.56467335676833,0.3218017092375641,16.904022926625647
196.0,67.6750942419732,33.83738205307029,0.3108469373405384,16.847895949563085
197.0,67.11599182911374,32.87906234939151,0.29965332827693414,16.8161136376153
198.0,66.98650192195426,31.71579826713697,0.2881835576440181,16.81197428186979
199.0,67.19520794621955,30.383602009416098,0.2764031877652557,16.83897586381762
200.0,67.62878641697904,28.92321477837872,0.2642843705119251,16.900726721403398
201.0,68.16239894484636,27.375014641710784,0.25181014741447383,17.00082569085152
202.0,68.67029691496774,25.775376587948227,0.23897891151751774,17.142719434919
203.0,69.03522405461086,24.154769410209205,0.2258086846564797,17.329541958098357
204.0,69.15560270775084,22.537387518529528,0.2123402023302176,17.563955566135295
205.0,68.95026397187803,20.94173926666104,0.1986384914610511,17.84800273755889
206.0,68.36095423638163,19.38175311833538,0.18479213825320512,18.18299107130851
207.0,67.35258092646376,17.868002274077018,0.17091016485397706,18.569422051573444
208.0,65.91247129131071,16.408725315832314,0.15711659332546296,19.00697651117677
209.0,64.04836446194892,15.010567920053987,0.14354346943397658,19.49454642449301
210.0,61.7856715440582,13.67901035093348,0.1303230138150372,20.030324556299423
211.0,59.1646486105384,12.418512682383664,0.11757995733635428,20.61192245739477
212.0,56.236860356610855,11.23252689351209,0.10542497480220152,21.23650896550794
213.0,53.06164970667156,10.12343643305844,0.09394990186170078,21.90095833479004
214.0,49.70286649863008,9.092482386538379,0.08322461226527197,22.601986598066983
215.0,46.225375358555674,8.139765958079037,0.07329612422212306,23.336272574562784
216.0,42.6923577637894,7.264288585293812,0.06418913322483899,24.100556372315456
217.0,39.16272680769298,6.464067076622326,0.055907981245572516,24.891715092208347
218.0,35.6893943588258,5.736281146284076,0.048439395840071335,25.70681386886486
219.0,32.317951065347486,5.077447783746915,0.041755695892255404,26.543139687762352
220.0,29.086084966181456,4.483589649899049,0.035817916603989905,27.398215707264303
221.0,26.023317860582726,3.95041545742587,0.030579166543032107,28.269806070109485
222.0,23.151306507155677,3.473456036895631,0.025987183408012374,29.155908801154563
223.0,20.484354677898597,3.04820354796967,0.021986996374924832,30.05474440726718
224.0,18.03017269670887,2.6702037024453777,0.01852272215287562,30.964739838215536
225.0,15.790773539180032,2.3351441743598245,0.015539339969037053,31.884510593553724
226.0,13.763403610404444,2.038908068392315,0.01298380640269234,32.812842210486366
227.0,11.941478781079834,1.7776149869057802,0.01080595583972693,33.748672188352415
228.0,10.315476635454973,1.547646005905743,0.008959094374689645,34.69107260553319
229.0,8.873748525664777,1.3456559020309524,0.007400344112559691,35.63923407892914
230.0,7.60321892264021,1.168573778280088,0.006090756120179681,36.592451034389384
231.0,6.490006105838472,1.0136001190625918,0.0049953459671768915,37.55010862179452
232.0,5.519938135598595,0.8781977108841766,0.004082997254121819,38.51167093604926
233.0,4.678948835788292,0.7600772434573091,0.0033262505370476683,39.476670629633716
234.0,3.9533981691138282,0.6571825500846603,0.0027010742401166886,40.444699873112974
235.0,3.3303123242435206,0.5676743378295447,0.0021865982571499134,41.41540237188756
236.0,2.7975289577385323,0.4899117509738804,0.0017648010553680189,42.388466462624855
237.0,2.3438151704623835,0.4224365550513796,0.0014202399747224872,43.36361912010115
238.0,1.9589170715665216,0.3639562617994552,0.001139759430933506,44.34062076144185
239.0,1.6335712240047326,0.31332808753804453,0.0009122148870619269,45.31926074916845
240.0,1.3594887390174517,0.2695440296176785,0.0007282181729305641,46.29935350061719
241.0,1.12931679851537,0.23171694922220443,0.0005799029459654866,47.28073512988493
242.0,0.9365843673497409,0.19906770671953256,0.00046071174507503855,48.26326054640146
243.0,0.7756360374132267,0.17091322487132934,0.0003652035101762547,49.24680094016405
244.0,0.6415627697665826,0.1466557844109636,0.00028888535621298604,50.23124160475857
245.0,0.5301282076413415,0.12577315648988863,0.00022806292695154413,51.216480051190864
246.0,0.43769785813925083,0.10780985322244424,0.0001797121297689606,52.20242436937576
247.0,0.36116976619221347,0.09236919453981754,0.00014136761562521592,53.188991799770335
248.0,0.2979090689590057,0.07910619705898192,0.00011102728627551288,54.17610748672778
