Time,J,A,S,tau
0.0,100.0,100.0,0.9887168834799123,9.00900900900901
1.0,99.68140130124267,98.55212174855482,0.9870814030587839,8.789109164298928
2.0,99.33599561264305,97.0681687704807,0.9852002198085451,8.547942980649673
3.0,98.96223326489226,95.55005783578383,0.9830552445390008,8.285620003881006
4.0,98.55811022791953,93.99825540498125,0.9806252413516144,8.001962470262333
5.0,98.12151411298522,92.41337588015553,0.9778876652622217,7.696792806342904
6.0,97.65023839272483,90.79612671872862,0.9748188549604203,7.369934502590442
7.0,97.14200991391117,89.14733664539942,0.9713942886336228,7.021213041348766
8.0,96.59448312751734,87.46795363521942,0.9693758940899211,6.89495350674039
9.0,96.00520373594956,85.75908918559716,0.9672638182661486,6.775788249355289
10.0,95.37167325046649,84.02195540096912,0.9650267199277661,6.659893346774463
11.0,94.69134269169288,82.25791804387465,0.9626596692868045,6.547161326756264
12.0,93.96162449788778,80.46844126043544,0.9601577865716531,6.437494029549799
13.0,93.17992556807988,78.6551529611964,0.9575162423950272,6.3308020581104625
14.0,92.34363833115688,76.8197854729235,0.9547303261242719,6.227003916407797
15.0,91.45020377816375,74.9642176728374,0.9517954240568683,6.126023860242672
16.0,90.49709489279697,73.09044161656396,0.9487071189861227,6.027793037510048
17.0,89.48189235349764,71.20057390088668,0.9454611283104245,5.932246680579607
18.0,88.40228548789109,69.29684974263256,0.9420534559938927,5.839326429651597
19.0,87.25613476649677,67.38160362486991,0.9384802674610394,5.748977193507553
20.0,86.04153027046009,65.45728953221696,0.9347381087017803,5.661150348789198
21.0,84.75680295340594,63.52643495453924,0.9308237029750098,5.5758002794171135
22.0,83.40070219550307,61.59168434182493,0.9267342373779738,5.4928884763480825
23.0,81.97230058152235,59.655733174942604,0.9224670828802023,5.412379562371671
24.0,80.47138084295732,57.721395087734706,0.9180201258356419,5.334246504616294
25.0,78.89815656122938,55.79152143394305,0.9133914366335079,5.258465854339636
26.0,77.25397660595783,53.86910588178732,0.9085795953959207,5.18502430388704
27.0,75.54082277872202,51.957200454457805,0.9035833790012915,5.113913409094629
28.0,73.76215785714551,50.05904487514276,0.8984019413218225,5.045135641414306
29.0,71.92258409406259,48.17803653079639,0.8930346286272867,4.978701456228314
30.0,70.02838749371055,46.31791048947806,0.8874810344859223,4.914633444227031
31.0,68.08738219930432,44.48276118643641,0.8817408160867929,4.852965102787709
32.0,66.10901619346829,42.67722413750524,0.8758136539820567,4.793743018657467
33.0,64.10425352311859,40.90666556212543,0.8696991278381447,4.737028216745205
34.0,62.085195163549336,39.17736724457633,0.8633965551901196,4.682897388886988
35.0,60.064472341191426,37.496633699325464,0.856904860024133,4.631443270128441
36.0,58.05449781112598,35.872953787261636,0.8502223857029559,4.582776442511182
37.0,56.06648899065883,34.31599016439042,0.8433467205585019,4.5370259493074805
38.0,54.10944205894586,32.83644221397611,0.836274503483449,4.494340141036746
39.0,52.1891602317546,31.44563554151776,0.829001234881998,4.454886826867722
40.0,50.30768863533666,30.154950217017817,0.8215211036664533,4.418853472120557
41.0,48.46321746388235,28.97497246113547,0.8138268315889006,4.386446739947693
42.0,46.650653776218526,27.914488041213193,0.8059095551617156,4.35789156158296
43.0,44.86281121752127,26.979428499441184,0.7977587586763516,4.3334296037548485
44.0,43.0921253551493,26.171961069370166,0.7893622765177774,4.31331713292738
45.0,41.332596758314544,25.489826028944922,0.7807063638278106,4.29782220083924
46.0,39.58098085386007,24.926292902931653,0.7717759039465798,4.287220867876734
47.0,37.83799191004582,24.47048077472116,0.7625546779005787,4.28179306404423
48.0,36.108323436841715,24.108300273269734,0.753025789175973,4.281817569017235
49.0,34.400160862475175,23.823644737907696,0.74317219760715,4.287566357217938
50.0,32.724127756098696,23.59972399106962,0.7329773904853764,4.299298338843348
51.0,31.092019429700436,23.42026035909908,0.7224261615889194,4.317252726266198
52.0,29.515613617048274,23.270393840274043,0.7115054821110169,4.3416421399258995
53.0,28.005723892107433,23.137242761138854,0.7002054406301891,4.37264558109062
54.0,26.571551170445886,23.010139559693762,0.6885202186240718,4.4104014514327385
55.0,25.220334903363394,22.8806130602734,0.6764490748251468,4.455000659853866
56.0,23.957255139774315,22.742194136456035,0.6639972517632927,4.506480346435915
57.0,22.78547568646813,22.59014492296694,0.6511767858874274,4.564818150191127
58.0,21.70629040991177,22.421169582956523,0.6380071546099084,4.629927295656092
59.0,20.71933923673597,22.23314059710253,0.6245156512153422,4.701653211767293
60.0,19.822900310130994,22.02489141913773,0.6107379905494508,4.7797669595878
61.0,19.01393854289234,21.79600074490005,0.5967177916802314,4.863967526722968
62.0,18.288435093947626,21.546663811510722,0.5825064978473392,4.953878824210016
63.0,17.641663261767718,21.277572654408203,0.5681629289302185,5.049048759236516
64.0,17.068170662756486,20.989846362217868,0.5537524202997393,5.148950635686595
65.0,16.562133085112066,20.68494471510588,0.5393458709032392,5.25298474495519
66.0,16.117470042610094,20.36461632560735,0.5250186137792192,5.360480894104802
67.0,15.727999458467924,20.030848861912766,0.5108491896694288,5.470701707765737
68.0,15.387577755689986,19.68582443914874,0.4969180782318498,5.582846659891641
69.0,15.090223883583121,19.331878603017586,0.48330644478462137,5.696056797348129
70.0,14.83022626424196,18.971461793127624,0.4700949567799732,5.809420139178767
71.0,14.602231114193824,18.607103563844234,0.4573627171376572,5.921977761779625
72.0,14.4013117159528,18.24137953790915,0.44518635184799876,6.032730609295588
73.0,14.22301854631159,17.87688146623935,0.4336392777003725,6.140647098206177
74.0,14.063410770233816,17.516190802375068,0.42279116344526796,6.2446716128917075
75.0,13.919070171624051,17.16185613869792,0.41270758497846816,6.343734012102064
76.0,13.78708698249301,16.81637772405862,0.403449869599811,6.436760274442662
77.0,13.665088321704147,16.48218239557214,0.3950750719435427,6.522684425690642
78.0,13.551156278325932,16.16162638905789,0.3876361073051724,6.600462038825393
79.0,13.443807966440277,15.856985025260173,0.3811819743707843,6.669084969671607
80.0,13.34196014189224,15.570447956453036,0.37575796613941126,6.727598290718317
81.0,13.244871432944928,15.304121182224737,0.3714059461948156,6.775117041634138
82.0,13.152102391600486,15.06002740922348,0.36816445067014314,6.810845841401133
83.0,13.06345469184819,14.84011274775205,0.36606867796078335,6.834100730391318
84.0,12.978891673228352,14.646257671599415,0.3651503827650435,6.8443288399885605
85.0,12.8985032532627,14.480278709960697,0.3654374159424331,6.841130018661595
86.0,12.822457157435137,14.343933492905432,0.366953169752398,6.824271893967684
87.0,12.750967421766164,14.238923195244476,0.3697154099499547,6.793714165906528
88.0,12.684177251499635,14.166903576933707,0.37373506048510946,6.749622152985485
89.0,12.622138229180313,14.129477926098758,0.37901482060902203,6.6923713420831765
90.0,12.564776393630236,14.128190381305691,0.3855475618946175,6.622551573251416
91.0,12.511843812121926,14.164516023595512,0.39331421485360923,6.540970575786877
92.0,12.462816113862143,14.239841793384148,0.4022821962853761,6.448639728877449
93.0,12.416880526517316,14.35543625772424,0.41240427624211645,6.3467516459858135
94.0,12.372912232755578,14.512418017167592,0.4236175613796847,6.2366571258383585
95.0,12.329379274539916,14.711694430738184,0.4358428760865249,6.119833858915095
96.0,12.284356760061323,14.953904051199707,0.44898544296022047,5.9978463401009705
97.0,12.23550551764476,15.23933478354481,0.4629362065420596,5.8723047925679905
98.0,12.180088132144917,15.567830530745823,0.47757406085045845,5.744822905994872
99.0,12.11501528250372,15.938685524166381,0.4927688596158035,5.616976932060719
100.0,12.036929907658797,16.350530962698844,0.5083850351926841,5.490268199817658
101.0,11.942334107329232,16.801220871983286,0.5242855840547048,5.366090788002942
102.0,11.827759724208533,17.28772748702767,0.5403361379242008,5.245705605250513
103.0,11.68997852116282,17.806059115066372,0.5564088400446061,5.130221520623265
104.0,11.526241763437016,18.35121409897447,0.5723857810067173,5.020583554562477
105.0,11.334528126272302,18.9171897087735,0.5881617760752803,4.917568018918302
106.0,11.113766304447747,19.497065315594938,0.603646115649633,4.821786090239282
107.0,10.864013781343568,20.083154324999562,0.618763855032525,4.733688467523936
108.0,10.586550242907808,20.6672407659948,0.6334560392214054,4.653576964074671
109.0,10.2838700321545,21.240882525216502,0.6476792827749698,4.581618116204166
110.0,9.959561305678573,21.795764248160783,0.6614047541173954,4.517858693754642
111.0,9.61808052173414,22.324068623515924,0.6746167203691094,4.462242099012595
112.0,9.264447694920245,22.818829447832417,0.6873108056698245,4.414624877184079
113.0,8.903901201173632,23.274229540014908,0.699492104999248,4.374792730787826
114.0,8.541556114357656,23.685813244750467,0.7111732753802145,4.342475592252792
115.0,8.182106913378268,24.05059486344964,0.7223727014485991,4.317361453560176
116.0,7.829604551605659,24.36705910059024,0.7331128063166891,4.299108773980785
117.0,7.487322339210569,24.63506396258429,0.7434185542105229,4.28735738341736
118.0,7.157710540910998,24.85566763751971,0.7533161698287791,4.281737876774717
119.0,6.842438947326902,25.030908213476742,0.7628320784103891,4.281879586564238
120.0,6.542462043433653,25.163559052359805,0.7719920874072717,4.287416946609737
121.0,6.258106575366422,25.256896402587547,0.7808207194722865,4.297995101428735
122.0,5.9892889291110825,25.314479971635162,0.7893407715787732,4.31327399272487
123.0,5.735590116477901,25.33997791468315,0.7975730691348921,4.332931040575244
124.0,5.496356711251746,25.3370249662635,0.8055362730671431,4.356663740092598
125.0,5.270830199909365,25.309117161026244,0.8132467873817764,4.384191579779976
126.0,5.058212335492243,25.25954785202651,0.8207188680003858,4.415256171926904
127.0,4.857707139691846,25.19137031761958,0.8279647306659985,4.449621436003577
128.0,4.668556726562992,25.1073748269306,0.8349946655723912,4.487073900693454
129.0,4.4900776657184736,25.010087454329895,0.841817201868525,4.527422387091765
130.0,4.321662617945795,24.901787340902395,0.8484393602635689,4.57049655132559
131.0,4.162779830920192,24.78452294062187,0.8548668528961322,4.616145899778498
132.0,4.012972698497199,24.660128523112785,0.8611042686850632,4.664239041469019
133.0,3.8718573760301496,24.530246948791458,0.8671552694986692,4.714662424575573
134.0,3.739110596736998,24.3963538735529,0.8730227963681668,4.767318753719711
135.0,3.614458523454952,24.259782344386938,0.8787092495648562,4.8221251221754375
136.0,3.4976765449083653,24.121729137103998,0.8842166109917029,4.879013167588877
137.0,3.3885742426750336,23.98328030902042,0.8895465973473525,4.937926459454535
138.0,3.2869917752314377,23.8454293242853,0.8947007859414217,4.998819142789896
139.0,3.192798889717477,23.70907015191358,0.8996806973308683,5.061656694486155
140.0,3.105879391378132,23.575036615842848,0.9044878655412375,5.126411471519516
141.0,3.026147414680976,23.44407704309821,0.9091239594325727,5.193065956651129
142.0,2.9535229842811157,23.31689773758895,0.9135907320709944,5.2616072446613735
143.0,2.887953515235484,23.194134170368205,0.9178901832456502,5.33203060816367
144.0,2.829390573671686,23.076389293617332,0.9220244320891617,5.40433470659598
145.0,2.777817366919787,22.964206735360417,0.9259959168285422,5.478524874179904
146.0,2.7332299038987182,22.858108625342098,0.9298072105582517,5.554608883461554
147.0,2.6956409595285153,22.75856640317217,0.933461167937377,5.632599330408974
148.0,2.6651005926346025,22.666033947317818,0.9369608402356645,5.712511515777692
149.0,2.6416653627079865,22.58092903495071,0.9403094720897214,5.794363733277294
150.0,2.625436345785983,22.503652101261007,0.9435105139907426,5.878177007993541
151.0,2.6165343991766092,22.434578858186043,0.946567578471831,5.963974863376661
152.0,2.615128349126154,22.374073649602202,0.9494844420647932,6.051783217943563
153.0,2.6214137814710274,22.32248399137814,0.9522649995335877,6.1416302656074
154.0,2.635628948925545,22.28014934239611,0.9549132550905693,6.233546449099665
155.0,2.6580641355511676,22.247402873946967,0.9574333113253393,6.327564862096682
156.0,2.6890542160266953,22.22457429005962,0.9598293290685413,6.423721148187305
157.0,2.7289878155031593,22.21199372253608,0.962105518022851,6.522053731500026
158.0,2.778310558943266,22.209994205120044,0.9642661126705055,6.622604320683987
159.0,2.8375296306645934,22.21891492171057,0.9663153542435872,6.72541828274176
160.0,2.907216907017639,22.239103966919963,0.9682574727642977,6.830545165056862
161.0,2.988013043021073,22.270920906655984,0.9700966712207627,6.938039347637045
162.0,3.0806333182270547,22.314739464837047,0.9718371112359041,7.047960903998277
163.0,3.1858687099541023,22.370949385591576,0.973482896632458,7.160376525057733
164.0,3.3045917493947057,22.4399585414842,0.9750380631368721,7.275360686977508
165.0,3.437759388798648,22.52219439523625,0.9765065667926108,7.392996989847186
166.0,3.586416294196302,22.61810506177403,0.9778922742671837,7.513379741964856
167.0,3.751697776525392,22.72815983275059,0.9791989544146049,7.63661581024059
168.0,3.9348323538789733,22.852849047448796,0.9804302710508038,7.76282677351473
169.0,4.137143917862007,22.992683191199124,0.9815897768808426,7.892151418155182
170.0,4.360053539419851,23.14819104899261,0.9826809085130195,8.024748618148044
171.0,4.605080923569683,23.319916785157236,0.983706982493355,8.160800643919698
172.0,4.8738456652467015,23.50841570336234,0.9846711922943301,8.300516944828237
173.0,5.168068466358131,23.714248495169663,0.985576606194083,8.444138452509035
174.0,5.489572696792012,23.937973702556068,0.9864261659388845,8.591942481222206
175.0,5.840285922303879,24.180138122194556,0.9872226861953847,8.744248163371806
176.0,6.222242597028079,24.44126493481823,0.9879688548474839,8.90142249908734
177.0,6.637587970085041,24.721839245271635,0.9886672339078146,9.063887017644486
178.0,7.088583607599505,25.022290768840513,0.9893202610746809,9.232125000968638
179.0,7.577614960900381,25.342973447538906,0.9899302519195332,9.406689193559192
180.0,8.107201309539704,25.684141840322535,0.9904994026921803,9.588209863597374
181.0,8.680008253528225,26.045924248120528,0.9910297937403669,9.777403006962293
182.0,9.298862685215173,26.428292701441862,0.9915233935488301,9.975078395071229
183.0,9.966769811706605,26.831030175674798,0.9919820634095046,10.182147058645217
184.0,10.686931357864466,27.253695690276103,0.9924075627426678,10.399627681939373
185.0,11.46276372166526,27.695588111758763,0.9928015550837779,10.628651307713719
186.0,12.297912730670932,28.15571076397687,0.993165614665604,10.870463286118516
187.0,13.196263077527986,28.632738668980252,0.9935012337905191,11.126421717559722
188.0,14.16193817804949,29.12499084984843,0.9938098307571,11.39799139433514
189.0,15.199285757374449,29.63041089061169,0.9940927583062283,11.686732175025597
190.0,16.312844126693292,30.146559162245737,0.9943513124687413,11.994280874567835
191.0,17.507284057297234,30.670620154439625,0.9945867416227846,12.322325981165406
192.0,18.78732163078783,31.19942811875493,0.9948002555026753,12.672574910088178
193.0,20.15759881423304,31.72951340029904,0.9949930338364642,13.046714074296178
194.0,21.62253083803431,32.257170372712686,0.995166234236308,13.446362771478594
195.0,23.186122071476508,32.77854649387231,0.995320998945796,13.873022686870952
196.0,24.85175789049937,33.28974886316918,0.9954584595849599,14.328026389825165
197.0,26.621978553028875,33.78696283070971,0.9955797417027966,14.812485063212339
198.0,28.498231187029642,34.26658361997128,0.9956859645536043,15.327239518867716
199.0,30.480703537441755,34.725324007734024,0.99577824000005,15.872834803479618
200.0,32.56814464690587,35.16031698847078,0.9958576705394971,16.44949298061896
201.0,34.757626834341984,35.56924052654589,0.9959253432559991,17.057080723774693
202.0,37.04463841591618,35.95031982723665,0.9959823218529532,17.695150305516627
203.0,39.423001479586446,36.30238292554598,0.9960296408269506,18.36293754328277
204.0,41.88495623263563,36.624855761894835,0.9960682973340648,19.059395670833624
205.0,44.42130503862366,36.91773164424559,0.9960992417447354,19.783237904885315
206.0,47.02166943545295,37.181496010039325,0.9961233731294307,20.53299246712119
207.0,49.674709420679974,37.417069745995484,0.9961415321929207,21.307047259828433
208.0,52.3684271433657,37.62572076287199,0.9961544977513958,22.103702787069103
209.0,55.0904652866689,37.80898012632558,0.9961629840996407,22.921218884690898
210.0,57.82840412009371,37.9685602834031,0.9961676400904844,23.757856430735938
211.0,60.5700409041183,38.10628050035877,0.9961690496240039,24.61191249905149
212.0,63.30363674651431,38.224002370695416,0.9961677336505604,25.48174798509635
213.0,66.018125596608,38.32357679044748,0.9961641531227172,26.365808212118523
214.0,68.7032780682009,38.406802839913944,0.9961587127535224,27.262636741017932
215.0,71.34983392528872,38.47539610917334,0.9961517647845711,28.170884774140703
216.0,73.94956289740517,38.53096969883107,0.9961436143159547,29.089312728624638
217.0,76.49532464540178,38.57501922403793,0.9961345231050034,30.016792092476667
218.0,78.98110463758485,38.608913389584835,0.9961247133493448,30.95230482474197
219.0,81.40192519613736,38.6339007015759,0.996114374278548,31.894931768309746
220.0,83.75382914165759,38.65110858186335,0.9961036651520035,32.84384934999224
221.0,86.03392507524093,38.6615361720931,0.9960927165164774,33.79833165991357
222.0,88.24003921103333,38.66609495583496,0.9960816404996503,34.75771814345636
223.0,90.3710700361772,38.665561975909256,0.9960705234774871,35.72144594290015
224.0,92.42640517879967,38.66065152607415,0.9960594405375489,36.68899708050805
225.0,94.40619433690802,38.65197871487891,0.9960484495727407,37.659924109814746
226.0,95.39128784032921,23.9988143768783,0.9960375964875694,38.63383263787519
227.0,95.35210412597648,8.852015670013582,0.9960269174549251,39.61037271630748
228.0,95.3166870984102,3.277584727672517,0.9960164395674184,40.58923823576458
229.0,95.28461054950871,1.2248537369592105,0.9960061827252079,41.57015983244725
230.0,95.25549827879426,0.4679003226997262,0.9959961607938904,42.55290073251857
231.0,95.22901831819173,0.18783560019811077,0.995986382649584,43.537252796764484
232.0,95.20487773919342,0.08338652093216914,0.9959768530683432,44.523033010147955
233.0,95.18281801091102,0.04370040727057973,0.9959675734800852,45.510080378351795
234.0,95.16261087025636,0.027978765569326016,0.9959585426051919,46.498253192866976
235.0,95.14405466168282,0.02119646095170566,0.9959497569899848,47.487426626947105
236.0,95.12697110300837,0.017811683668390865,0.9959412114553854,48.4774906266575
237.0,95.1112024346423,0.01577309753574938,0.9959328994713091,49.46834806367963
238.0,95.0966089117578,0.014314951868456076,0.9959248134677169,50.459913119431285
239.0,95.08306660081618,0.013145799249748024,0.9959169450918453,51.452109872396065
240.0,95.07046544395781,0.012149491306564975,0.9959092854198259,52.44487106280828
241.0,95.05870756970107,0.011276793501999532,0.9959018251294617,53.43813701874228
242.0,95.04770580855704,0.010502800539634212,0.995894554640718,54.43185471607211
243.0,95.03738237809205,0.009812090502193657,0.9958874642289882,55.42597694873342
244.0,95.02766774104563,0.009194046118439696,0.9958805441147875,56.42046161032827
245.0,95.01849961972559,0.0086405535987185,0.9958737845345339,57.41527107569375
246.0,95.00982210434921,0.008144493548780746,0.9958671757952182,58.41037164320911
247.0,95.00158487827522,0.007699827654197715,0.995860708315338,59.405733051413904
248.0,94.99374255020075,0.007301524640612281,0.9958543726551912,60.4013280632722
249.0,94.98625405042598,0.006944935856017328,0.9958481595375472,61.39713209133543
250.0,94.97908209923035,0.006626005424060969,0.9958420598604443,62.39312286843593
