Time,J,A,S,tau
0.0,100.0,100.0,0.8291836906095289,9.345794392523365
1.0,103.73714938967812,99.34176884398882,0.8332957361041654,10.040095742542746
2.0,107.31434277199848,98.69584822829307,0.8373181848229228,10.742806019168794
3.0,110.73753826121327,98.0617222148583,0.8412535284041525,11.453305115583719
4.0,114.01427011393164,97.43888044836953,0.8451045510460169,12.171260116257464
5.0,117.15210735683243,96.82683371548445,0.8488742101344998,12.896338879225324
6.0,120.1585731272624,96.22510963750784,0.8525655889200178,13.628210819781547
7.0,123.04109123308767,95.63325345152445,0.8561818877041756,14.36654771824183
8.0,125.80691538649941,95.05082794163681,0.8597264085537443,15.111024806166254
9.0,128.46312948797836,94.47740994460163,0.8632025243859949,15.86132066554703
10.0,131.01658156521506,93.91259253163139,0.8666136765104461,16.61711849918252
11.0,133.47388392182603,93.3559826007038,0.8699633540637616,17.37810616084499
12.0,135.841417206483,92.8071997678011,0.8732550809237934,18.143976143606693
13.0,138.1252753267911,92.26587789565436,0.8764924108500237,18.914426797407025
14.0,140.3313435711513,91.73166080808808,0.8796789127635756,19.689160805472273
15.0,142.46519419215545,91.20420653955217,0.8828181679539199,20.467887513625108
16.0,144.53221701309252,90.68318117261002,0.8859137624495511,21.2503202076735
17.0,146.53750211402493,90.16826379903449,0.8889692827767371,22.036178778477836
18.0,148.48596719928366,89.65914088271401,0.8919883152158358,22.825186961129372
19.0,150.3822528718779,89.1555107777915,0.8949744402539881,23.617074762411296
20.0,152.23085679689754,88.65707796826791,0.8979312369960895,24.411575435754767
21.0,154.03602241960834,88.16355803319,0.9008622790282659,25.20842804539388
22.0,155.80187670362184,87.67467170067349,0.9037711396226797,26.007374305553757
23.0,157.53231326679892,87.1901503789589,0.9066613922133329,26.808161186932708
24.0,159.23114439825017,86.7097292718439,0.9095366120840132,27.61053747120202
25.0,160.90198252763096,86.23315344676807,0.9124003864300505,28.41425620408234
26.0,162.54836690406398,85.7601716952989,0.9152563077311944,29.21907196319084
27.0,164.17369091669627,85.2905409043374,0.9181079938136415,30.024742056150696
28.0,165.78126590901735,84.82402277577384,0.9209590793686161,30.83102522276068
29.0,167.37432944762645,84.36038381412608,0.923813226676097,31.637681240629856
30.0,168.95602362667114,83.89939747091418,0.9266741451545014,32.444470865496314
31.0,170.5294626959501,83.44083943967529,0.9295455634269353,33.25115502910312
32.0,172.09769092444506,82.98449261324419,0.9324312898714675,34.05749425573679
33.0,173.6637345638746,82.53014199884517,0.9353351584874864,34.86324882719321
34.0,175.2305944034652,82.0775778274814,0.9382610891349845,35.66817747959577
35.0,176.80126241922534,81.62659436444592,0.9412130782800402,36.47203720077311
36.0,178.37872922814196,81.1769877324228,0.9441951618473501,37.27458405747235
37.0,179.96601195218227,80.72855973879328,0.9472115279396277,38.07556975836102
38.0,181.5661368659054,80.28111347263437,0.9502664023060025,38.874744868988955
39.0,183.18217322427614,79.83445566033411,0.9533641377915494,39.67185596108879
40.0,184.81725036749836,79.38839636103069,0.9565092250989125,40.466644951512755
41.0,186.47452717626848,78.942746998309,0.9597062174148081,41.25885166044535
42.0,188.1572491235536,78.49732231563272,0.9629598352212573,42.04821015939459
43.0,187.86226367161848,80.07114572167384,0.9636858219023569,42.46110139733786
44.0,187.052740474329,82.23393969867426,0.9636626225297987,42.74236100848539
45.0,186.32534447236574,84.39532537756085,0.9636412841852443,42.99695870977077
46.0,185.68481986250984,86.55611445956974,0.9636220997058605,43.222728416142246
47.0,185.1362887829828,88.71702133247065,0.9636053675060579,43.41737465500177
48.0,184.68531508452267,90.87863303901037,0.9635913905259111,43.57843061310841
49.0,184.3378592826031,93.04142643366274,0.9635804757678248,43.70326807764632
50.0,184.10021465414172,95.20577451999877,0.9635729312704167,43.78910499987413
51.0,183.97903039783768,97.37193410164268,0.9635690627943608,43.83297194607605
52.0,183.98117099515272,99.54009077878922,0.9635691705976945,43.83176863502824
53.0,184.11369469966922,101.7103364369001,0.9635735401905425,43.78222491366464
54.0,184.38370670023576,103.88273374816296,0.9635824353172482,43.68097062781366
55.0,184.7982618317426,106.05730969662984,0.9635960879907617,43.52453952696973
56.0,185.36413607512048,108.23413075874282,0.9636146740304196,43.30944833530774
57.0,186.08774997186708,110.41332236667698,0.9636383112865328,43.0322476042346
58.0,186.9747459610654,112.59515326977794,0.9636670093639268,42.68964928081888
59.0,188.02990260266807,114.78010246111923,0.9637006641533685,42.27863626055267
60.0,189.2567021513929,116.96891693161254,0.96373900854877,41.796608254699144
61.0,190.65687343024595,119.16277986243355,0.9637815575683087,41.241662743238734
62.0,192.23044122426796,121.36326895038661,0.9638276172687499,40.61258723444224
63.0,193.97421097589313,123.57271488572918,0.9638761096072246,39.909561054974226
64.0,195.88280508506577,125.79394890761512,0.9639256998696273,39.1337254944106
65.0,197.94678078888808,128.03074448387923,0.9639745891896881,38.28802901683103
66.0,200.15283434988675,130.28769762252287,0.9640205667036282,37.37703556639063
67.0,202.48315748619362,132.57030612502678,0.9640609732744384,36.40705631183474
68.0,204.9148033200223,134.88502757279466,0.9640926911292199,35.386163273844396
69.0,207.41933655527666,137.23921546710207,0.9641121856132777,34.32393837592657
70.0,209.9624341233315,139.64104905303424,0.9641155612540686,33.231141551762185
71.0,212.5036941871124,142.09940317986465,0.964098646517242,32.11924894266134
72.0,214.99643650929963,144.62369253512267,0.9640570901584063,30.999929825830126
73.0,217.36673101359318,147.24471738999995,0.9639864704584167,29.88449556619559
74.0,219.3745651003697,150.15263836988677,0.9638823966442166,28.783425010371246
75.0,220.90283850696943,153.40629001046628,0.9637405982919708,27.705960863934422
76.0,221.8676794862593,157.02336256514917,0.963556991722308,26.659864868213102
77.0,222.1815401186027,161.01848681006734,0.9633277220996732,25.651299774586978
78.0,221.75661526141698,165.40192697363725,0.9630491807778111,24.684837433315387
79.0,220.5094183840206,170.1781835545778,0.9627180012279175,23.763562698449643
80.0,218.3664307551048,175.34456281585832,0.9623310381584752,22.88924130355432
81.0,215.27062044280854,180.88973748167612,0.9618853356990166,22.06251881235373
82.0,211.1883123243605,186.79236759249955,0.9613780888721838,21.28313078785058
83.0,206.1155269418249,193.01985200028622,0.9608066016777705,20.55010346657731
84.0,200.08265188229683,199.52735210133167,0.960168249386129,19.86194058186042
85.0,193.15737694324386,206.25681470373826,0.9594604347277526,19.21676182632275
86.0,185.44419117919242,213.1365014606679,0.9586805556393353,18.61244198058351
87.0,177.08083826755612,220.08084516102082,0.9578259752388478,18.046712924546462
88.0,168.23199488166662,226.9908693542773,0.9568939936735816,17.51724126559936
89.0,159.08108992838862,233.7553021937706,0.9558818253970061,17.021689369705296
90.0,149.82120292692895,240.25267032298407,0.9547865810677495,16.557760673066674
91.0,140.6487135807183,246.35212737897265,0.9536052502317084,16.123229428956982
92.0,131.76199303264278,251.911258743789,0.9523346883287749,15.71596352413857
93.0,123.3543411724963,256.7820319406309,0.95097160621641,15.333937096856758
94.0,115.60274317844505,260.82256424451856,0.9495125615393711,14.975239006170375
95.0,108.65456799977741,263.91213901302945,0.9479539511452599,14.63807543415154
96.0,102.61356193639048,265.9672143526527,0.9462920067317555,14.320770395678103
97.0,97.52787836602073,266.9552263286082,0.9445227896556322,14.02176349247908
98.0,93.38387420296,266.9021226771919,0.9426421902415195,13.739606628262555
99.0,90.10896932338117,265.89034680220925,0.9406459254235776,13.472958761643387
100.0,87.58378873618146,264.0471388064816,0.9385295372830177,13.220580447645892
101.0,85.66130928813229,261.5256106115265,0.9362883955547637,12.981328829774485
102.0,84.1888369606656,258.48296102192654,0.9339176988121879,12.754151488370816
103.0,83.02669439250926,255.0620060816475,0.9314124785206614,12.538080572851435
104.0,82.06025709283175,251.3794059121909,0.9287676024143184,12.33222747371502
105.0,81.20384171639871,247.52207117598266,0.925977780750799,12.135776931005909
106.0,80.398718720698,243.54941897831938,0.9230375729984635,11.947982229586136
107.0,79.60741666699512,239.49929756378089,0.9199413965736153,11.768159800927066
108.0,78.80747611125899,235.39439923794126,0.9166835359850249,11.595684921843501
109.0,77.98590352350728,231.24792224634206,0.9132581546087392,11.42998704104119
110.0,77.13523952331306,227.0675745973216,0.9096593086548742,11.270545235509106
111.0,76.2511228094714,222.85805804723805,0.9058809613986915,11.11688574613669
112.0,75.3307624225563,218.62263330264915,0.9019169946592199,10.96857753058165
113.0,74.37221044919775,214.36384031415201,0.8977612434383586,10.825226020465042
114.0,73.3740191315302,210.08391711501204,0.8934074930662657,10.686478343102824
115.0,72.33495837559708,205.7850074796087,0.8888495232553466,10.552007235686961
116.0,71.25403268174503,201.46927893685873,0.8840811185716091,10.421523991122852
117.0,70.13034427082825,197.13893244016612,0.8790961007859904,10.29476063863123
118.0,68.96318123729206,192.79627995296212,0.8738883573040768,10.171480210225136
119.0,67.75192512923233,188.443704943541,0.868451863823059,10.051465539822315
120.0,66.49615833100526,184.08370801402629,0.8627807281721782,9.934523013594687
121.0,65.19559649613174,179.71889538932408,0.856869245575701,9.820480457596506
122.0,63.85012944672896,175.3519360604611,0.8507118221952171,9.709177327472776
123.0,62.459932684529676,170.98566211624194,0.8443032596558914,9.600480077697412
124.0,61.025258969019255,166.62293265173918,0.8376384461701942,9.494260360882887
125.0,59.54675950491676,162.2667243435735,0.8307127143726675,9.390409642116548
126.0,58.02527233179826,157.92011721797985,0.8235217578709901,9.288832942030659
127.0,56.46186698741623,153.5862015360493,0.8160614811224006,9.189441448044445
128.0,54.858086508303806,149.26820549252724,0.8083285310398096,9.09216556078598
129.0,53.2155835127316,144.96939030087668,0.8003197540205242,8.996940194383745
130.0,51.536495573557765,140.6930445607656,0.7920326381546888,8.903712003978022
131.0,49.82323288854304,136.4425261313952,0.7834651722041214,8.812436635757816
132.0,48.07862568823392,132.2212018394695,0.7746159896758069,8.723078959860498
133.0,46.305793382436285,128.0324856740409,0.7654842599457494,8.635611536871295
134.0,44.508283846465325,123.87977596839272,0.756069863127623,8.550015610732395
135.0,42.689961138963355,119.76647267331231,0.746373274434443,8.466279568476377
136.0,40.85506925376979,115.69597618702093,0.7363957060112076,8.384400282682092
137.0,39.00818423722847,111.67163822696367,0.7261390414908926,8.304381943332793
138.0,37.15418361381009,107.69679503087599,0.7156058331212717,8.226236262237137
139.0,35.29825243979412,103.77471255961316,0.7047993590221867,8.149982973685809
140.0,33.44582227032283,99.9085939667403,0.6937235680014424,8.075649587003284
141.0,31.60253155083799,96.10156407960393,0.6823830640721879,8.003271556211747
142.0,29.774187573634414,92.35666326401903,0.6707830914058607,7.932892643670389
143.0,27.96671272660213,88.67682655738217,0.6589295125381879,7.86456536311726
144.0,26.186063643586763,85.06486594018995,0.6468287388108207,7.798350824924302
145.0,24.438180896591184,81.52346656088,0.6344877042554256,7.73431940011115
146.0,22.72891615817856,78.05517414000818,0.6219138066373449,7.672550948834767
147.0,21.063959903895483,74.66238279012929,0.6091148523633892,7.613135171063686
148.0,19.448773063266703,71.34732576521156,0.5960989988653078,7.556171953817264
149.0,17.888518575535706,68.11206466717674,0.5828746970281965,7.501771702742583
150.0,16.387996909068644,64.95847884157509,0.569450635012017,7.450055587485012
151.0,14.951603178220243,61.88825907986011,0.5558356895287303,7.401155765378797
152.0,13.583303395884224,58.90290097604589,0.5420388866354011,7.3552155367856775
153.0,12.286642443936625,56.003699635553936,0.5280693755432547,7.312389415716913
154.0,11.064796272949602,53.1917460797478,0.513936419228251,7.272843099385312
155.0,9.920718729583761,50.4679340766406,0.4996494096078346,7.2367533382974685
156.0,8.857232771268446,47.83293781060583,0.4852178945285858,7.204307610259609
157.0,7.877386713572568,45.287238975572166,0.4706516499886095,7.1757036863127
158.0,6.984811577800913,42.831135493093996,0.45596077575324745,7.151148999541324
159.0,6.1840575711043755,40.46474174369065,0.4411558139138182,7.130859835585985
160.0,5.481127771573447,38.1880321602981,0.4262479149882425,7.115060290340881
161.0,4.88385729677477,36.00086997037703,0.41124902995438334,7.103981093989889
162.0,4.402196144906507,33.903061355171545,0.3961721302918016,7.097858142553914
163.0,4.0482268474076335,31.894419152498656,0.3810314554901148,7.096930855697519
164.0,3.835772260281852,29.97483599567004,0.36584277409762217,7.101440312097217
165.0,3.779538527459569,28.144363530383917,0.35062365467740664,7.111627182868098
166.0,3.8936966994402615,26.40328112250998,0.3353937294202069,7.127729481677548
167.0,4.189977088269554,24.752139629539492,0.3201749381437939,7.149980148604259
168.0,4.675410584333358,23.191758494283548,0.3049917319285664,7.1786045047063896
169.0,5.350040519426483,21.723158999662594,0.28987122768787676,7.21381757435241
170.0,6.2053444546695715,20.347430797611352,0.2748433116605942,7.255821311200778
171.0,7.222494743734348,19.065483082579114,0.2599405786610069,7.304801921971111
172.0,8.372765802101105,17.87776254562872,0.24519824410487998,7.360927044795782
173.0,9.618849591799135,16.78391519883455,0.23065390310099015,7.424343041901157
174.0,10.917482378942543,15.782453505339522,0.21634716318580532,7.495172388497436
175.0,12.223025525696338,14.870480201325613,0.20231915150374852,7.573511182397989
176.0,13.491394663040392,14.043521064302467,0.1886118983120571,7.6594268332999755
177.0,14.683660547382575,13.295506992726985,0.17526760844371897,7.752955960774321
178.0,15.768751313690206,12.6189255468088,0.16232784323477137,7.854102521278846
179.0,16.724892042995332,12.005136364937332,0.14983264721269893,7.9628361539439645
180.0,17.539685075644005,11.444816431673425,0.1378196437485558,8.079090931255125
181.0,18.209039160997563,10.9284764924962,0.12632317031341464,8.20276406452562
182.0,18.735393011530554,10.4469812884567,0.11537343119441106,8.333715423713388
183.0,19.12577286067799,9.992017197557958,0.10499567289737545,8.471766778266856
184.0,19.389538045402368,9.556438915014722,0.09520971698765546,8.6167016141808
185.0,19.53703822993848,9.134486648288973,0.08602933258800041,8.768265257953118
186.0,19.5781754185739,8.721858000331551,0.07746209260813422,8.926164830342254
187.0,19.521894359108327,8.315651483971076,0.06950922998935784,9.090069844608331
188.0,19.375937183244787,7.914216943624547,0.06216577830669397,9.259612795042393
189.0,19.146758253036577,7.516941470629242,0.05542102470148958,9.434389544051424
190.0,18.840197951151836,7.124022583608446,0.04925879884035418,9.61396072220078
191.0,18.461840826371784,6.736250172103841,0.043657998058742015,9.79785231348775
192.0,18.01730303177973,6.354793354817836,0.03859333888300863,9.985556500643375
193.0,17.512481963484756,5.9810165864420375,0.034036246910507245,10.176532966677637
194.0,16.953825010309277,5.616346528922909,0.029955554652484968,10.37020973994761
195.0,16.34832840863879,5.2621597445313,0.026318409312278985,10.565984205759914
196.0,15.703530875358576,4.919711474044828,0.02309100537169734,10.76322418531609
197.0,15.027414078120204,4.590089679748004,0.02023926356403387,10.961268977305433
198.0,14.328087870175294,4.2741810729470044,0.01772959207382337,11.159430229766308
199.0,13.613755780700835,3.972670853297072,0.015529243730954354,11.356993092547606
200.0,12.892338955277541,3.6860364016311666,0.013606896716829122,11.553217146189292
201.0,12.171321973214294,3.414559483697071,0.011932950546058183,11.747337464888323
202.0,11.45758261742062,3.1583418716488407,0.010479766239725265,11.938565798910362
203.0,10.757240341863966,2.917323381404636,0.009221839776117142,12.12609182164118
204.0,10.075572331784446,2.691302492652615,0.008135880651731004,12.309084510224345
205.0,9.416986614108737,2.4799577717741665,0.0072008106443078885,12.486693824803274
206.0,8.785004043356526,2.2828681603984795,0.00639773607662711,12.65805264334632
207.0,8.182285580327262,2.0995327063305473,0.0057098715611979805,12.822279024224905
208.0,7.61070349951612,1.9293888692065166,0.00512241878517229,12.978478974857865
209.0,7.0714095771870324,1.7718290461993886,0.0046224418941337225,13.125749751796462
210.0,6.564917860687025,1.626215529046874,0.004198732281768722,13.263183770787318
211.0,6.091203595489391,1.4918932781115024,0.0038416643758551108,13.389873313911831
212.0,5.649795014682322,1.368200965476548,0.003543058017036651,13.5049160804946
213.0,5.239858488575468,1.254480545857701,0.003296052878508113,13.607421670891995
214.0,4.8602813629879975,1.1500850079369442,0.003094995317227838,13.696519209081835
215.0,4.509749424023698,1.054384314770271,0.0029353391010772953,13.771366073038696
216.0,4.186809726768433,0.966770427865408,0.0028135676475689424,13.83115777426645
217.0,3.8899207126826054,0.8866615512247967,0.0027271403498539187,13.875139273857418
218.0,3.6175086995169017,0.8135039360232637,0.0026744572984346085,13.902617184130516
219.0,3.367991251370559,0.7467751139613601,0.0026548589230384867,13.91297369552251
220.0,3.139817999809522,0.685984006868038,0.0026686463997930747,13.905680713033176
221.0,2.931494540556746,0.6306714791088552,0.0027171402512469554,13.880315051955854
222.0,2.7415973181213786,0.5804108750183555,0.0028027803993862384,13.83657459326753
223.0,2.5687866439596427,0.5348074765342129,0.0029292581029933813,13.774293223306469
224.0,2.4118159983431764,0.4934980881189517,0.0031017023777065752,13.69345595966791
225.0,2.269540221551337,0.45615015360399824,0.003326912800323364,13.594212277645388
226.0,2.140913487070223,0.4224611868553753,0.0036136524445219706,13.476887639361378
227.0,2.024998766812026,0.39215746054921174,0.003972993774146856,13.34199186127168
228.0,1.9209679404166045,0.36499295744295684,0.004418719563856846,13.190223808215716
229.0,1.8281015624140733,0.3407483608369348,0.004967775909298396,13.022471782153843
230.0,1.7457909926989061,0.3192298734537022,0.005640755927790007,12.839808789310709
231.0,1.6735398027941542,0.30026807579607667,0.0064623917813960595,12.643482444178561
232.0,1.6109655400082008,0.2837168144232405,0.007462017240263484,12.434899397110254
233.0,1.5578021720962156,0.26945213335333773,0.008673949674413851,12.215604502023396
234.0,1.5139033992224433,0.2573713085383637,0.010137727942887632,11.987255280633534
235.0,1.4792470735968561,0.24739205752791793,0.011898133556400538,11.75159255915052
236.0,1.4539410160570727,0.2394520475011477,0.014004920065566105,11.510408422711878
237.0,1.4382306553218143,0.23350886027135986,0.01651218173773566,11.265512821459236
238.0,1.432509217872906,0.22954065529736745,0.019477316179159175,11.018700243499598
239.0,1.4373315771950954,0.22754778756666716,0.022959567063394967,10.771717851544873
240.0,1.4534329051668637,0.22755566590107776,0.027018168148895513,10.526236349427073
241.0,1.48175372900968,0.22961915354703327,0.031710158722236155,10.283824619185374
242.0,1.5234752412252006,0.23382897879838724,0.03708803229057216,10.045928823351161
243.0,1.580065243259029,0.24032015879510274,0.04319732540542242,9.813856533522475
244.0,1.6533433134735716,0.24928319932182597,0.05007448981092279,9.588765910490755
245.0,1.7455580007092741,0.26097721258018364,0.057744850836094506,9.371659485100414
246.0,1.8594894879631858,0.2757455617342705,0.06622127765595487,9.163383362864865
247.0,1.9985804732995458,0.2940354087347792,0.07550347613201641,8.96462912985471
248.0,2.1670871563727565,0.31641844675599445,0.08557775886293316,8.775940234432818
