Time,J,A,S,tau
0.0,100.0,100.0,0.6355040691708573,2.092050209205021
1.0,69.43864789574661,53.259091479501876,0.47650863403875654,2.55653518830532
2.0,51.782772068771294,28.44964680769824,0.3576383519480593,3.0197797967049813
3.0,40.633312816347136,15.247332502199793,0.2687128283584014,3.481628572890736
4.0,31.979442833569326,8.23513905889571,0.20856416796656277,3.891474941131558
5.0,24.145333609219602,5.037506774535439,0.21013424960110347,3.88081110275128
6.0,17.502035898691503,3.8242424653166056,0.21184876649683315,3.8692393043775875
7.0,12.596462194138596,3.240848625834469,0.2137081935275605,3.8567743051363617
8.0,9.305750358609682,2.677478298081967,0.21571298642731068,3.8434320743402455
9.0,7.084094291869055,2.1069044472191147,0.21786357234367767,3.829229755874629
10.0,5.458540100291721,1.6552918176897622,0.22016033987988465,3.814185629415363
11.0,4.21602336963218,1.3459546875334574,0.22260362866267694,3.7983190687813955
12.0,3.2833188852811723,1.1226201584195263,0.22519371850799566,3.7816504973489242
13.0,2.599445995409369,0.9379818491307166,0.22793081823643313,3.7642013409014448
14.0,2.0921500409438174,0.7802647116501947,0.23081505421113627,3.745993977963591
15.0,1.7028779411356547,0.6522102633442064,0.23384645868069553,3.727051687767522
16.0,1.398153897721277,0.5516742702871595,0.23702495798786005,3.707398596229514
17.0,1.1596527177520084,0.471234809631792,0.2403503607638863,3.687059619865709
18.0,0.9730649573764795,0.40463504618818147,0.2438223461479134,3.6660604081821457
19.0,0.8254126131983213,0.34902956325627166,0.24744045218261265,3.644427284421488
20.0,0.7067061085279273,0.30308897070220053,0.2512040644495333,3.622187185144485
21.0,0.6103707769382694,0.26529148259292007,0.25511240502868937,3.599367598833766
22.0,0.5319230558019263,0.2339223242832177,0.25916452195374057,3.575996503575392
23.0,0.46777711237961467,0.20763642175693642,0.26335927917211943,3.5521023042936886
24.0,0.4149584579248692,0.18556594751791736,0.26769534720380544,3.5277137695915877
25.0,0.37118755342566595,0.1670689320547679,0.27217119451128874,3.502859968555369
26.0,0.3347940569853237,0.15156239190590898,0.2767850798032312,3.4775702076263824
27.0,0.304498671639753,0.13853385526268955,0.2815350451250242,3.4518739679434147
28.0,0.27926311862563696,0.12758418823598502,0.2864189102778235,3.425800843113792
29.0,0.25824938582249546,0.1184115424767947,0.29143426794433414,3.399380477939302
30.0,0.24080297284724156,0.11077131416611259,0.29657848050665914,3.3726425080255074
31.0,0.226416480280016,0.10445735199884884,0.3018486776820234,3.345616500689964
32.0,0.2146877259439945,0.09930296555023162,0.3072417557110513,3.3183318971558733
33.0,0.20529683034354168,0.09517961531579452,0.3127543778886627,3.2908179563784885
34.0,0.1979974228658225,0.09198894088526284,0.31838297642205343,3.263103700600798
35.0,0.192606641313282,0.0896564286099037,0.3241237558435414,3.2352178628742436
36.0,0.1889945377591781,0.08812932998065895,0.32997269767250115,3.2071888363619507
37.0,0.18707985457690135,0.08737555382612695,0.3359255663895896,3.1790446257911382
38.0,0.18682639351358898,0.08738281836347635,0.341977917385693,3.1508128021540522
39.0,0.18823737956237865,0.08815924599136174,0.3481251054851452,3.122520457314342
40.0,0.19136621350788868,0.08973133585043239,0.3543622955246232,3.094194165149308
41.0,0.19630811753846877,0.09214823022529751,0.3606844732664539,3.065859939461951
42.0,0.20321292673332958,0.09548222542290179,0.3670864588340078,3.03754320193392
43.0,0.2122867227214115,0.09983386834298265,0.3735629195805771,3.0092687442405452
44.0,0.2238101778088855,0.10533467887182625,0.3801083852890129,2.981060700596237
45.0,0.23813953967822724,0.11215657693411238,0.38671726379626253,2.9529425177997246
46.0,0.2557347966717935,0.12051881255131774,0.3933838571254251,2.924936929700131
47.0,0.2771818241096387,0.13069930794743603,0.40010237863067394,2.8970659350046195
48.0,0.303219573039595,0.14305061566476168,0.40686697054516946,2.8693507765974644
49.0,0.33477988195922936,0.15801992912512078,0.41367172190068396,2.8418119239088853
50.0,0.37304609652780063,0.17617337776862305,0.42051068665827435,2.814469058407854
51.0,0.41951569034370123,0.19823075721882327,0.42737790202079584,2.7873410606348674
52.0,0.47608661606960945,0.22511053162185815,0.434267406751274,2.7604460001449294
53.0,0.5451646669360245,0.2579888752157619,0.44117325932698115,2.7338011281742167
54.0,0.6298255851893347,0.2983741550330045,0.4480895557285604,2.707422872560681
55.0,0.7339767568364031,0.3482122069593464,0.4550104470092112,2.681326834275149
56.0,0.8625989435870763,0.41001953786024575,0.4619301562391702,2.655527786739079
57.0,1.0220227907419968,0.48706019669106854,0.46884299484737146,2.6300396772808137
58.0,1.2202606665210343,0.5835783235593629,0.4757433783043363,2.6048756299975024
59.0,1.467397401664082,0.7050970379639072,0.4826258409219068,2.5800479510594214
60.0,1.7759476856631857,0.8588065695908687,0.48948504984348656,2.5555681354553625
61.0,2.1611557571619238,1.054046942578311,0.4963158180429069,2.5314468755258823
62.0,2.6410309111862613,1.302892960415201,0.503113116322935,2.507694071034247
63.0,3.235821279516653,1.6208239980374586,0.5098720842564293,2.48431884069124
64.0,3.966432319580758,2.0274102873486903,0.5165880400348671,2.4613295350242765
65.0,4.851077998502403,2.5468600318013603,0.5232564891990258,2.438733750484381
66.0,5.8993336124156555,3.2081209973977707,0.5298731322373165,2.4165383446850046
67.0,7.103034512473273,4.044003659179653,0.5364338710475671,2.3947494526678965
68.0,8.424650877556775,5.088520770110623,0.5429348142677699,2.3733725040930835
69.0,9.78639501768378,6.371451554665498,0.5493722814941728,2.3524122412414035
70.0,11.067122977411342,7.909365372144345,0.5557428063957933,2.3318727377744954
71.0,12.116555430440904,9.693514203785687,0.5620431387627458,2.311757418126776
72.0,12.792013483731127,11.677617603164649,0.5682702455754436,2.292069077317287
73.0,13.009062494126356,13.771943090822008,0.5744213110174641,2.2728099014194414
74.0,12.779918780363412,15.851532805206016,0.5804937356202563,2.2539814882151115
75.0,12.211942650954871,17.78180971038047,0.5864851345024142,2.2355848682123214
76.0,11.462913587270721,19.453639823589704,0.5923933347866689,2.21762052587058
77.0,10.681126470461866,20.810596197492345,0.5982163722593364,2.2000884209500398
78.0,9.965246062347711,21.85446213099089,0.6039524873041965,2.182988009994221
79.0,9.357237310418945,22.629667380396473,0.6096001203059035,2.1663182675519206
80.0,8.857936246020191,23.199249354099948,0.615157906343655,2.1500777076522812
81.0,8.44792893775174,23.62502476652696,0.6206246694266836,2.1342644050917388
82.0,8.102941265645889,23.956991880244694,0.6259994163046816,2.118876016463026
83.0,7.801843205521414,24.23068442258567,0.6312813298856925,2.1039098010117354
84.0,7.5292080937698085,24.468969955431476,0.6364697623352826,2.0893626412116717
85.0,7.275032101354128,24.685376247740336,0.641564227819963,2.075231063227034
86.0,7.033438728601686,24.88729651603417,0.6465643954598003,2.061511256182358
87.0,6.801273529746122,25.078478412217006,0.6514700812468072,2.0481990928457616
88.0,6.577016285551657,25.260683475163912,0.6562812406275494,2.035290148524025
89.0,6.3600182320571985,25.43470155482278,0.6609979604521647,2.0227797204303966
90.0,6.150030218732862,25.600907789144433,0.6656204526321355,2.010662842537916
91.0,5.946986550993097,25.75955214797372,0.6701490477219715,1.998934302537173
92.0,5.750818273100003,25.9108582779566,0.6745841759526956,1.987588679943763
93.0,5.561449551075492,26.05507981376164,0.6789263846462036,1.9766203128075654
94.0,5.378813353238863,26.192493962035922,0.6831762961829714,1.9660233878236704
95.0,5.202749677145646,26.3233934626286,0.6873346365996436,1.9557918762239197
96.0,5.033167898150938,26.44808508458402,0.6914021984184393,1.9459196207335008
97.0,4.869858767689456,26.566865630590556,0.6953798549622742,1.9364002939997385
98.0,4.712702853561881,26.680034584860653,0.6992685421346061,1.9272274511795267
99.0,4.561485672712214,26.787874161542124,0.7030692544245745,1.9183945236809237
100.0,4.416060113227232,26.890660778961642,0.7067830439684851,1.9098948357100336
101.0,4.276227701533557,26.98865631977825,0.710411003710709,1.9017216274746098
102.0,4.1418177056227305,27.08211118321593,0.7139542759115604,1.8938680467158497
103.0,4.012652306679784,27.17126571260826,0.717414031663246,1.8863271872135006
104.0,3.888547722289878,27.25634630533912,0.7207914796037539,1.8790920709153172
105.0,3.7693388281578106,27.33757149100948,0.7240878497648569,1.8721556865647242
106.0,3.65484340682663,27.415146738836143,0.7273043969585481,1.8655109754683428
107.0,3.5449022967476367,27.48926940742107,0.7304423916273108,1.8591508614030539
108.0,3.43934242957391,27.560126194756077,0.7335031179284477,1.8530682438117767
109.0,3.3380085988902004,27.62789467518547,0.7364878695109575,1.8472560195478038
110.0,3.2407393387641514,27.692744153246487,0.7393979454909214,1.841707080557927
111.0,3.147384482578845,27.754834205005093,0.7422346475620527,1.8364143313213621
112.0,3.0577934283287433,27.814317601075796,0.744999277073054,1.831370687903165
113.0,2.97182360528553,27.871337828350605,0.7476931311217312,1.8265690927053388
114.0,2.889333453290435,27.926031856668914,0.7503175016638134,1.8220025152491262
115.0,2.8101899308125495,27.978528735586565,0.752873671111752,1.817663962253413
116.0,2.7342599400340233,28.028950600968415,0.7553629116767974,1.8135464837769946
117.0,2.6614213695133335,28.077413186904966,0.757786482324746,1.809643175343976
118.0,2.5915493939884207,28.124025467352446,0.7601456282240737,1.8059471868361658
119.0,2.5245261935445664,28.16889000299791,0.762441577125896,1.8024517295329028
120.0,2.4602411164508418,28.21210389801858,0.7646755397437722,1.7991500741135
121.0,2.3985825538187684,28.25375814038627,0.7668487077767051,1.7960355607892602
122.0,2.3394481831197185,28.293938304403667,0.7689622513394908,1.7931016051670252
123.0,2.282737754344811,28.33272498104077,0.7710173207672303,1.7903416939936314
124.0,2.228351920741156,28.37019334868152,0.7730150436167723,1.7877493968771156
125.0,2.1762024022158477,28.40641407561794,0.7749565233556734,1.7853183694041175
126.0,2.1261982287639185,28.441453110097438,0.7768428414124711,1.7830423493874588
127.0,2.078252930693845,28.475371765483956,0.778675053529639,1.7809151700398027
128.0,2.0322890773002955,28.508227613244248,0.7804541911899218,1.7789307549590079
129.0,1.9882253220082227,28.540073783584216,0.7821812613264475,1.7770831227369857
130.0,1.945987321597936,28.570959529000646,0.7838572437803472,1.7753663966905524
131.0,1.9055062964756064,28.60093083412143,0.7854830943563813,1.7737747945192772
132.0,1.866710694483571,28.630029751534117,0.7870597429488173,1.7723026385492198
133.0,1.8295365956140905,28.658295016136893,0.7885880916389547,1.7709443642878517
134.0,1.793923209109541,28.685762495937524,0.7900690188827336,1.7696945053545055
135.0,1.7598079868763437,28.71246464909803,0.7915033768554214,1.7685477070366404
136.0,1.7271358020545258,28.738431071135878,0.7928919897152182,1.7674987353583176
137.0,1.695853571998307,28.76368888462925,0.7942356586197786,1.7665424576240438
138.0,1.6659068582341072,28.788262255752876,0.7955351586417161,1.7656738584923823
139.0,1.6372477504173473,28.812172869471155,0.7967912371521279,1.7648880495413413
140.0,1.6098306997868088,28.835440344053975,0.7980046192283007,1.7641802466262169
141.0,1.5836085368217658,28.858081712731245,0.7991760044037982,1.7635457878215937
142.0,1.558539103257442,28.88011185403587,0.8003060654537915,1.7629801418785556
143.0,1.5345842765579183,28.901543984714902,0.8013954531781105,1.762478886810135
144.0,1.5117037688851367,28.922389031812166,0.8024447932867103,1.762037728839767
145.0,1.489860928150359,28.942656224096467,0.8034546880125251,1.761652496156738
146.0,1.46901990996031,28.96235298185408,0.8044257160917933,1.7613191420733467
147.0,1.4491504580615036,28.981485300025422,0.8053584316287493,1.7610337532023366
148.0,1.4302203217195366,29.00005752275078,0.8062533680607996,1.7607925315504136
149.0,1.4121997505543973,29.01807252449144,0.8071110351954538,1.7605918128099722
150.0,1.3950608440725039,29.035531841498003,0.8079319207759086,1.7604280604635267
151.0,1.3787772470800563,29.052435740338034,0.8087164907006995,1.760297867187733
152.0,1.363324119963174,29.068783293822708,0.8094651893193522,1.7601979557540195
153.0,1.3486780664779798,29.084572453245418,0.8101784397112,1.7601251800112492
154.0,1.334817078615691,29.09980012545129,0.8108566440713072,1.7600765251224988
155.0,1.321720518874097,29.11446224521917,0.8115001839630265,1.7600491085336831
156.0,1.3093690478399287,29.128553840385685,0.8121094206119861,1.7600401806551853
157.0,1.2977446052474915,29.142069105064042,0.8126846952558751,1.7600471250232443
158.0,1.2868303636829184,29.15500145795615,0.8132263293137887,1.7600674596214172
159.0,1.2766106943800046,29.167343611769095,0.8137346247932735,1.7600988364525285
160.0,1.267071138431185,29.179087627983023,0.8142098643933641,1.7601390431245567
161.0,1.2581983715895964,29.190224982425036,0.814652311890027,1.7601860023197313
162.0,1.2499801811673374,29.20074661584856,0.815062212266286,1.760237773008773
163.0,1.2424054346424318,29.21064299596231,0.8154397919584923,1.7602925506348772
164.0,1.2354640586047874,29.219904168469533,0.8157852591262151,1.7603486670667963
165.0,1.2291470240086506,29.228519808618465,0.8160988037198613,1.760404591889738
166.0,1.223446310698391,29.23647927625571,0.8163805977399868,1.7604589321079351
167.0,1.2183548930937027,29.243771664126495,0.8166307953978542,1.7605104324847465
168.0,1.213866747524074,29.250385844559926,0.8168495332664476,1.7605579758263246
169.0,1.2099769333599057,29.256310511436453,0.8170369307787828,1.7606005803862896
170.0,1.206683327889915,29.261534109895877,0.8171930929783744,1.7606373809036173
171.0,1.203981171637611,29.266045246064422,0.8173180965184591,1.7606677361857281
172.0,1.201865499090661,29.269832549753534,0.8174120120222046,1.7606910528939694
173.0,1.200339303619435,29.27288425403335,0.8174748934628242,1.7607068795559406
174.0,1.1994000927602877,29.27518901602222,0.8175067655053528,1.7607149973564635
175.0,1.1990471994847955,29.276735424176497,0.81750765199577,1.7607151952889093
176.0,1.1992910693432306,29.27751178557186,0.8174775571841458,1.7607074309770339
177.0,1.2001290432543301,29.27750741512341,0.8174164463313038,1.7606919699413612
178.0,1.201556854439961,29.27671172550093,0.8173242822928944,1.7606690960690579
179.0,1.2035761771909865,29.27511390814523,0.8172010280135065,1.7606390967948946
180.0,1.2062080867552136,29.272702962506933,0.8170466174016571,1.7606025086935337
181.0,1.2094534594036976,29.26946931668487,0.8168609466626122,1.760560159238301
182.0,1.213310651030936,29.265403525300915,0.8166439101576362,1.7605128890289523
183.0,1.2177847111509785,29.260495924004925,0.8163954023432969,1.7604615425105785
184.0,1.2229021978608494,29.25473688606004,0.8161152878836364,1.7604072142524543
185.0,1.2286674160039086,29.24811844885229,0.8158033931127479,1.7603512863279376
186.0,1.2350819534650728,29.240632782910662,0.8154595425287441,1.7602951534474662
187.0,1.2421575718814046,29.232271582764536,0.8150835658724231,1.7602401781176669
188.0,1.2499359554788012,29.22302623877006,0.8146752699254235,1.7601879175013426
189.0,1.2584229019142656,29.212891190796604,0.8142343949779715,1.7601404042612707
190.0,1.2676201283239263,29.201861133049448,0.8137606769963681,1.7600997007241073
191.0,1.2775293518439124,29.189930759733866,0.8132538519469145,1.7600678692165086
192.0,1.288152297101579,29.177094764801087,0.8127136557950317,1.7600469720758523
193.0,1.2995228229086082,29.16334717935358,0.8121398061004412,1.7600392203551278
194.0,1.3116808398983937,29.14868348315149,0.8115319630228544,1.7600472317594358
195.0,1.3246399161167544,29.133100449661406,0.8108897760919701,1.760073682639245
196.0,1.3384150745973549,29.116594779699795,0.8102128945021408,1.760121252527611
197.0,1.3530379516409399,29.09916284775728,0.8095009438364171,1.7601927867808678
198.0,1.3685329483436757,29.080802396334608,0.8087535117677108,1.7602913739836468
199.0,1.3849217891227243,29.06151136056797,0.8079701825590435,1.7604201234023908
200.0,1.4022358649934992,29.04128726729893,0.8071505187480948,1.760582285938563
201.0,1.4205025112215144,29.020128799024363,0.8062940465736705,1.7607813321765389
202.0,1.4397485173734375,28.998034748293623,0.8054002869379283,1.7610207642838207
203.0,1.4600072587049988,28.97500341770532,0.8044687348805368,1.7613042408926376
204.0,1.4813119843700244,28.951033342005644,0.8034988616203638,1.7616355582957526
205.0,1.5036969285772688,28.926123003218777,0.8024901175348922,1.7620186309652515
206.0,1.5271980606953226,28.900270727996727,0.8014419287547041,1.7624575078559925
207.0,1.5518529239271046,28.87347475721592,0.800353700221299,1.7629563528198988
208.0,1.5777005872860723,28.845732625252786,0.7992248138962709,1.7635194528581617
209.0,1.6047819270592951,28.817041326114285,0.7980546273341121,1.764151221821747
210.0,1.6331406412578167,28.78739749675247,0.7968424748481835,1.7648561914184655
211.0,1.662820824263066,28.756796555748288,0.7955876680622456,1.7656390072361383
212.0,1.6938685751358036,28.725232862007633,0.7942894936471422,1.7665044366104117
213.0,1.7263342958198782,28.692699960041562,0.7929472135561474,1.7674573641819937
214.0,1.7602677414404255,28.659189645228263,0.7915600671548741,1.7685027808362477
215.0,1.79572089194459,28.624692026164674,0.7901272682400353,1.7696457945288642
216.0,1.8327513154697628,28.58919583826499,0.7886480055955927,1.770891624480678
217.0,1.8714149352216178,28.55268739840564,0.7871214450564137,1.7722455913782518
218.0,1.9117705966437686,28.515150659408512,0.7855467265319098,1.7737131273290778
219.0,1.953883468996645,28.47656757521109,0.7839229656175702,1.775299766081747
220.0,1.9978160845860942,28.436916853550073,0.7822492544622938,1.7770111392252916
221.0,2.0436355209080417,28.396174162580245,0.7805246594319462,1.7788529824803658
222.0,2.0914145657421974,28.354312431747495,0.7787482240105971,1.780831121922527
223.0,2.1412231130466957,28.311300457847157,0.7769189680739932,1.7829514769974688
224.0,2.1931380043375457,28.26710335362471,0.7750358866284547,1.7852200617484242
225.0,2.247239264405057,28.221682543608363,0.7730979535123275,1.7876429699371088
226.0,2.3036052598984376,28.174994549332947,0.7711041198717716,1.7902263807489278
227.0,2.362323728204601,28.126991573510114,0.7690533137505794,1.7929765564484563
228.0,2.42348186409071,28.077621029480923,0.7669444441119057,1.7958998288833636
229.0,2.4871678569715003,28.026824720464464,0.7647763990257579,1.7990026051381847
230.0,2.5534802857473777,27.97453964170622,0.7625480469717385,1.80229135937479
231.0,2.622513848264333,27.920696736802014,0.7602582395566321,1.8057726267119412
232.0,2.694368849192937,27.865220858008204,0.7579058106174802,1.8094530035436966
233.0,2.7691522663638333,27.808031400929224,0.7554895793462848,1.813339135709215
234.0,2.8469684476753225,27.74904074886679,0.7530083511453363,1.817437719331154
235.0,2.9279297899886583,27.688154814168204,0.7504609187095368,1.8217554932331852
236.0,3.0121506361785686,27.625273139048,0.747846065339504,1.826299230415839
237.0,3.0997463287293527,27.560287836689806,0.7451625659023247,1.8310757372231405
238.0,3.1908390251047756,27.493084104988405,0.7424091891778218,1.8360918415855418
239.0,3.2855512043003516,27.423540001943827,0.7395847007797471,1.8413543902352631
240.0,3.3840088537900366,27.351525823151523,0.7366878654396098,1.8468702409036923
241.0,3.4863400947258296,27.276904692378174,0.7337174498276157,1.852646251043935
242.0,3.592677140554189,27.199532164304856,0.7306722255249563,1.858689277741009
243.0,3.703152251873808,27.119255628623726,0.7275509731326968,1.8650061618458693
244.0,3.81789767865233,27.035915170329396,0.724352484199796,1.8716037231927038
245.0,3.937054853977908,26.94934358875317,0.7210755657694607,1.8784887556541199
246.0,4.06075497778272,26.859364611658563,0.7177190460381997,1.8856680066811513
