Time,J,A,S,tau
0,100,100,0.988716883,9.009009009
1,99.6814013,98.55212175,0.987081403,8.789109164
2,99.33599561,97.06816877,0.98520022,8.547942981
3,98.96223326,95.55005784,0.983055245,8.285620004
4,98.55811023,93.9982554,0.980625241,8.00196247
5,98.12151411,92.41337588,0.977887665,7.696792806
6,97.65023839,90.79612672,0.974818855,7.369934503
7,97.14200991,89.14733665,0.971394289,7.021213041
8,96.59448313,87.46795364,0.969375894,6.894953507
9,96.00520374,85.75908919,0.967263818,6.775788249
10,95.37167325,84.0219554,0.96502672,6.659893347
11,94.69134269,82.25791804,0.962659669,6.547161327
12,93.9616245,80.46844126,0.960157787,6.43749403
13,93.17992557,78.65515296,0.957516242,6.330802058
14,92.34363833,76.81978547,0.954730326,6.227003916
15,91.45020378,74.96421767,0.951795424,6.12602386
16,90.49709489,73.09044162,0.948707119,6.027793038
17,89.48189235,71.2005739,0.945461128,5.932246681
18,88.40228549,69.29684974,0.942053456,5.83932643
19,87.25613477,67.38160362,0.938480267,5.748977194
20,86.04153027,65.45728953,0.934738109,5.661150349
21,84.75680295,63.52643495,0.930823703,5.575800279
22,83.4007022,61.59168434,0.926734237,5.492888476
23,81.97230058,59.65573317,0.922467083,5.412379562
24,80.47138084,57.72139509,0.918020126,5.334246505
25,78.89815656,55.79152143,0.913391437,5.258465854
26,77.25397661,53.86910588,0.908579595,5.185024304
27,75.54082278,51.95720045,0.903583379,5.113913409
28,73.76215786,50.05904488,0.898401941,5.045135641
29,71.92258409,48.17803653,0.893034629,4.978701456
30,70.02838749,46.31791049,0.887481034,4.914633444
31,68.0873822,44.48276119,0.881740816,4.852965103
32,66.10901619,42.67722414,0.875813654,4.793743019
33,64.10425352,40.90666556,0.869699128,4.737028217
34,62.08519516,39.17736724,0.863396555,4.682897389
35,60.06447234,37.4966337,0.85690486,4.63144327
36,58.05449781,35.87295379,0.850222386,4.582776443
37,56.06648899,34.31599016,0.843346721,4.537025949
38,54.10944206,32.83644221,0.836274503,4.494340141
39,52.18916023,31.44563554,0.829001235,4.454886827
40,50.30768864,30.15495022,0.821521104,4.418853472
41,48.46321746,28.97497246,0.813826832,4.38644674
42,46.65065378,27.91448804,0.805909555,4.357891562
43,44.86281122,26.9794285,0.797758759,4.333429604
44,43.09212536,26.17196107,0.789362277,4.313317133
45,41.33259676,25.48982603,0.780706364,4.297822201
46,39.58098085,24.9262929,0.771775904,4.287220868
47,37.83799191,24.47048077,0.762554678,4.281793064
48,36.10832344,24.10830027,0.753025789,4.281817569
49,34.40016086,23.82364474,0.743172198,4.287566357
50,32.72412776,23.59972399,0.73297739,4.299298339
51,31.09201943,23.42026036,0.722426162,4.317252726
52,29.51561362,23.27039384,0.711505482,4.34164214
53,28.00572389,23.13724276,0.700205441,4.372645581
54,26.57155117,23.01013956,0.688520219,4.410401451
55,25.2203349,22.88061306,0.676449075,4.45500066
56,23.95725514,22.74219414,0.663997252,4.506480346
57,22.78547569,22.59014492,0.651176786,4.56481815
58,21.70629041,22.42116958,0.638007155,4.629927296
59,20.71933924,22.2331406,0.624515651,4.701653212
60,19.82290031,22.02489142,0.610737991,4.77976696
61,19.01393854,21.79600074,0.596717792,4.863967527
62,18.28843509,21.54666381,0.582506498,4.953878824
63,17.64166326,21.27757265,0.568162929,5.049048759
64,17.06817066,20.98984636,0.55375242,5.148950636
65,16.56213309,20.68494472,0.539345871,5.252984745
66,16.11747004,20.36461633,0.525018614,5.360480894
67,15.72799946,20.03084886,0.51084919,5.470701708
68,15.38757776,19.68582444,0.496918078,5.58284666
69,15.09022388,19.3318786,0.483306445,5.696056797
70,14.83022626,18.97146179,0.470094957,5.809420139
71,14.60223111,18.60710356,0.457362717,5.921977762
72,14.40131172,18.24137954,0.445186352,6.032730609
73,14.22301855,17.87688147,0.433639278,6.140647098
74,14.06341077,17.5161908,0.422791163,6.244671613
75,13.91907017,17.16185614,0.412707585,6.343734012
76,13.78708698,16.81637772,0.40344987,6.436760274
77,13.66508832,16.4821824,0.395075072,6.522684426
78,13.55115628,16.16162639,0.387636107,6.600462039
79,13.44380797,15.85698503,0.381181974,6.66908497
80,13.34196014,15.57044796,0.375757966,6.727598291
81,13.24487143,15.30412118,0.371405946,6.775117042
82,13.15210239,15.06002741,0.368164451,6.810845841
83,13.06345469,14.84011275,0.366068678,6.83410073
84,12.97889167,14.64625767,0.365150383,6.84432884
85,12.89850325,14.48027871,0.365437416,6.841130019
86,12.82245716,14.34393349,0.36695317,6.824271894
87,12.75096742,14.2389232,0.36971541,6.793714166
88,12.68417725,14.16690358,0.37373506,6.749622153
89,12.62213823,14.12947793,0.379014821,6.692371342
90,12.56477639,14.12819038,0.385547562,6.622551573
91,12.51184381,14.16451602,0.393314215,6.540970576
92,12.46281611,14.23984179,0.402282196,6.448639729
93,12.41688053,14.35543626,0.412404276,6.346751646
94,12.37291223,14.51241802,0.423617561,6.236657126
95,12.32937927,14.71169443,0.435842876,6.119833859
96,12.28435676,14.95390405,0.448985443,5.99784634
97,12.23550552,15.23933478,0.462936207,5.872304793
98,12.18008813,15.56783053,0.477574061,5.744822906
99,12.11501528,15.93868552,0.49276886,5.616976932
100,12.03692991,16.35053096,0.508385035,5.4902682
101,11.94233411,16.80122087,0.524285584,5.366090788
102,11.82775972,17.28772749,0.540336138,5.245705605
103,11.68997852,17.80605912,0.55640884,5.130221521
104,11.52624176,18.3512141,0.572385781,5.020583555
105,11.33452813,18.91718971,0.588161776,4.917568019
106,11.1137663,19.49706532,0.603646116,4.82178609
107,10.86401378,20.08315432,0.618763855,4.733688468
108,10.58655024,20.66724077,0.633456039,4.653576964
109,10.28387003,21.24088253,0.647679283,4.581618116
110,9.959561306,21.79576425,0.661404754,4.517858694
111,9.618080522,22.32406862,0.67461672,4.462242099
112,9.264447695,22.81882945,0.687310806,4.414624877
113,8.903901201,23.27422954,0.699492105,4.374792731
114,8.541556114,23.68581324,0.711173275,4.342475592
115,8.182106913,24.05059486,0.722372701,4.317361454
116,7.829604552,24.3670591,0.733112806,4.299108774
117,7.487322339,24.63506396,0.743418554,4.287357383
118,7.157710541,24.85566764,0.75331617,4.281737877
119,6.842438947,25.03090821,0.762832078,4.281879587
120,6.542462043,25.16355905,0.771992087,4.287416947
121,6.258106575,25.2568964,0.780820719,4.297995101
122,5.989288929,25.31447997,0.789340772,4.313273993
123,5.735590116,25.33997791,0.797573069,4.332931041
124,5.496356711,25.33702497,0.805536273,4.35666374
125,5.2708302,25.30911716,0.813246787,4.38419158
126,5.058212335,25.25954785,0.820718868,4.415256172
127,4.85770714,25.19137032,0.827964731,4.449621436
128,4.668556727,25.10737483,0.834994666,4.487073901
129,4.490077666,25.01008745,0.841817202,4.527422387
130,4.321662618,24.90178734,0.84843936,4.570496551
131,4.162779831,24.78452294,0.854866853,4.6161459
132,4.012972698,24.66012852,0.861104269,4.664239041
133,3.871857376,24.53024695,0.867155269,4.714662425
134,3.739110597,24.39635387,0.873022796,4.767318754
135,3.614458523,24.25978234,0.87870925,4.822125122
136,3.497676545,24.12172914,0.884216611,4.879013168
137,3.388574243,23.98328031,0.889546597,4.937926459
138,3.286991775,23.84542932,0.894700786,4.998819143
139,3.19279889,23.70907015,0.899680697,5.061656694
140,3.105879391,23.57503662,0.904487866,5.126411472
141,3.026147415,23.44407704,0.909123959,5.193065957
142,2.953522984,23.31689774,0.913590732,5.261607245
143,2.887953515,23.19413417,0.917890183,5.332030608
144,2.829390574,23.07638929,0.922024432,5.404334707
145,2.777817367,22.96420674,0.925995917,5.478524874
146,2.733229904,22.85810863,0.929807211,5.554608883
147,2.69564096,22.7585664,0.933461168,5.63259933
148,2.665100593,22.66603395,0.93696084,5.712511516
149,2.641665363,22.58092903,0.940309472,5.794363733
150,2.625436346,22.5036521,0.943510514,5.878177008
151,2.616534399,22.43457886,0.946567578,5.963974863
152,2.615128349,22.37407365,0.949484442,6.051783218
153,2.621413781,22.32248399,0.952265,6.141630266
154,2.635628949,22.28014934,0.954913255,6.233546449
155,2.658064136,22.24740287,0.957433311,6.327564862
156,2.689054216,22.22457429,0.959829329,6.423721148
157,2.728987816,22.21199372,0.962105518,6.522053732
158,2.778310559,22.20999421,0.964266113,6.622604321
159,2.837529631,22.21891492,0.966315354,6.725418283
160,2.907216907,22.23910397,0.968257473,6.830545165
161,2.988013043,22.27092091,0.970096671,6.938039348
162,3.080633318,22.31473946,0.971837111,7.047960904
163,3.18586871,22.37094939,0.973482897,7.160376525
164,3.304591749,22.43995854,0.975038063,7.275360687
165,3.437759389,22.5221944,0.976506567,7.39299699
166,3.586416294,22.61810506,0.977892274,7.513379742
167,3.751697777,22.72815983,0.979198954,7.63661581
168,3.934832354,22.85284905,0.980430271,7.762826774
169,4.137143918,22.99268319,0.981589777,7.892151418
170,4.360053539,23.14819105,0.982680909,8.024748618
171,4.605080924,23.31991679,0.983706982,8.160800644
172,4.873845665,23.5084157,0.984671192,8.300516945
173,5.168068466,23.7142485,0.985576606,8.444138453
174,5.489572697,23.9379737,0.986426166,8.591942481
175,5.840285922,24.18013812,0.987222686,8.744248163
176,6.222242597,24.44126493,0.987968855,8.901422499
177,6.63758797,24.72183925,0.988667234,9.063887018
178,7.088583608,25.02229077,0.989320261,9.232125001
179,7.577614961,25.34297345,0.989930252,9.406689194
180,8.10720131,25.68414184,0.990499403,9.588209864
181,8.680008254,26.04592425,0.991029794,9.777403007
182,9.298862685,26.4282927,0.991523394,9.975078395
183,9.966769812,26.83103018,0.991982063,10.18214706
184,10.68693136,27.25369569,0.992407563,10.39962768
185,11.46276372,27.69558811,0.992801555,10.62865131
186,12.29791273,28.15571076,0.993165615,10.87046329
187,13.19626308,28.63273867,0.993501234,11.12642172
188,14.16193818,29.12499085,0.993809831,11.39799139
189,15.19928576,29.63041089,0.994092758,11.68673218
190,16.31284413,30.14655916,0.994351312,11.99428087
191,17.50728406,30.67062015,0.994586742,12.32232598
192,18.78732163,31.19942812,0.994800256,12.67257491
193,20.15759881,31.7295134,0.994993034,13.04671407
194,21.62253084,32.25717037,0.995166234,13.44636277
195,23.18612207,32.77854649,0.995320999,13.87302269
196,24.85175789,33.28974886,0.99545846,14.32802639
197,26.62197855,33.78696283,0.995579742,14.81248506
198,28.49823119,34.26658362,0.995685965,15.32723952
199,30.48070354,34.72532401,0.99577824,15.8728348
200,32.56814465,35.16031699,0.995857671,16.44949298
201,34.75762683,35.56924053,0.995925343,17.05708072
202,37.04463842,35.95031983,0.995982322,17.69515031
203,39.42300148,36.30238293,0.996029641,18.36293754
204,41.88495623,36.62485576,0.996068297,19.05939567
205,44.42130504,36.91773164,0.996099242,19.7832379
206,47.02166944,37.18149601,0.996123373,20.53299247
207,49.67470942,37.41706975,0.996141532,21.30704726
208,52.36842714,37.62572076,0.996154498,22.10370279
209,55.09046529,37.80898013,0.996162984,22.92121888
210,57.82840412,37.96856028,0.99616764,23.75785643
211,60.5700409,38.1062805,0.99616905,24.6119125
212,63.30363675,38.22400237,0.996167734,25.48174799
213,66.0181256,38.32357679,0.996164153,26.36580821
214,68.70327807,38.40680284,0.996158713,27.26263674
215,71.34983393,38.47539611,0.996151765,28.17088477
216,73.9495629,38.5309697,0.996143614,29.08931273
217,76.49532465,38.57501922,0.996134523,30.01679209
218,78.98110464,38.60891339,0.996124713,30.95230482
219,81.4019252,38.6339007,0.996114374,31.89493177
220,83.75382914,38.65110858,0.996103665,32.84384935
221,86.03392508,38.66153617,0.996092717,33.79833166
222,88.24003921,38.66609496,0.99608164,34.75771814
223,90.37107004,38.66556198,0.996070523,35.72144594
224,92.42640518,38.66065153,0.996059441,36.68899708
225,94.40619434,38.65197871,0.99604845,37.65992411
226,95.39128784,23.99881438,0.996037596,38.63383264
227,95.35210413,8.85201567,0.996026917,39.61037272
228,95.3166871,3.277584728,0.99601644,40.58923824
229,95.28461055,1.224853737,0.996006183,41.57015983
230,95.25549828,0.467900323,0.995996161,42.55290073
231,95.22901832,0.1878356,0.995986383,43.5372528
232,95.20487774,0.083386521,0.995976853,44.52303301
233,95.18281801,0.043700407,0.995967573,45.51008038
234,95.16261087,0.027978766,0.995958543,46.49825319
235,95.14405466,0.021196461,0.995949757,47.48742663
236,95.1269711,0.017811684,0.995941211,48.47749063
237,95.11120243,0.015773098,0.995932899,49.46834806
238,95.09660891,0.014314952,0.995924813,50.45991312
239,95.0830666,0.013145799,0.995916945,51.45210987
240,95.07046544,0.012149491,0.995909285,52.44487106
241,95.05870757,0.011276794,0.995901825,53.43813702
242,95.04770581,0.010502801,0.995894555,54.43185472
243,95.03738238,0.009812091,0.995887464,55.42597695
244,95.02766774,0.009194046,0.995880544,56.42046161
245,95.01849962,0.008640554,0.995873785,57.41527108
246,95.0098221,0.008144494,0.995867176,58.41037164
247,95.00158488,0.007699828,0.995860708,59.40573305
248,94.99374255,0.007301525,0.995854373,60.40132806
249,94.98625405,0.006944936,0.99584816,61.39713209
250,94.9790821,0.006626005,0.99584206,62.39312287
251,94.97219275,0.006341367,0.995836065,63.38928016
252,94.96555496,0.00608791,0.995830165,64.38558553
253,94.95914026,0.005862895,0.995824353,65.38202206
254,94.95292236,0.005664075,0.99581862,66.37857422
255,94.94687694,0.005489409,0.995812957,67.37522763
256,94.94098131,0.005337084,0.995807357,68.37196894
257,94.93521422,0.005205646,0.995801812,69.36878565
258,94.92955562,0.005093821,0.995796313,70.36566599
259,94.92398647,0.005000481,0.995790854,71.36259883
260,94.91848855,0.004924759,0.995785426,72.3595735
261,94.91304428,0.004865969,0.995780022,73.35657976
262,94.90763657,0.004823516,0.995774635,74.35360764
263,94.90224865,0.004797009,0.995769258,75.35064739
264,94.89686395,0.004786247,0.995763882,76.34768936
265,94.89146588,0.004791097,0.9957585,77.34472391
266,94.88603776,0.004811594,0.995753106,78.34174135
267,94.88056261,0.004847989,0.995747691,79.33873182
268,94.87502304,0.004900595,0.995742249,80.33568519
269,94.86940103,0.004969887,0.995736771,81.33259101
270,94.86367782,0.00505659,0.99573125,82.32943834
271,94.8578337,0.005161518,0.995725678,83.32621571
272,94.85184779,0.00528565,0.995720047,84.32291093
273,94.84569785,0.00543028,0.99571435,85.31951104
274,94.83936008,0.005596838,0.995708578,86.3160021
275,94.83280877,0.005786955,0.995702723,87.31236908
276,94.82601609,0.006002657,0.995696776,88.30859565
277,94.81895173,0.006246212,0.995690728,89.30466404
278,94.81158255,0.006520142,0.995684572,90.30055476
279,94.80387217,0.006827538,0.995678296,91.29624639
280,94.79578047,0.007171784,0.995671893,92.2917153
281,94.78726312,0.007556717,0.995665353,93.28693533
282,94.77827095,0.007986821,0.995658666,94.28187745
283,94.76874926,0.008467201,0.995651822,95.2765093
284,94.75863704,0.00900368,0.995644811,96.27079478
285,94.74786612,0.009602914,0.995637623,97.26469349
286,94.73636005,0.010272509,0.995630249,98.25816014
287,94.72403302,0.011021166,0.995622677,99.2511438
288,94.71078844,0.011858846,0.995614899,100.2435872
289,94.69651741,0.012796968,0.995606904,101.2354256
290,94.68109691,0.013848784,0.995598683,102.2265859
291,94.66438771,0.015029031,0.995590227,103.2169856
292,94.64623202,0.01635506,0.995581528,104.2065308
293,94.62645065,0.01784676,0.995572578,105.1951152
294,94.60483986,0.019526828,0.995563372,106.1826179
295,94.58116765,0.021421525,0.995553905,107.1689013
296,94.55516943,0.02356117,0.995544175,108.1538086
297,94.5265431,0.025980738,0.995534181,109.137161
298,94.49494327,0.028720322,0.995523927,110.1187545
299,94.4599746,0.031826286,0.995513419,111.0983559
300,94.42118409,0.035352367,0.995502667,112.0756986
301,94.37806651,0.039563836,0.995491688,113.0504776
302,94.33447834,0.085367383,0.995480503,114.0223439
303,94.28931913,0.136874555,0.995469142,114.9908978
304,94.24275281,0.194585025,0.995457641,115.955682
305,94.19505834,0.259380518,0.995446048,116.9161726
306,94.14663924,0.332276085,0.995434419,117.8717702
307,94.09805882,0.414440754,0.995422824,118.8217893
308,94.05008338,0.507220948,0.995411346,119.7654461
309,94.00373571,0.612167653,0.99540008,120.7018458
310,93.96035979,0.731067291,0.99538914,121.6299682
311,93.92169876,0.86597706,0.995378654,122.5486517
312,93.88998732,1.019265246,0.995368764,123.4565766
313,93.86805956,1.193657314,0.995359631,124.352247
314,93.85947143,1.392288453,0.995351426,125.2339716
315,93.86863564,1.618763655,0.995344329,126.0998434
316,93.90096311,1.877226786,0.995338528,126.9477192
317,93.96300043,2.172440541,0.995334206,127.7751982
318,94.06254484,2.509880021,0.995331532,128.5795991
319,94.2087079,2.895844,0.995330653,129.3579368
320,94.411883,3.337589348,0.995331676,130.1068959
321,94.6835527,3.843497517,0.99533465,130.8228
322,95.03584542,4.423285899,0.995339548,131.5015719
323,95.48071832,5.088283125,0.995346246,132.1386808
324,96.02860489,5.851797514,0.995354507,132.729065
325,96.6863243,6.729622886,0.995363956,133.2670183
326,97.45401211,7.740748564,0.995374076,133.7460171
327,98.32079946,8.908381572,0.995384197,134.1584567
328,99.25895584,10.26145439,0.995393503,134.4952428
329,100.2162221,11.83690925,0.995401052,134.7451533
330,101.1060775,13.68327293,0.995405815,134.8938153
331,101.7956867,15.86646291,0.995406742,134.9220201
332,102.0909981,18.47964336,0.995402874,134.8028261
333,101.7172005,21.66106121,0.995393522,134.4962443
334,100.2889544,25.62873253,0.995378604,133.9387037
335,97.25141053,30.75532894,0.995359291,133.0196187
336,91.72533034,37.75504737,0.99533955,131.5200415
337,81.97447819,48.2678005,0.995330647,128.9043547
338,62.67277153,67.6555595,0.995371708,123.1356025
339,37.53927957,92.40060403,0.995951186,47.25536449
340,36.52375692,92.93436744,0.996167179,25.41000116
341,33.85386725,95.08876722,0.996126049,20.66086141
342,30.02739958,98.35914493,0.996010666,18.08667168
343,25.28694065,102.4971957,0.995848411,16.38163742
344,19.93066818,107.1994577,0.995648725,15.13882832
345,14.36831773,112.051937,0.995415499,14.17915977
346,9.119713517,116.5326647,0.99515024,13.40827823
347,4.75649903,120.0710621,0.994853213,12.77057468
348,1.767229558,122.1833955,0.994523934,12.23066145
349,0.330869265,122.6985673,0.994161418,11.76473606
350,0.043006501,122.0291515,0.993764316,11.35610931
351,0.02074833,121.0620519,0.993330983,10.99270018
352,0.009264256,120.0519743,0.99285953,10.66554201
353,0.004513977,119.0023798,0.99234785,10.36784599
354,0.002877838,117.9163149,0.991793633,10.09438945
355,0.002385506,116.795194,0.991194382,9.84110187
356,0.00224341,115.6392869,0.990547416,9.604776544
357,0.002197746,114.448367,0.989849877,9.382864517
358,0.00217835,113.2220754,0.989098735,9.173324178
359,0.002166726,111.9600591,0.988290786,8.974509353
360,0.002158001,110.6620151,0.987422659,8.785085013
361,0.002150684,109.3277061,0.986490818,8.603962398
362,0.00214401,107.9569696,0.985491563,8.430249159
363,0.002137536,106.5497237,0.984421035,8.263210428
364,0.002130997,105.1059736,0.983275222,8.102237116
365,0.002124222,103.6258157,0.982049963,7.946822282
366,0.002117099,102.1094492,0.980740952,7.796544114
367,0.002109549,100.557173,0.979343752,7.651042835
368,0.002101517,98.96939612,0.977853807,7.510018258
369,0.002092965,97.34664895,0.976266436,7.373211314
370,0.002083874,95.68956758,0.974576877,7.24040075
371,0.002074253,93.99893113,0.97278026,7.11139417
372,0.002064149,92.27563033,0.970871674,6.986025752
373,0.002053666,90.52069238,0.968846141,6.864146608
374,0.002043004,88.73527885,0.966698656,6.745626173
375,0.00203253,86.92068929,0.964424208,6.630347727
376,0.002022886,85.0783587,0.962017803,6.518205943
377,0.002015171,83.20985955,0.959474493,6.409105323
378,0.002011275,81.3169019,0.956789398,6.302958758
379,0.002014417,79.40133067,0.95395774,6.199686337
380,0.002030078,77.46512419,0.950974871,6.099214508
381,0.002067566,75.5103901,0.9478363,6.00147542
