Time,J,A,S,tau
0.0,100.0,100.0,0.566623375432348,9.25925925925926
1.0,81.16032652443454,96.1710846699223,0.4938510032915295,9.0547796432984
2.0,65.83485811025038,92.48567267807834,0.42960127739541887,8.84890553407261
3.0,53.41970131182071,88.93901612815912,0.3730256234920365,8.641742162371653
4.0,43.40852193273951,85.52609449539666,0.3233261245296821,8.43336021337441
5.0,35.38053951555977,82.24205633642602,0.27976836758404033,8.223829406884208
6.0,28.987150141072565,79.08221423561635,0.24167950186754034,8.013218364156918
7.0,23.94037970515179,76.04203989266942,0.20844581277508117,7.8015944862342925
8.0,19.989718732609614,73.13072591594269,0.18810011742824576,7.658719962732491
9.0,16.924764940159385,70.36288345927235,0.18589750018867482,7.651697375202735
10.0,14.608461275552198,67.71209729272081,0.18380580720314502,7.6451185779356345
11.0,12.907512465268004,65.17601746198466,0.18182471902142414,7.6389729784643325
12.0,11.712210328011304,62.75252368895194,0.17995392212229294,7.633249604293566
13.0,10.932068462414145,60.43969740878999,0.17819311132472204,7.627937197321085
14.0,10.492236724982021,58.23579105306968,0.17654199182763194,7.623024315099021
15.0,10.33052280439311,56.13919506619798,0.17500028089943054,7.618499437814244
16.0,10.395077831194563,54.148302797435136,0.17356770924003945,7.614351079754878
17.0,10.642538618631246,52.26131474852586,0.17224402205555842,7.6105679037211615
18.0,11.036112949334294,50.47659515762418,0.17102897984485774,7.607138837217596
19.0,11.54448795365981,48.79246113206122,0.16992235895820706,7.604053188122809
20.0,12.140893003860883,47.207130376203125,0.1689239519407079,7.601300759101726
21.0,12.802355377531228,45.71868608151175,0.1680335676882514,7.598871958477381
22.0,13.509123447128575,44.32504687654102,0.16725103147304976,7.596757906226465
23.0,14.244232675537647,43.02394360388873,0.16657618481504968,7.594950531535897
24.0,14.993226930618256,41.81290519198343,0.16600888518883644,7.593442667117339
25.0,15.743774546149702,40.68925481446934,0.1655490059723395,7.592228124248225
26.0,16.485611095873576,39.650110208402324,0.16519643582252527,7.591301771014715
27.0,17.21028107987014,38.69239286890197,0.16495107838750817,7.590659583195355
28.0,17.910973613950723,37.81284502081092,0.16481285199983978,7.590298690735822
29.0,18.58238296046778,37.008054399106676,0.16478168924756945,7.590217408603683
30.0,19.220565907440328,36.27448467192295,0.16485753654372945,7.5904152542810195
31.0,19.822790357129424,35.608510122138824,0.16504035395818142,7.590892968299985
32.0,20.38733731727353,35.00645408394143,0.16533011443311957,7.591652440396649
33.0,20.913515179999862,34.4646288147732,0.16572680269932347,7.592696753683949
34.0,21.401181293959905,33.979365743633885,0.16623041786532555,7.5940301206020004
35.0,21.85079480580136,33.54705416446338,0.16684097137217388,7.5956577938832694
36.0,22.26337923657602,33.16417497908434,0.1675584856565247,7.597586021431104
37.0,22.64030953256005,32.82733150752486,0.16838299528780237,7.5998219996305725
38.0,22.98311244574763,32.5332639984929,0.16931454768121262,7.602373739562538
39.0,23.293494498302703,32.278867989384125,0.1703532011961444,7.605249971774097
40.0,23.573311365232687,32.06121428453956,0.17149902439551948,7.60846006840989
41.0,23.824360869465398,31.877551989276274,0.17275209801271285,7.6120139238808555
42.0,24.048396018754556,31.725306235077106,0.1741125131676718,7.615921824467297
43.0,24.247119717410406,31.60207874915893,0.17558037037481924,7.620194347273936
44.0,24.422196065739147,31.505655934201528,0.1771557790381075,7.624842248538173
45.0,24.57507677194084,31.433984308007865,0.17883885805541444,7.629876333019792
46.0,24.707130978270452,31.38516350816238,0.18062973263996168,7.635307364272318
47.0,24.819661644436138,31.357454145588065,0.18252853430124663,7.641145928522816
48.0,24.913735360783516,31.349242167732758,0.18453539927549553,7.6474023569321155
49.0,24.990394133863,31.359037121542155,0.18665046586343492,7.654086648576846
50.0,25.050519105890956,31.385473076994753,0.18887387369887965,7.661208290051381
51.0,25.094891138669215,31.42726661887107,0.19120575916983215,7.66877635676071
52.0,25.1242406326516,31.48324432245194,0.19364625597187407,7.676799188487927
53.0,25.13915604586809,31.55229282521237,0.19619548730205533,7.685284638097689
54.0,25.14020479934211,31.63338331281315,0.1988535683687731,7.694239702897027
55.0,25.12784523242567,31.725536035239312,0.20162059376992117,7.703670800422827
56.0,25.10252752624698,31.827833585298855,0.2044966460561728,7.71358339009891
57.0,25.064652499983683,31.939394346993268,0.20748177683765331,7.723982379926049
58.0,25.01455667544843,32.05938386933641,0.21057601396059594,7.734871618361967
59.0,24.952625783469987,32.186994036735406,0.2137793476696728,7.746254456650447
60.0,24.87913378735794,32.321452342452574,0.2170917273606226,7.758133093749991
61.0,24.794430324108898,32.462002172390044,0.22051307064346043,7.770509338937413
62.0,24.6988379169362,32.60791843654962,0.22404321764207896,7.783383890519563
63.0,24.592620834679312,32.758483654754556,0.22768198748796897,7.796756985471211
64.0,24.476216542660097,32.91300892872507,0.2314290947468145,7.810627998069553
65.0,24.349824577583313,33.0708085406326,0.23528422563177942,7.824995689829186
66.0,24.21400571267171,33.23122375723698,0.23924695433509274,7.839858259535942
67.0,24.0689207100793,33.39359821137104,0.24331679457087751,7.85521312131825
68.0,23.915095233468897,33.55729471934476,0.24749318323815403,7.8710574457626
69.0,23.75295144276061,33.72169467250831,0.2517754173815022,7.8873875954200905
70.0,23.58275888447847,33.88618055337379,0.2561627639526772,7.90419969907283
71.0,23.40525283512187,34.050170865973826,0.26065431183927745,7.921489380987801
72.0,23.220602472140335,34.21308077341724,0.26524909392545093,7.939251860495967
73.0,23.029563053105782,34.37435795332627,0.26994601213298614,7.957482155171639
74.0,22.83251103003753,34.533466262293416,0.27474382232933764,7.976174826377212
75.0,22.629931100154394,34.68988103299977,0.27964122583083995,7.995324337629166
76.0,22.422604737449618,34.843123111766246,0.28463670236459215,8.014924830804679
77.0,22.210643218930933,34.99270899254978,0.2897286884154184,8.034970280205496
78.0,21.9949276303593,35.13819913611891,0.2949154677441733,8.055454571911941
79.0,21.775929992534586,35.27918566878613,0.30019513365063677,8.076371368442155
80.0,21.553932676658878,35.415262959788315,0.3055657540946933,8.09771429354791
81.0,21.329969526535827,35.54609065216814,0.3110251602214405,8.119476875517798
82.0,21.104190924638306,35.671338835575185,0.3165710743850482,8.141652547202382
83.0,20.87694275464841,35.790689653178234,0.3222011814225842,8.164234732781646
84.0,20.649309643370266,35.903903547379834,0.32791289294114806,8.187216803955284
85.0,20.421339521985367,36.010745232971686,0.33370354110162714,8.210592099555557
86.0,20.19318949996002,36.11098667200995,0.33957043676593895,8.234353956503108
87.0,19.96595781346405,36.20448280661957,0.34551062960197265,8.258495696610465
88.0,19.73976278675256,36.29110121352782,0.3515210694019123,8.283010635771454
89.0,19.514627185705223,36.37070904717919,0.357598703014842,8.307892090044554
90.0,19.291476408769036,36.443245628548105,0.36374026804323767,8.333133371479784
91.0,19.070494605182578,36.508674299875494,0.3699423825750194,8.358727791505377
92.0,18.851612709660596,36.566952836687584,0.3762016721723674,8.384668662078665
93.0,18.63552579278771,36.61809551487484,0.3825146100327688,8.410949289097186
94.0,18.42248004934239,36.662149160706576,0.388877546127033,8.437562961131421
95.0,18.212352752862436,36.69915162266996,0.3952868447749957,8.464502963879326
96.0,18.005586496474503,36.729180276871034,0.4017387709547384,8.491762573586945
97.0,17.8024790835103,36.75234956824895,0.40822947915333513,8.519335017637566
98.0,17.60288308519585,36.76876228283831,0.4147551460093124,8.547213509698528
99.0,17.40700605983481,36.778545362578974,0.4213118918762033,8.575391253243788
100.0,17.21517343875382,36.78186369796491,0.4278957527613282,8.603861368889536
101.0,17.02722672380933,36.77886798516427,0.4345028002979293,8.632616941394916
102.0,16.84320800846747,36.76972223996265,0.4411290776460967,8.661651047247204
103.0,16.66341430692717,36.754623832467196,0.4477705816316832,8.690956654180699
104.0,16.487697853966687,36.733755430881295,0.45442336291928404,8.720526659941811
105.0,16.315998515389367,36.70730556052228,0.46108346117391724,8.750353956398406
106.0,16.148548703582993,36.67548878146437,0.4677469078355078,8.780431314939642
107.0,15.985225343251953,36.63850570973731,0.47440981447600866,8.810751393727863
108.0,15.825914755764655,36.596557855757105,0.481068293394855,8.841306844985027
109.0,15.670770235144118,36.54986500873756,0.48771847777163296,8.872090204169437
110.0,15.5196984050769,36.4986343805438,0.49435661524163477,8.903093846722149
111.0,15.372566649023849,36.44307091905811,0.5009789645241218,8.934310137044582
112.0,15.229450615176072,36.383390890088705,0.5075818211887229,8.965731339159843
113.0,15.090284573077149,36.31979963942189,0.5141616335463821,8.997349513813095
114.0,14.95493912942684,36.25249839856283,0.5207148737921962,9.029156698766698
115.0,14.823424300829936,36.181694091001276,0.5272380543598225,9.06114485509299
116.0,14.695694997570575,36.10758436475307,0.5337278757563876,9.093305708227952
117.0,14.57163702678682,36.03036191404714,0.5401810804276027,9.125630940935842
118.0,14.451212731428162,35.95022104098588,0.5465944460220538,9.158112183751726
119.0,14.334387702021525,35.867347965412776,0.5529649624942483,9.190740816800684
120.0,14.221066723430623,35.781923954277985,0.5592896868972147,9.223508149778905
121.0,14.111187930557643,35.694129750437966,0.5655656957205788,9.25640546786458
122.0,14.004716711423468,35.60413776957065,0.5717902933418151,9.289423803384373
123.0,13.901575010595808,35.51211574119663,0.5779609029184791,9.322554062358789
124.0,13.801686681735056,35.41823093794211,0.5840749498053449,9.355787148740644
125.0,13.705001609536966,35.32264235645275,0.5901300060005775,9.38911381445112
126.0,13.611464617300351,35.22550326193155,0.5961238795280197,9.422524562429203
127.0,13.521016291236242,35.12696703991725,0.6020543987515976,9.456009873810483
128.0,13.43358514747371,35.02718142995115,0.6079194224433464,9.489560204540325
129.0,13.349106158726148,34.9262831154503,0.6137170891337964,9.52316572924624
130.0,13.267538063521926,34.82441092827234,0.619445666086642,9.556816484333481
131.0,13.188839732386052,34.721703733047136,0.62510342084231,9.590502505876035
132.0,13.112931242220515,34.61829065931663,0.6306886764009877,9.62421378550479
133.0,13.03973159333578,34.514288913387595,0.6362000543694551,9.657940022170003
134.0,12.969214517253697,34.40982247870721,0.6416362754730546,9.691670803516276
135.0,12.901353926752064,34.30501537214365,0.6469960604855555,9.72539571709413
136.0,12.836055452492356,34.19997823311312,0.6522781826294695,9.759104314450472
137.0,12.773223132847892,34.09481050819991,0.6574817057940354,9.7927858664158
138.0,12.71284522103325,33.98962206997403,0.662605790727967,9.826429532018283
139.0,12.65491007965522,33.88452280837824,0.6676495982039194,9.860024470239367
140.0,12.599363728214676,33.77961508961928,0.6726123095474477,9.893559828579273
141.0,12.546051794634195,33.674976049232534,0.6774933413064148,9.927024550514279
142.0,12.494958714555727,33.57069889042475,0.6822922595142767,9.96040741156485
143.0,12.446081563006585,33.46687872570668,0.687008632559013,9.993697182630154
144.0,12.399403411999135,33.363608387243886,0.6916420311641873,10.02688263473823
145.0,12.354743818705806,33.260949335614505,0.6961921607483534,10.059952443236366
146.0,12.31205480924129,33.158974545417266,0.7006589324020083,10.092895076190583
147.0,12.271344648573082,33.05776496999962,0.7050422745468006,10.125698976983418
148.0,12.232621601668678,32.95740156270899,0.7093421156043785,10.158352588997403
149.0,12.195830285419172,32.85795423204102,0.7135584062708044,10.190844345141324
150.0,12.160770548617746,32.75946038679215,0.7176912869634232,10.223162543551181
151.0,12.12743924148951,32.6619832624284,0.7217409867019884,10.255295389080203
152.0,12.095850048700415,32.56558870851835,0.7257077344043549,10.287231084732563
153.0,12.066016654916417,32.47034257463054,0.7295917589883779,10.318957833512432
154.0,12.0377898555539,32.37628233731153,0.7333933415824542,10.350463815386963
155.0,12.011020507166078,32.283434983666275,0.737112920902608,10.381737126675239
156.0,11.985734815597263,32.191852597562054,0.7407509612148064,10.412765845101026
157.0,11.96195901265335,32.10158726698022,0.7443079267828205,10.443538048388508
158.0,11.939719330140226,32.01269107990213,0.7477842818704211,10.474041814261868
159.0,11.918922184271967,31.925195081714584,0.7511805245600611,10.504265208176978
160.0,11.899346961713292,31.8390998818787,0.7544972786374431,10.534196298176475
161.0,11.881016849904148,31.75444204319008,0.7577351749665608,10.563823190438178
162.0,11.863962811544893,31.671259390626513,0.7608948433594345,10.59313399213435
163.0,11.848215809335887,31.5895897491658,0.7639769136280836,10.622116810437253
164.0,11.833738429585777,31.50945919681139,0.766982031103658,10.650759746653438
165.0,11.820289230437485,31.430853369153006,0.7699109270531155,10.679050976072771
166.0,11.807874355388115,31.353793625428047,0.7727643266211192,10.706978810818883
167.0,11.796528707285075,31.278305943332086,0.7755429507947051,10.734531570953411
168.0,11.786287188975765,31.204416300560695,0.7782475205609093,10.761697576537987
169.0,11.77715371174008,31.132145199160117,0.7808787630663918,10.788465143469372
170.0,11.768899090678369,31.061468700653784,0.7834374617693091,10.814822693834321
171.0,11.761500702032599,30.992393435496844,0.7859243772417267,10.840758927739264
172.0,11.754996828581,30.924936243215797,0.7883402596426317,10.866262576784978
173.0,11.7494257531018,30.85911396333714,0.7906858591310106,10.891322372572239
174.0,11.74481702899967,30.794941867165306,0.7929619275285494,10.915927044409997
175.0,11.740979741658183,30.732393820553213,0.7951692536421,10.940065419263703
176.0,11.73785284150254,30.671462358915562,0.7973085885669088,10.963726761221473
177.0,11.735477449397553,30.61215765689481,0.7993806619453206,10.986900423075916
178.0,11.733894686208036,30.55448988913341,0.8013862034196808,11.00957575761964
179.0,11.733145461872132,30.498469191640226,0.8033259426742689,11.03174211754259
180.0,11.733098479944756,30.444073322068782,0.8052006331516282,11.053388921224778
181.0,11.733646596049628,30.39128134595357,0.8070109844770843,11.074506155474964
182.0,11.734833085366512,30.340099155707403,0.8087576673031857,11.095084009690213
183.0,11.736701223075176,30.290532643743095,0.8104413522824805,11.115112673267587
184.0,11.739294284355383,30.24258770247346,0.8120627100675172,11.134582335604156
185.0,11.742558730779832,30.19625139744263,0.813622419537886,11.153483264380382
186.0,11.74636321233882,30.151494500222892,0.815121120492985,11.171806338239731
187.0,11.750740745492735,30.108318869480705,0.8165594043105739,11.18954271616811
188.0,11.755727534669244,30.06672697572329,0.817937861778786,11.206683558396414
189.0,11.76134728853745,30.02671876502558,0.819257085715175,11.22322002296777
190.0,11.767480530872387,29.988264832486323,0.8205176645410154,11.239143562917958
191.0,11.774118286724672,29.951357207137367,0.8217201107416081,11.254446321867713
192.0,11.781298619727378,29.91599731815892,0.822864922468094,11.269120529165292
193.0,11.789059593513578,29.8821865947312,0.8239525978716139,11.283158414158954
194.0,11.79736627618237,29.84991225057987,0.8249836403999101,11.296552263250492
195.0,11.806124778687183,29.819149112362698,0.8259584990768041,11.30929509298487
196.0,11.815373110067542,29.78989699249454,0.8268775679356086,11.321380346100161
197.0,11.825152141068068,29.762156253372453,0.8277412403275688,11.332801468626217
198.0,11.835491616733455,29.735925191281225,0.8285499112784748,11.34355190443755
199.0,11.846285254644705,29.71117695321713,0.8293039628466352,11.353625468831934
200.0,11.857529461695309,29.687903995575308,0.8300036900825528,11.363016848094754
201.0,11.86926678624214,29.666107371945643,0.830649372591288,11.371720838563263
202.0,11.881539776642066,29.64578813591803,0.8312412899779015,11.379732236574725
203.0,11.894323258877886,29.62693460156818,0.8317797250602887,11.387045908150668
204.0,11.907532477118815,29.609524092124964,0.8322648968851987,11.393657594700844
205.0,11.921209174207561,29.59355789945047,0.8326969656388769,11.39956355361443
206.0,11.935398184756952,29.579037899029103,0.8330760907425713,11.4047600466575
207.0,11.950134344877819,29.5659640645665,0.8334024330722896,11.409243333708725
208.0,11.965322089079258,29.554311835072834,0.8336761364498125,11.413010101454622
209.0,11.980962802114647,29.544075676264608,0.8338972519467064,11.416058040296136
210.0,11.99710369365302,29.53525884168404,0.8340658143558565,11.418384969713836
211.0,12.013791973363416,29.527864584873335,0.8341818584701484,11.419988709188297
212.0,12.031010259418137,29.521883772742033,0.8342454213825155,11.420867156574765
213.0,12.048679997744097,29.51729610486504,0.8342564725996795,11.421019175466308
214.0,12.066847701877654,29.51410572362195,0.8342149203893161,11.42044420335508
215.0,12.085563299566745,29.512317432097802,0.8341206721589881,11.419141683028116
216.0,12.104867381613673,29.511934213746176,0.8339736366499836,11.417111055919044
217.0,12.12467030572464,29.512934031178155,0.8337737046677314,11.414352217550801
218.0,12.144977445676156,29.515314165164604,0.8335206720717929,11.410866130534048
219.0,12.1658415230634,29.519081224516416,0.8332143177320321,11.406653896714722
220.0,12.187315259481547,29.52424181804448,0.832854420518313,11.401716617938757
221.0,12.209387028569532,29.53078993792814,0.8324407615657271,11.396055478284667
222.0,12.23197954197852,29.53870741548743,0.8319730550886393,11.3896726481955
223.0,12.255144437006852,29.54800195569018,0.8314509529888094,11.382570886449518
224.0,12.278937261189556,29.558682038734027,0.8308741062002261,11.374752957648695
225.0,12.303404460238724,29.570754329967613,0.8302421669298856,11.366221625792065
226.0,12.328456269633138,29.584198687490005,0.8295547714332282,11.356980103874463
227.0,12.354099870442548,29.599015100119146,0.8288114628788591,11.347032651963994
228.0,12.38039356286995,29.615213852914422,0.8280117670119815,11.336383667950809
229.0,12.407395647118335,29.632805230935222,0.8271552095777991,11.325037549725065
230.0,12.435097345291886,29.65178605294082,0.8262413192929582,11.312998775903196
231.0,12.463416139023186,29.67213884448315,0.8252695641764035,11.30027275609553
232.0,12.492408373242261,29.693874445421176,0.8242393513853519,11.286865453193233
233.0,12.522135049824893,29.71700463741495,0.8231500870071707,11.27278283585384
234.0,12.55264792894681,29.741539321293274,0.8220011783613428,11.258030872979203
235.0,12.583850044125246,29.767458237904528,0.8207920222311286,11.24261594466871
236.0,12.615747517992682,29.794762359238767,0.8195219312697816,11.2265453723497
237.0,12.648404076624328,29.82346441379724,0.8181902011070737,11.20982660124944
238.0,12.68188344609539,29.853577130081188,0.8167961273727768,11.192467076595197
239.0,12.716176685412197,29.88509828351104,0.8153390101129138,11.174474317474226
240.0,12.75118915627929,29.918007779264055,0.8138181036743332,11.155856647060356
241.0,12.786981728244918,29.95231731545198,0.812232608335161,11.136622858868872
242.0,12.823621007663927,29.98803976711279,0.8105817232551423,11.11678175142507
243.0,12.861163935643399,30.02518600468398,0.8088646487653884,11.096342124290276
244.0,12.899499909790958,30.063731741344792,0.8070805848915049,11.075313121771659
245.0,12.938631630882817,30.10367522419836,0.8052286691845589,11.053704648859169
246.0,12.978628851645475,30.145028475455405,0.8033080244223345,11.031526708744993
247.0,13.01956132480543,30.187803517326667,0.8013177733826156,11.00878930462132
248.0,13.061418214323067,30.23199536079726,0.7992570455612671,10.985502501964772
