Time,J,A,S,tau
0.0,100.0,100.0,0.6674691098886865,9.433962264150944
1.0,93.66472093102617,91.98435362733504,0.6661996465543661,8.951592214260685
2.0,87.62628966520879,84.4688066170862,0.664802462188938,8.446404057401672
3.0,81.8808795860247,77.4381932492175,0.6632693460694208,7.918757553676244
4.0,76.42162528012891,70.87344088597743,0.6615909377109765,7.368793396305044
5.0,71.24138861854252,64.75517365685108,0.659757469586782,6.796685870809449
6.0,66.33290615750242,59.06384580955866,0.6577587846272542,6.202643928975417
7.0,61.69237351280157,53.77670254504941,0.6567733314209719,6.046571863231623
8.0,57.310069134893,48.87692108389835,0.6559038346789785,5.958861568206213
9.0,53.18029297557852,44.3454855100053,0.6549849374265024,5.874701235540679
10.0,49.300343998515196,40.16300563000388,0.6540144482811227,5.794036019837428
11.0,45.67169533515518,36.310376971747694,0.6529901866598804,5.716812030576873
12.0,42.30192659441931,32.76898118911934,0.6519100001189274,5.6429761477554745
13.0,39.20645093730571,29.520986411241143,0.6507717826024719,5.572475835733145
14.0,36.40918769369573,26.549841806034003,0.649573493315155,5.5052589577449345
15.0,33.94115731607835,23.841027876864214,0.648313176261855,5.441273588997583
16.0,31.83620491239329,21.383259640896018,0.646988981033029,5.380467838554535
17.0,30.12331465573799,19.16999011187932,0.6455991848718405,5.322789666269888
18.0,28.815815145485693,17.200739926500894,0.6441422131194322,5.268186703273522
19.0,27.900056312397517,15.482107201218891,0.6426166630684426,5.216606070976803
20.0,27.325461719225935,14.027079954327387,0.6410213244400513,5.167994210039559
21.0,27.003241981441146,12.852789269138023,0.6393552027883302,5.122296708649362
22.0,26.814994519263625,11.975733330873732,0.6376175415387012,5.079458136768632
23.0,26.63183172170789,11.404996606161918,0.635807843708265,5.039421886650961
24.0,26.338408571907777,11.134649206606952,0.6339258929852923,5.002130020559307
25.0,25.85381700303375,11.137663925216174,0.6319717738210958,4.967523127360174
26.0,25.1432448664416,11.364256101173673,0.6299458904716778,4.9355401880364385
27.0,24.218403793258876,11.746580430574966,0.6278489843278843,4.906118454382308
28.0,23.12852343880824,12.20898513221312,0.6256821502207731,4.879193334999964
29.0,21.945464095203047,12.679933844130012,0.6234468502132918,4.854698298773163
30.0,20.748027993590078,13.101309326778471,0.6211449255388352,4.832564790379616
31.0,19.608905622730408,13.433383641938393,0.6187786062798091,4.812722161153444
32.0,18.5854909291174,13.656156343286328,0.6163505183674515,4.79509761643106
33.0,17.714821155964767,13.767998127643672,0.6138636878215085,4.779616181026366
34.0,17.012657632483815,13.781964332909377,0.6113215428170099,4.7662006784072135
35.0,16.476103774230634,13.720507068203457,0.6087279118913945,4.75477173143003
36.0,16.08837925742932,13.610067907434651,0.6060870194686983,4.7452477879491735
37.0,15.82400093882396,13.476468424567319,0.6034034785913238,4.737545156042284
38.0,15.653807003099141,13.341702816774708,0.6006822803577039,4.731578065087106
39.0,15.549195722147454,13.222089917414417,0.5979287807039624,4.727258744439185
40.0,15.485245882873661,13.127655841453732,0.5951486837959606,4.724497525861504
41.0,15.442579404350214,13.06249314442882,0.592348022641073,4.72320296589563
42.0,15.408027419472084,13.025814389730494,0.5895331368753383,4.723281988052799
43.0,15.374245383525697,13.01335818627099,0.586710649111807,4.724640042601468
44.0,15.338651707509674,13.018937577959486,0.5838874376204417,4.727181289637863
45.0,15.30194531098457,13.035798387110722,0.5810706068144417,4.730808806824994
46.0,15.26668473799847,13.057685650509876,0.5782674566352056,4.735424808837096
47.0,15.236059189908262,13.079522541413361,0.575485450049538,4.740930887679297
48.0,15.212991853539055,13.097723524388284,0.5727321794428584,4.747228269276966
49.0,15.199601677108811,13.110194160862369,0.570015331274696,4.754218088609514
50.0,15.196986569076774,13.116128842934277,0.5673426510151223,4.761801665937588
51.0,15.20514616067661,13.115709536246813,0.5647219043904872,4.769880884330354
52.0,15.223348459385287,13.109741940951837,0.5621608439987025,4.778358377136569
53.0,15.250195394710554,13.099379799296377,0.5596671709069714,4.787137962049626
54.0,15.283991661903134,13.085888211230657,0.5572484939242186,4.796125004447249
55.0,15.322915771987518,13.070460605428531,0.5549123038611228,4.805226623171771
56.0,15.365192455877068,13.054100980819937,0.5526659305073224,4.8143521566170815
57.0,15.409233377302932,13.037616872165756,0.5505165012880422,4.82341360217291
58.0,15.45365982939577,13.021619583013946,0.5484709258214714,4.8323257471356085
59.0,15.497338596273092,13.006533590825466,0.5465358551180571,4.84100663355515
60.0,15.539375434776558,12.992650480181196,0.5447176274310241,4.84937820111134
61.0,15.579050211538318,12.980191534578225,0.5430222907070864,4.8573660056090375
62.0,15.615819052927888,12.969295410645662,0.5414555147836356,4.864900264554712
63.0,15.649241627650905,12.960119127489454,0.5400226047096626,4.871915760798167
64.0,15.678972934551204,12.952765322645158,0.538728459544056,4.8783522678699915
65.0,15.704713461961742,12.947410153996461,0.5375775717074084,4.88415471442288
66.0,15.726217715430076,12.944156254164144,0.5365738920952692,4.889274685888026
67.0,15.743238650568774,12.943204076328277,0.5357211279514118,4.893666967860736
68.0,15.7555641882958,12.94469881018552,0.5350221487500417,4.897296781938743
69.0,15.762984277132912,12.948764820492341,0.5344796514624571,4.900131500807445
70.0,15.765262337798854,12.955620531018072,0.5340957128624438,4.902146530233714
71.0,15.762204500788188,12.965349780341361,0.5338716318052964,4.903326861657765
72.0,15.753596668131442,12.978062080968986,0.5338086200046263,4.903658674954577
73.0,15.73918327322718,12.99389731119952,0.5339070224492491,4.903139254119985
74.0,15.718765044940112,13.012864613481494,0.5341665437554898,4.901773671308255
75.0,15.692106038113247,13.03501222401249,0.534586764881202,4.899568711767436
76.0,15.65894225566677,13.060348067200975,0.5351662564566546,4.896543840750772
77.0,15.619058262578877,13.088778600338317,0.5359031236716283,4.892724070975983
78.0,15.572213534411572,13.12025958484363,0.5367952619526624,4.888137215255862
79.0,15.518163702407307,13.15464855934963,0.5378395147033846,4.882823908209422
80.0,15.45668176406727,13.191731328965025,0.5390324316938668,4.876828203056079
81.0,15.387583045582737,13.231339039133964,0.5403701873823951,4.870198832879726
82.0,15.310669698611266,13.273188314114051,0.5418481216659674,4.862994395193577
83.0,15.225793722642377,13.316989622174907,0.5434613815882755,4.855275746797117
84.0,15.132878298567478,13.362418262117805,0.5452044303262632,4.847111747059828
85.0,15.031796249732249,13.409062375066727,0.5470713970046999,4.8385750428117245
86.0,14.922646463678092,13.456577786100343,0.5490560114082165,4.829742892324459
87.0,14.805383014991019,13.50446866384263,0.5511515099596178,4.820698077114878
88.0,14.68019869019584,13.55232064200095,0.5533509399058962,4.811525513640853
89.0,14.547284050398526,13.599652135954017,0.5556469030108748,4.8023150669132235
90.0,14.406978807835628,13.646017811243748,0.5580318328774823,4.793158457059534
91.0,14.259614354035318,13.690925666595342,0.560497858051705,4.784150777854141
92.0,14.105696456180041,13.733938868581214,0.5630369877011602,4.7753884507415005
93.0,13.94571848201277,13.774603615132174,0.5656410481628196,4.766969986520565
94.0,13.780335443421825,13.812523977095772,0.5683018045607887,4.758994630992293
95.0,13.610190643211777,13.847318239819982,0.5710109673237305,4.751562452586349
96.0,13.436053993131047,13.878663167137077,0.573760245343235,4.7447736840888926
97.0,13.258685507386181,13.906282324121761,0.5765414212923259,4.738728181860985
98.0,13.078921733863089,13.929951796972968,0.5793463356985594,4.7335254302346135
99.0,12.897595690926407,13.949522502234544,0.5821670257940371,4.729263450509062
100.0,12.715557137315928,13.964887455898632,0.5849956439195673,4.7260393997866466
101.0,12.53366286049376,13.976034505898378,0.5878246507777762,4.723948034518317
102.0,12.352726801820188,13.982980165116022,0.5906466754145016,4.723082807386377
103.0,12.173582436212648,13.98584487693761,0.5934547507052581,4.723534007109223
104.0,11.996971159185406,13.984763922999422,0.5962421252251409,4.725390239112382
105.0,11.823664765034211,13.979974230360499,0.5990025269131434,4.728736369212223
106.0,11.654311513283611,13.971715554614685,0.6017299392662336,4.733655266107559
107.0,11.489596146981793,13.96031736133323,0.6044188783504946,4.7402256735254635
108.0,11.330069634281536,13.946103415151368,0.6070641469157166,4.748524093379345
109.0,11.17631783597499,13.929468620202083,0.6096611102793538,4.7586227000580585
110.0,11.028803839861457,13.910798124595392,0.6122054420229369,4.770591252138696
111.0,10.888014322098474,13.890526295749103,0.6146933857075149,4.7844951449304025
112.0,10.754342756445286,13.869078396448819,0.617121504844354,4.800397254373179
113.0,10.628184472408547,13.84690643225558,0.6194869196908639,4.818356201767118
114.0,10.509885538339748,13.824458195696065,0.6217870723682285,4.838428053888163
115.0,10.399762402390486,13.802187084784576,0.624019930840996,4.860664849283147
116.0,10.298136000018358,13.780550460479432,0.6261837776426101,4.8851161014777
117.0,10.205258217238304,13.759992473525719,0.6282773762366312,4.911827611475206
118.0,10.12144489000032,13.74097151545949,0.6302997891000761,4.940842744092598
119.0,10.046897822108464,13.723916580747549,0.6322505046917988,4.972201528271547
120.0,9.981944725487365,13.709282115483152,0.63412928791698,5.005941698216552
121.0,9.926751245614104,13.697479558947176,0.635936268632167,5.042098063291639
122.0,9.881671093576282,13.688956953214644,0.6376718250133392,5.080703324344006
123.0,9.84684704624428,13.68410814824289,0.6393366367253999,5.1217876793017885
124.0,9.822696081318572,13.6833789906271,0.6409316045499371,5.165379396590798
125.0,9.809382386505463,13.68715353504302,0.6424578592097646,5.21150473534164
126.0,9.807196895411192,13.695836773065407,0.6439167100461429,5.260188333100918
127.0,9.81648332040472,13.709831853103307,0.6453096645491706,5.311452988650966
128.0,9.83747619638518,13.729516853461952,0.646638351355471,5.365320292506152
129.0,9.870626475081858,13.755301153089226,0.6479045477616742,5.421810373051258
130.0,9.916194468015936,13.787549708907852,0.6491101224567183,5.480942302466801
131.0,9.974649312922875,13.826661542054662,0.6502570344528324,5.5427341669713615
132.0,10.046383518953386,13.873013221413165,0.651347310350175,5.607203131204138
133.0,10.131803724771972,13.926979466890439,0.6523830185720497,5.674365722112339
134.0,10.231488714216127,13.988958045701597,0.6533662671084206,5.7442378091203175
135.0,10.345833863026128,14.059309974402565,0.6542991710018126,5.816834807758809
136.0,10.475520112121973,14.138440959326141,0.6551838547974566,5.892171794525777
137.0,10.621050183285568,14.226721231859525,0.6560224233494902,5.970263550969647
138.0,10.783132170006501,14.324553172279282,0.6568169652890178,6.051124750257239
139.0,10.962427474416321,14.432326746259704,0.6575695289719469,6.134769985748248
140.0,11.15961312027001,14.550433637929947,0.6582821193124191,6.22121387140903
141.0,11.37547851368936,14.679280348939312,0.6589566912113995,6.3104711592926925
142.0,11.610868690372843,14.819281630711211,0.6595951345686354,6.402556836593482
143.0,11.866598342836733,14.970846424284485,0.6601992720397027,6.4974861333649185
144.0,12.143588425079257,15.134400425610771,0.6607708553798459,6.595274668067588
145.0,12.442829513935658,15.310378897128205,0.6613115515298447,6.6959385688582795
146.0,12.765271660075058,15.499212738719365,0.6618229437643492,6.7994944432168
147.0,13.11196183199947,15.701348641848291,0.6623065296200585,6.90595954573489
148.0,13.484020754805288,15.917244859723107,0.6627637073338178,7.015351950086961
149.0,13.882515570222001,16.147353966874036,0.6631957789213478,7.127690497061242
150.0,14.308593716014368,16.392141619999975,0.6636039492009698,7.242994995244218
151.0,14.763470963465489,16.652084239538166,0.6639893116893846,7.36128648115721
152.0,15.248289096258588,16.927650206248625,0.6643528522699533,7.4825871682086955
153.0,15.764243613061844,17.219316095917574,0.6646954487354179,7.606920695006822
154.0,16.31257807307277,17.527566496184953,0.665017855036769,7.734312526471788
155.0,16.894433342056765,17.8528718338187,0.6653207043275206,7.864789934621736
156.0,17.51096394976178,18.195704111060643,0.6656045084453533,7.998382312958503
157.0,18.163335651259434,18.556536062155523,0.6658696391716881,8.135121791641502
158.0,18.852570222364676,18.93581760935778,0.6661163295214118,8.275043293233951
159.0,19.57964903362147,19.333989897692195,0.6663446726639541,8.418184934171085
160.0,20.34549915782682,19.75148116311532,0.6665545999589733,8.564588892548263
161.0,21.15084500730101,20.18868377317032,0.6667458734272825,8.714301794818017
162.0,21.996350153528354,20.6459730397793,0.6669181001595383,8.867374769855951
163.0,22.88250343338039,21.123686872196892,0.6670706651714117,9.02386595952081
164.0,23.80951996656078,21.622109041939673,0.6672028001232061,9.183838234892946
165.0,24.777552950010733,22.141496413530295,0.667313457377255,9.347364914078844
166.0,25.786320900900005,22.68201908685037,0.6674014631652383,9.514523023736583
167.0,26.835342971020392,23.243782903229583,0.6674652245803628,9.685407236275799
168.0,27.92421636592398,23.826896174646095,0.6675030279731846,9.86011775025637
169.0,29.051639983288954,24.43126426111754,0.6675128242728828,10.03876791199889
170.0,30.21630361718306,25.05675975610848,0.6674922277766255,10.221487586581189
171.0,31.416372512322358,25.703104475476206,0.6674385446818508,10.408420678062424
172.0,32.649798059486315,26.369933934070083,0.6673486756777846,10.599732335945973
173.0,33.91405267274003,27.056718984713214,0.6672191758831219,10.795605052736686
174.0,35.2062753014714,27.76279464205038,0.6670461681128276,10.99624510594195
175.0,36.52317628496065,28.487309261918462,0.6668253008646804,11.20188562319067
176.0,37.86114758270956,29.229252282953528,0.6665518041720943,11.412784364008413
177.0,39.21619402559518,29.98740573790233,0.6662203637478947,11.629232777860597
178.0,40.583993581830406,30.76033811788939,0.6658251660834296,11.85155421426463
179.0,41.9599416761847,31.54641819554447,0.6653598876982434,12.080106349777871
180.0,43.33914300757676,32.3437504019141,0.6648176014401755,12.315289510447336
181.0,44.71652433321312,33.15021937698666,0.6641908891916642,12.557540444937857
182.0,46.08682232358061,33.96345600960549,0.6634717500188619,12.807342073883481
183.0,47.444692664865755,34.780827821295,0.662651651167885,13.06522254124997
184.0,48.78474753486376,35.59947800827112,0.6617215993713144,13.331752197161597
185.0,50.1016284295022,36.41628013720487,0.6606720976710069,13.607553435926905
186.0,51.3900909325836,37.227895428827665,0.6594933055206234,13.893289900710977
187.0,52.645035460056526,38.03077485614346,0.6581750656461189,14.189670892508587
188.0,53.8616353155264,38.82117670824394,0.656707036169083,14.497448403560213
189.0,55.03532485613979,39.59522889938919,0.6550788189204632,14.817407164849842
190.0,56.161921926204954,40.34894567924635,0.6532801187183667,15.150366093244031
191.0,57.23764866923154,41.0782995222933,0.6513009335506442,15.497163432392941
192.0,58.259140306625966,41.779265050036905,0.6491316925159237,15.858651466049002
193.0,59.22356257385157,42.44790329319074,0.6467636029140774,16.235682370941355
194.0,60.128518581263464,43.080407472176745,0.6441886931205086,16.62909685584061
195.0,60.97214674626068,43.673193687366194,0.6414001874425331,17.03970963763868
196.0,61.753087325419116,44.22298061632203,0.6383927106761483,17.46829042807298
197.0,62.470427404792865,44.72680737134292,0.6351623016755403,17.91555839831341
198.0,63.12377487226219,45.182179930329006,0.6317069380806822,18.38215162330411
199.0,63.71312618798228,45.58704253290616,0.6280263199876388,18.868626521920934
200.0,64.23890737983784,45.93985451041838,0.6241221591611096,19.375439700805742
201.0,64.70190863525748,46.23965459773809,0.6199982915795413,19.902926843506144
202.0,65.10323808919702,46.48596150196725,0.6156603431310028,20.451320805486947
203.0,65.44428588499467,46.67890948298091,0.611116053705952,21.020712554363584
204.0,65.72676180154264,46.81919464358004,0.6063751576658376,21.611056664926764
205.0,65.9524719072051,46.90784107224739,0.6014484197384896,22.222225144214157
206.0,66.1234969927476,46.94651974852843,0.5963486779752857,22.85391519974962
207.0,66.24199863696761,46.93713973924434,0.5910894738725042,23.505755251955993
208.0,66.31030242067426,46.882064084941796,0.5856855889642391,24.17723073508606
209.0,66.33079147149691,46.78382701951795,0.5801522137068678,24.86776804677472
210.0,66.30592778644653,46.64522462986828,0.5745050090838484,25.576691620156
211.0,66.23820734533338,46.469156683893786,0.5687596969666737,26.303275206728298
212.0,65.0274788611037,24.24414244521618,0.5629318698653886,27.046736081831888
213.0,63.32546886843518,9.30563729466275,0.5570367586388212,27.806256772667933
214.0,61.71128902381302,3.781363559841701,0.5510890531370486,28.58099695215798
215.0,60.179338940242474,1.7222341963709302,0.5451027515357744,29.370105644677093
216.0,58.72425356949903,0.9397024995366037,0.5390910427666703,30.17273212730881
217.0,57.34092210320686,0.6286103103176176,0.5330662208393825,30.98803538949247
218.0,56.024500523934336,0.4926928413557238,0.5270396287171185,31.815192098857644
219.0,54.770418409441945,0.42288270083637175,0.5210216286298066,32.65340309068416
220.0,53.574380715139235,0.3789697025307813,0.5150215952485916,33.50189845262644
221.0,52.43236530299569,0.34606915181977,0.5090479280010394,34.3599413138829
222.0,51.3406169973852,0.31860837560345534,0.5031080788048025,35.226830473609816
223.0,50.29563889314369,0.29444413713325934,0.49720859184760596,36.101902012907175
224.0,49.29418182162404,0.27270365391848855,0.49135515158969073,36.984530076062676
225.0,48.33323208400257,0.25296832126825086,0.4855526373431429,37.87412689558367
226.0,47.40999813051144,0.23499508365081412,0.4798051822255633,38.7701422078596
227.0,46.521897173758,0.21861714954368988,0.4741162322607255,39.67206228524785
228.0,45.66654159995576,0.2036923844542,0.4684886056326622,40.579408621275675
229.0,44.84172487315309,0.1900923892249248,0.4629245529320448,41.4917362411204
230.0,44.045408581878135,0.17770804193419415,0.4574258128828619,42.40863198405473
231.0,43.27570971736043,0.1664342344904793,0.45199366598279317,43.32971263839867
232.0,42.53088810705779,0.15617208666817994,0.44662898638776233,44.25462292996355
233.0,41.80933515888944,0.14683673797525287,0.4413322886016522,45.183033620844704
234.0,41.10956310193016,0.13834682077023802,0.43610377108755033,46.11463959313245
235.0,40.430194613909904,0.13062642441771416,0.43094335726817457,47.04915790556371
236.0,39.7699536673428,0.12361091211896232,0.42585073183937866,47.986326010478116
237.0,39.1276569086894,0.11723881864969544,0.42082537404445086,48.925900015105405
238.0,38.50220545989367,0.11145323269207665,0.41586658837186685,49.86765297012877
239.0,37.89257774435813,0.10620608857511588,0.4109735315099861,50.81137331845278
240.0,37.29782278188829,0.10145193241386323,0.406145236728328,51.75686340531296
241.0,36.71705385700841,0.09714890555269726,0.40138063607448243,52.70393803304306
242.0,36.149443000857616,0.09326198369004739,0.39667857981118526,53.65242315202758
243.0,35.59421584707796,0.08975817736665312,0.39203785384808004,54.60215460824811
244.0,35.05064678643441,0.08660725061495643,0.3874571954635545,55.55297693412477
245.0,34.51805474519931,0.08378424182088959,0.38293530712254514,56.504742242394364
246.0,33.99579924395069,0.0812657355186932,0.37847086881546593,57.45730916186771
247.0,33.48327667391668,0.07902996561737649,0.37406254911430603,58.410541805810915
248.0,32.97991707306883,0.07706061122100287,0.36970901504997017,59.36430881146312
249.0,32.485181047012006,0.07534073387509188,0.3654089408819495,60.318482396448545
