Time,J,A,S,tau
0,100,100,0.566623375,9.259259259
1,81.16032652,96.17108467,0.493851003,9.054779643
2,65.83485811,92.48567268,0.429601277,8.848905534
3,53.41970131,88.93901613,0.373025623,8.641742162
4,43.40852193,85.5260945,0.323326125,8.433360213
5,35.38053952,82.24205634,0.279768368,8.223829407
6,28.98715014,79.08221424,0.241679502,8.013218364
7,23.94037971,76.04203989,0.208445813,7.801594486
8,19.98971873,73.13072592,0.188100117,7.658719963
9,16.92476494,70.36288346,0.1858975,7.651697375
10,14.60846128,67.71209729,0.183805807,7.645118578
11,12.90751247,65.17601746,0.181824719,7.638972978
12,11.71221033,62.75252369,0.179953922,7.633249604
13,10.93206846,60.43969741,0.178193111,7.627937197
14,10.49223672,58.23579105,0.176541992,7.623024315
15,10.3305228,56.13919507,0.175000281,7.618499438
16,10.39507783,54.1483028,0.173567709,7.61435108
17,10.64253862,52.26131475,0.172244022,7.610567904
18,11.03611295,50.47659516,0.17102898,7.607138837
19,11.54448795,48.79246113,0.169922359,7.604053188
20,12.140893,47.20713038,0.168923952,7.601300759
21,12.80235538,45.71868608,0.168033568,7.598871958
22,13.50912345,44.32504688,0.167251031,7.596757906
23,14.24423268,43.0239436,0.166576185,7.594950532
24,14.99322693,41.81290519,0.166008885,7.593442667
25,15.74377455,40.68925481,0.165549006,7.592228124
26,16.4856111,39.65011021,0.165196436,7.591301771
27,17.21028108,38.69239287,0.164951078,7.590659583
28,17.91097361,37.81284502,0.164812852,7.590298691
29,18.58238296,37.0080544,0.164781689,7.590217409
30,19.22056591,36.27448467,0.164857537,7.590415254
31,19.82279036,35.60851012,0.165040354,7.590892968
32,20.38733732,35.00645408,0.165330114,7.59165244
33,20.91351518,34.46462881,0.165726803,7.592696754
34,21.40118129,33.97936574,0.166230418,7.594030121
35,21.85079481,33.54705416,0.166840971,7.595657794
36,22.26337924,33.16417498,0.167558486,7.597586021
37,22.64030953,32.82733151,0.168382995,7.599822
38,22.98311245,32.533264,0.169314548,7.60237374
39,23.2934945,32.27886799,0.170353201,7.605249972
40,23.57331137,32.06121428,0.171499024,7.608460068
41,23.82436087,31.87755199,0.172752098,7.612013924
42,24.04839602,31.72530624,0.174112513,7.615921824
43,24.24711972,31.60207875,0.17558037,7.620194347
44,24.42219607,31.50565593,0.177155779,7.624842249
45,24.57507677,31.43398431,0.178838858,7.629876333
46,24.70713098,31.38516351,0.180629733,7.635307364
47,24.81966164,31.35745415,0.182528534,7.641145929
48,24.91373536,31.34924217,0.184535399,7.647402357
49,24.99039413,31.35903712,0.186650466,7.654086649
50,25.05051911,31.38547308,0.188873874,7.66120829
51,25.09489114,31.42726662,0.191205759,7.668776357
52,25.12424063,31.48324432,0.193646256,7.676799188
53,25.13915605,31.55229283,0.196195487,7.685284638
54,25.1402048,31.63338331,0.198853568,7.694239703
55,25.12784523,31.72553604,0.201620594,7.7036708
56,25.10252753,31.82783359,0.204496646,7.71358339
57,25.0646525,31.93939435,0.207481777,7.72398238
58,25.01455668,32.05938387,0.210576014,7.734871618
59,24.95262578,32.18699404,0.213779348,7.746254457
60,24.87913379,32.32145234,0.217091727,7.758133094
61,24.79443032,32.46200217,0.220513071,7.770509339
62,24.69883792,32.60791844,0.224043218,7.783383891
63,24.59262083,32.75848365,0.227681987,7.796756985
64,24.47621654,32.91300893,0.231429095,7.810627998
65,24.34982458,33.07080854,0.235284226,7.82499569
66,24.21400571,33.23122376,0.239246954,7.83985826
67,24.06892071,33.39359821,0.243316795,7.855213121
68,23.91509523,33.55729472,0.247493183,7.871057446
69,23.75295144,33.72169467,0.251775417,7.887387595
70,23.58275888,33.88618055,0.256162764,7.904199699
71,23.40525284,34.05017087,0.260654312,7.921489381
72,23.22060247,34.21308077,0.265249094,7.93925186
73,23.02956305,34.37435795,0.269946012,7.957482155
74,22.83251103,34.53346626,0.274743822,7.976174826
75,22.6299311,34.68988103,0.279641226,7.995324338
76,22.42260474,34.84312311,0.284636702,8.014924831
77,22.21064322,34.99270899,0.289728688,8.03497028
78,21.99492763,35.13819914,0.294915468,8.055454572
79,21.77592999,35.27918567,0.300195134,8.076371368
80,21.55393268,35.41526296,0.305565754,8.097714294
81,21.32996953,35.54609065,0.31102516,8.119476876
82,21.10419092,35.67133884,0.316571074,8.141652547
83,20.87694275,35.79068965,0.322201181,8.164234733
84,20.64930964,35.90390355,0.327912893,8.187216804
85,20.42133952,36.01074523,0.333703541,8.2105921
86,20.1931895,36.11098667,0.339570437,8.234353957
87,19.96595781,36.20448281,0.34551063,8.258495697
88,19.73976279,36.29110121,0.351521069,8.283010636
89,19.51462719,36.37070905,0.357598703,8.30789209
90,19.29147641,36.44324563,0.363740268,8.333133371
91,19.07049461,36.5086743,0.369942383,8.358727792
92,18.85161271,36.56695284,0.376201672,8.384668662
93,18.63552579,36.61809551,0.38251461,8.410949289
94,18.42248005,36.66214916,0.388877546,8.437562961
95,18.21235275,36.69915162,0.395286845,8.464502964
96,18.0055865,36.72918028,0.401738771,8.491762574
97,17.80247908,36.75234957,0.408229479,8.519335018
98,17.60288309,36.76876228,0.414755146,8.54721351
99,17.40700606,36.77854536,0.421311892,8.575391253
100,17.21517344,36.7818637,0.427895753,8.603861369
101,17.02722672,36.77886799,0.4345028,8.632616941
102,16.84320801,36.76972224,0.441129078,8.661651047
103,16.66341431,36.75462383,0.447770582,8.690956654
104,16.48769785,36.73375543,0.454423363,8.72052666
105,16.31599852,36.70730556,0.461083461,8.750353956
106,16.1485487,36.67548878,0.467746908,8.780431315
107,15.98522534,36.63850571,0.474409814,8.810751394
108,15.82591476,36.59655786,0.481068293,8.841306845
109,15.67077024,36.54986501,0.487718478,8.872090204
110,15.51969841,36.49863438,0.494356615,8.903093847
111,15.37256665,36.44307092,0.500978965,8.934310137
112,15.22945062,36.38339089,0.507581821,8.965731339
113,15.09028457,36.31979964,0.514161634,8.997349514
114,14.95493913,36.2524984,0.520714874,9.029156699
115,14.8234243,36.18169409,0.527238054,9.061144855
116,14.695695,36.10758436,0.533727876,9.093305708
117,14.57163703,36.03036191,0.54018108,9.125630941
118,14.45121273,35.95022104,0.546594446,9.158112184
119,14.3343877,35.86734797,0.552964962,9.190740817
120,14.22106672,35.78192395,0.559289687,9.22350815
121,14.11118793,35.69412975,0.565565696,9.256405468
122,14.00471671,35.60413777,0.571790293,9.289423803
123,13.90157501,35.51211574,0.577960903,9.322554062
124,13.80168668,35.41823094,0.58407495,9.355787149
125,13.70500161,35.32264236,0.590130006,9.389113814
126,13.61146462,35.22550326,0.59612388,9.422524562
127,13.52101629,35.12696704,0.602054399,9.456009874
128,13.43358515,35.02718143,0.607919422,9.489560205
129,13.34910616,34.92628312,0.613717089,9.523165729
130,13.26753806,34.82441093,0.619445666,9.556816484
131,13.18883973,34.72170373,0.625103421,9.590502506
132,13.11293124,34.61829066,0.630688676,9.624213786
133,13.03973159,34.51428891,0.636200054,9.657940022
134,12.96921452,34.40982248,0.641636275,9.691670804
135,12.90135393,34.30501537,0.64699606,9.725395717
136,12.83605545,34.19997823,0.652278183,9.759104314
137,12.77322313,34.09481051,0.657481706,9.792785866
138,12.71284522,33.98962207,0.662605791,9.826429532
139,12.65491008,33.88452281,0.667649598,9.86002447
140,12.59936373,33.77961509,0.67261231,9.893559829
141,12.54605179,33.67497605,0.677493341,9.927024551
142,12.49495871,33.57069889,0.68229226,9.960407412
143,12.44608156,33.46687873,0.687008633,9.993697183
144,12.39940341,33.36360839,0.691642031,10.02688263
145,12.35474382,33.26094934,0.696192161,10.05995244
146,12.31205481,33.15897455,0.700658932,10.09289508
147,12.27134465,33.05776497,0.705042275,10.12569898
148,12.2326216,32.95740156,0.709342116,10.15835259
149,12.19583029,32.85795423,0.713558406,10.19084435
150,12.16077055,32.75946039,0.717691287,10.22316254
151,12.12743924,32.66198326,0.721740987,10.25529539
152,12.09585005,32.56558871,0.725707734,10.28723108
153,12.06601665,32.47034257,0.729591759,10.31895783
154,12.03778986,32.37628234,0.733393342,10.35046382
155,12.01102051,32.28343498,0.737112921,10.38173713
156,11.98573482,32.1918526,0.740750961,10.41276585
157,11.96195901,32.10158727,0.744307927,10.44353805
158,11.93971933,32.01269108,0.747784282,10.47404181
159,11.91892218,31.92519508,0.751180525,10.50426521
160,11.89934696,31.83909988,0.754497279,10.5341963
161,11.88101685,31.75444204,0.757735175,10.56382319
162,11.86396281,31.67125939,0.760894843,10.59313399
163,11.84821581,31.58958975,0.763976914,10.62211681
164,11.83373843,31.5094592,0.766982031,10.65075975
165,11.82028923,31.43085337,0.769910927,10.67905098
166,11.80787436,31.35379363,0.772764327,10.70697881
167,11.79652871,31.27830594,0.775542951,10.73453157
168,11.78628719,31.2044163,0.778247521,10.76169758
169,11.77715371,31.1321452,0.780878763,10.78846514
170,11.76889909,31.0614687,0.783437462,10.81482269
171,11.7615007,30.99239344,0.785924377,10.84075893
172,11.75499683,30.92493624,0.78834026,10.86626258
173,11.74942575,30.85911396,0.790685859,10.89132237
174,11.74481703,30.79494187,0.792961928,10.91592704
175,11.74097974,30.73239382,0.795169254,10.94006542
176,11.73785284,30.67146236,0.797308589,10.96372676
177,11.73547745,30.61215766,0.799380662,10.98690042
178,11.73389469,30.55448989,0.801386203,11.00957576
179,11.73314546,30.49846919,0.803325943,11.03174212
180,11.73309848,30.44407332,0.805200633,11.05338892
181,11.7336466,30.39128135,0.807010984,11.07450616
182,11.73483309,30.34009916,0.808757667,11.09508401
183,11.73670122,30.29053264,0.810441352,11.11511267
184,11.73929428,30.2425877,0.81206271,11.13458234
185,11.74255873,30.1962514,0.81362242,11.15348326
186,11.74636321,30.1514945,0.81512112,11.17180634
187,11.75074075,30.10831887,0.816559404,11.18954272
188,11.75572753,30.06672698,0.817937862,11.20668356
189,11.76134729,30.02671877,0.819257086,11.22322002
190,11.76748053,29.98826483,0.820517665,11.23914356
191,11.77411829,29.95135721,0.821720111,11.25444632
192,11.78129862,29.91599732,0.822864922,11.26912053
193,11.78905959,29.88218659,0.823952598,11.28315841
194,11.79736628,29.84991225,0.82498364,11.29655226
195,11.80612478,29.81914911,0.825958499,11.30929509
196,11.81537311,29.78989699,0.826877568,11.32138035
197,11.82515214,29.76215625,0.82774124,11.33280147
198,11.83549162,29.73592519,0.828549911,11.3435519
199,11.84628525,29.71117695,0.829303963,11.35362547
200,11.85752946,29.687904,0.83000369,11.36301685
201,11.86926679,29.66610737,0.830649373,11.37172084
202,11.88153978,29.64578814,0.83124129,11.37973224
203,11.89432326,29.6269346,0.831779725,11.38704591
204,11.90753248,29.60952409,0.832264897,11.39365759
205,11.92120917,29.5935579,0.832696966,11.39956355
206,11.93539818,29.5790379,0.833076091,11.40476005
207,11.95013434,29.56596406,0.833402433,11.40924333
208,11.96532209,29.55431184,0.833676136,11.4130101
209,11.9809628,29.54407568,0.833897252,11.41605804
210,11.99710369,29.53525884,0.834065814,11.41838497
211,12.01379197,29.52786458,0.834181858,11.41998871
212,12.03101026,29.52188377,0.834245421,11.42086716
213,12.04868,29.5172961,0.834256473,11.42101918
214,12.0668477,29.51410572,0.83421492,11.4204442
215,12.0855633,29.51231743,0.834120672,11.41914168
216,12.10486738,29.51193421,0.833973637,11.41711106
217,12.12467031,29.51293403,0.833773705,11.41435222
218,12.14497745,29.51531417,0.833520672,11.41086613
219,12.16584152,29.51908122,0.833214318,11.4066539
220,12.18731526,29.52424182,0.832854421,11.40171662
221,12.20938703,29.53078994,0.832440762,11.39605548
222,12.23197954,29.53870742,0.831973055,11.38967265
223,12.25514444,29.54800196,0.831450953,11.38257089
224,12.27893726,29.55868204,0.830874106,11.37475296
225,12.30340446,29.57075433,0.830242167,11.36622163
226,12.32845627,29.58419869,0.829554771,11.3569801
227,12.35409987,29.5990151,0.828811463,11.34703265
228,12.38039356,29.61521385,0.828011767,11.33638367
229,12.40739565,29.63280523,0.82715521,11.32503755
230,12.43509735,29.65178605,0.826241319,11.31299878
231,12.46341614,29.67213884,0.825269564,11.30027276
232,12.49240837,29.69387445,0.824239351,11.28686545
233,12.52213505,29.71700464,0.823150087,11.27278284
234,12.55264793,29.74153932,0.822001178,11.25803087
235,12.58385004,29.76745824,0.820792022,11.24261594
236,12.61574752,29.79476236,0.819521931,11.22654537
237,12.64840408,29.82346441,0.818190201,11.2098266
238,12.68188345,29.85357713,0.816796127,11.19246708
239,12.71617669,29.88509828,0.81533901,11.17447432
240,12.75118916,29.91800778,0.813818104,11.15585665
241,12.78698173,29.95231732,0.812232608,11.13662286
242,12.82362101,29.98803977,0.810581723,11.11678175
243,12.86116394,30.025186,0.808864649,11.09634212
244,12.89949991,30.06373174,0.807080585,11.07531312
245,12.93863163,30.10367522,0.805228669,11.05370465
246,12.97862885,30.14502848,0.803308024,11.03152671
247,13.01956132,30.18780352,0.801317773,11.0087893
248,13.06141821,30.23199536,0.799257046,10.9855025
249,13.10408713,30.27757616,0.797124954,10.96167699
250,13.14763405,30.32455445,0.794920573,10.93732379
251,13.19213218,30.37294027,0.792642976,10.91245396
252,13.2376445,30.42274147,0.79029124,10.88707853
253,13.28404261,30.47392439,0.787864456,10.8612088
254,13.33132421,30.52647945,0.785361695,10.83485659
255,13.37956613,30.5804135,0.782782018,10.8080338
256,13.42884522,30.63573337,0.780124488,10.78075231
257,13.47915944,30.69242854,0.777388177,10.75302407
258,13.53039523,30.7504616,0.774572187,10.72486143
259,13.58261441,30.80983153,0.771675611,10.69627691
260,13.63588662,30.87053897,0.768697544,10.667283
261,13.69019241,30.93256512,0.765637093,10.63789227
262,13.74545106,30.99587418,0.762493416,10.60811754
263,13.80173267,31.0604606,0.75926568,10.57797175
264,13.8591099,31.1263194,0.755953051,10.54746781
265,13.91753827,31.19342126,0.752554718,10.51661871
266,13.97695045,31.26172737,0.749069954,10.4854376
267,14.03742143,31.3312257,0.745498047,10.45393769
268,14.0990262,31.40190425,0.741838287,10.42213218
269,14.16169313,31.4737203,0.73809,10.39003431
270,14.22537489,31.54663189,0.734252634,10.35765741
271,14.29014683,31.62062081,0.730325655,10.32501481
272,14.35608148,31.69566822,0.726308534,10.29211984
273,14.42308207,31.77171811,0.722200799,10.25898585
274,14.49112159,31.84872403,0.718002138,10.22562618
275,14.56027463,31.92665993,0.71371226,10.19205415
276,14.63060783,32.00549804,0.709330877,10.15828309
277,14.70200523,32.08516842,0.704857793,10.12432631
278,14.77445806,32.16561953,0.700293003,10.09019701
279,14.84803811,32.24681673,0.695636526,10.0559084
280,14.92280189,32.32872185,0.690888383,10.02147364
281,14.99862137,32.41125152,0.686048727,9.986905877
282,15.07550289,32.49434808,0.681117932,9.952218066
283,15.15351335,32.57796727,0.676096391,9.917423137
284,15.2326955,32.66205882,0.670984502,9.882534023
285,15.31291854,32.74652651,0.665782846,9.847563548
286,15.39419935,32.83130577,0.660492237,9.812524309
287,15.47659697,32.916342,0.655113506,9.777428881
288,15.56013515,33.00157096,0.64964749,9.742289844
289,15.64467904,33.08688182,0.644095252,9.70711961
290,15.73025297,33.1722028,0.638458124,9.671930309
291,15.81690984,33.25746969,0.632737449,9.636734053
292,15.9046931,33.34261522,0.626934574,9.601542954
293,15.99348711,33.42751987,0.621051027,9.566368989
294,16.08326782,33.51208968,0.615088695,9.531223764
295,16.17406871,33.59624856,0.6090495,9.496118825
296,16.26592309,33.67992037,0.602935369,9.46106572
297,16.35877738,33.76299081,0.59674833,9.426075924
298,16.45257325,33.84534384,0.590490811,9.391160492
299,16.5473171,33.92689196,0.584165336,9.35633035
300,16.64301531,34.00754769,0.577774432,9.321596424
301,16.73965867,34.08720438,0.571320668,9.286969608
302,16.83720267,34.16572994,0.564806976,9.25246041
303,16.93561743,34.24302505,0.558236466,9.218079103
304,17.0348738,34.3189914,0.551612251,9.183835962
305,17.13495495,34.39352447,0.544937459,9.149741242
306,17.23587377,34.466493,0.538215496,9.11580488
307,17.33757173,34.53778586,0.531449967,9.082036546
308,17.43998184,34.60729532,0.524644483,9.048445903
309,17.54311471,34.67490668,0.517802691,9.015042566
310,17.64699888,34.74049804,0.510928487,8.981835797
311,17.75152736,34.80395583,0.504025876,8.94883471
312,17.85659886,34.86516658,0.497098859,8.916048418
313,17.9623272,34.92401747,0.490151506,8.883485907
314,18.06867412,34.98039225,0.483188079,8.851155839
315,18.17548314,35.03417352,0.476212878,8.819066819
316,18.2826564,35.08524657,0.469230206,8.787227445
317,18.39035578,35.13350937,0.462244429,8.755646097
318,18.49845262,35.17884738,0.455260009,8.724330981
319,18.60680298,35.22114628,0.448281408,8.693290297
320,18.71557325,35.26031513,0.441313082,8.662532121
321,18.82463551,35.29624573,0.43435954,8.63206436
322,18.93378667,35.32882521,0.427425296,8.601894908
323,19.04321862,35.35797512,0.420514815,8.572031582
324,19.15283991,35.38359989,0.413632551,8.542482059
325,19.26238748,35.40559097,0.40678297,8.513254005
326,19.3720429,35.42388165,0.399970459,8.48435504
327,19.48179081,35.43839549,0.393199319,8.455792691
328,19.59131626,35.44903091,0.386473858,8.427574476
329,19.70068293,35.45572445,0.379798304,8.39970789
330,19.80997828,35.4584239,0.373176719,8.372200384
331,19.91892889,35.45704531,0.366613169,8.345059407
332,20.02773848,35.45155771,0.360111567,8.318292394
333,20.13624707,35.44190237,0.353675693,8.291906781
334,20.24427317,35.42802064,0.3473093,8.265910006
335,20.35206254,35.40990733,0.341015903,8.240309507
336,20.45930651,35.38750541,0.334798938,8.215112737
337,20.56603036,35.36079796,0.328661747,8.19032715
338,20.67234559,35.32978916,0.322607404,8.165960206
339,20.77789357,35.29443451,0.316638952,8.142019368
340,20.88294536,35.25476745,0.310759235,8.118512094
341,20.98735669,35.21078556,0.304970883,8.095445812
342,21.09088438,35.1624776,0.299276493,8.072827944
343,21.19387489,35.10991189,0.293678371,8.050665853
344,21.29599365,35.05308535,0.288178709,8.028966815
345,21.39724104,34.99203833,0.282779606,8.007738087
346,21.49782624,34.92684956,0.277482852,7.986986726
347,21.59734378,34.85752819,0.272290207,7.966719672
348,21.69609568,34.78417757,0.267203232,7.946943774
349,21.79399223,34.70686477,0.26222327,7.927665471
350,21.89075261,34.62563589,0.257351643,7.908891123
351,21.98678255,34.54063603,0.252589402,7.890626744
352,22.08177956,34.45192738,0.247937503,7.87287782
353,22.17571082,34.359612,0.243396828,7.855649758
354,22.26885844,34.26384709,0.238968004,7.838947197
355,22.36084051,34.16470416,0.234651645,7.822774315
356,22.4519288,34.06235442,0.230448216,7.807135021
357,22.54211209,33.95693921,0.226358026,7.792032058
358,22.63112375,33.84856619,0.222381382,7.777467904
359,22.7193429,33.73745222,0.218518406,7.763444264
360,22.80656044,33.62372903,0.214769173,7.749961617
361,22.89271994,33.50755914,0.211133719,7.737020251
362,22.97810201,33.3891726,0.20761193,7.724619039
363,23.06243599,33.26870615,0.204203705,7.712755933
364,23.14589723,33.1463906,0.200908863,7.701428473
365,23.22854097,33.02243802,0.197727155,7.690632368
366,23.31019348,32.89701808,0.194658347,7.680362891
367,23.39113099,32.7704191,0.191702116,7.670614383
368,23.4712619,32.64283512,0.188858146,7.661379342
369,23.5504361,32.5144502,0.18612612,7.652650091
370,23.62890561,32.38559161,0.183505662,7.644417995
371,23.70665229,32.25647701,0.180996412,7.63667254
372,23.78356678,32.12729119,0.178598023,7.62940303
373,23.85971816,31.99837318,0.176310118,7.622598346
374,23.93519495,31.8700041,0.174132333,7.616245578
375,24.0100126,31.74237713,0.172064327,7.61033141
376,24.08415617,31.61571619,0.170105753,7.604842486
377,24.15750538,31.49042156,0.168256279,7.599764716
378,24.2302037,31.36673944,0.166515594,7.59508339
379,24.30243826,31.24488051,0.164883392,7.590783778
380,24.37416573,31.12512414,0.163359379,7.58685108
381,24.44515405,31.00783089,0.161943303,7.583270557
