Time,J,A,S,tau
0,100,100,0.635504069,2.092050209
1,69.4386479,53.25909148,0.476508634,2.556535188
2,51.78277207,28.44964681,0.357638352,3.019779797
3,40.63331282,15.2473325,0.268712828,3.481628573
4,31.97944283,8.235139059,0.208564168,3.891474941
5,24.14533361,5.037506775,0.21013425,3.880811103
6,17.5020359,3.824242465,0.211848766,3.869239304
7,12.59646219,3.240848626,0.213708194,3.856774305
8,9.305750359,2.677478298,0.215712986,3.843432074
9,7.084094292,2.106904447,0.217863572,3.829229756
10,5.4585401,1.655291818,0.22016034,3.814185629
11,4.21602337,1.345954688,0.222603629,3.798319069
12,3.283318885,1.122620158,0.225193719,3.781650497
13,2.599445995,0.937981849,0.227930818,3.764201341
14,2.092150041,0.780264712,0.230815054,3.745993978
15,1.702877941,0.652210263,0.233846459,3.727051688
16,1.398153898,0.55167427,0.237024958,3.707398596
17,1.159652718,0.47123481,0.240350361,3.68705962
18,0.973064957,0.404635046,0.243822346,3.666060408
19,0.825412613,0.349029563,0.247440452,3.644427284
20,0.706706109,0.303088971,0.251204064,3.622187185
21,0.610370777,0.265291483,0.255112405,3.599367599
22,0.531923056,0.233922324,0.259164522,3.575996504
23,0.467777112,0.207636422,0.263359279,3.552102304
24,0.414958458,0.185565948,0.267695347,3.52771377
25,0.371187553,0.167068932,0.272171195,3.502859969
26,0.334794057,0.151562392,0.27678508,3.477570208
27,0.304498672,0.138533855,0.281535045,3.451873968
28,0.279263119,0.127584188,0.28641891,3.425800843
29,0.258249386,0.118411542,0.291434268,3.399380478
30,0.240802973,0.110771314,0.296578481,3.372642508
31,0.22641648,0.104457352,0.301848678,3.345616501
32,0.214687726,0.099302966,0.307241756,3.318331897
33,0.20529683,0.095179615,0.312754378,3.290817956
34,0.197997423,0.091988941,0.318382976,3.263103701
35,0.192606641,0.089656429,0.324123756,3.235217863
36,0.188994538,0.08812933,0.329972698,3.207188836
37,0.187079855,0.087375554,0.335925566,3.179044626
38,0.186826394,0.087382818,0.341977917,3.150812802
39,0.18823738,0.088159246,0.348125105,3.122520457
40,0.191366214,0.089731336,0.354362296,3.094194165
41,0.196308118,0.09214823,0.360684473,3.065859939
42,0.203212927,0.095482225,0.367086459,3.037543202
43,0.212286723,0.099833868,0.37356292,3.009268744
44,0.223810178,0.105334679,0.380108385,2.981060701
45,0.23813954,0.112156577,0.386717264,2.952942518
46,0.255734797,0.120518813,0.393383857,2.92493693
47,0.277181824,0.130699308,0.400102379,2.897065935
48,0.303219573,0.143050616,0.406866971,2.869350777
49,0.334779882,0.158019929,0.413671722,2.841811924
50,0.373046097,0.176173378,0.420510687,2.814469058
51,0.41951569,0.198230757,0.427377902,2.787341061
52,0.476086616,0.225110532,0.434267407,2.760446
53,0.545164667,0.257988875,0.441173259,2.733801128
54,0.629825585,0.298374155,0.448089556,2.707422873
55,0.733976757,0.348212207,0.455010447,2.681326834
56,0.862598944,0.410019538,0.461930156,2.655527787
57,1.022022791,0.487060197,0.468842995,2.630039677
58,1.220260667,0.583578324,0.475743378,2.60487563
59,1.467397402,0.705097038,0.482625841,2.580047951
60,1.775947686,0.85880657,0.48948505,2.555568135
61,2.161155757,1.054046943,0.496315818,2.531446876
62,2.641030911,1.30289296,0.503113116,2.507694071
63,3.23582128,1.620823998,0.509872084,2.484318841
64,3.96643232,2.027410287,0.51658804,2.461329535
65,4.851077999,2.546860032,0.523256489,2.43873375
66,5.899333612,3.208120997,0.529873132,2.416538345
67,7.103034512,4.044003659,0.536433871,2.394749453
68,8.424650878,5.08852077,0.542934814,2.373372504
69,9.786395018,6.371451555,0.549372281,2.352412241
70,11.06712298,7.909365372,0.555742806,2.331872738
71,12.11655543,9.693514204,0.562043139,2.311757418
72,12.79201348,11.6776176,0.568270246,2.292069077
73,13.00906249,13.77194309,0.574421311,2.272809901
74,12.77991878,15.85153281,0.580493736,2.253981488
75,12.21194265,17.78180971,0.586485135,2.235584868
76,11.46291359,19.45363982,0.592393335,2.217620526
77,10.68112647,20.8105962,0.598216372,2.200088421
78,9.965246062,21.85446213,0.603952487,2.18298801
79,9.35723731,22.62966738,0.60960012,2.166318268
80,8.857936246,23.19924935,0.615157906,2.150077708
81,8.447928938,23.62502477,0.620624669,2.134264405
82,8.102941266,23.95699188,0.625999416,2.118876016
83,7.801843206,24.23068442,0.63128133,2.103909801
84,7.529208094,24.46896996,0.636469762,2.089362641
85,7.275032101,24.68537625,0.641564228,2.075231063
86,7.033438729,24.88729652,0.646564395,2.061511256
87,6.80127353,25.07847841,0.651470081,2.048199093
88,6.577016286,25.26068348,0.656281241,2.035290149
89,6.360018232,25.43470155,0.66099796,2.02277972
90,6.150030219,25.60090779,0.665620453,2.010662843
91,5.946986551,25.75955215,0.670149048,1.998934303
92,5.750818273,25.91085828,0.674584176,1.98758868
93,5.561449551,26.05507981,0.678926385,1.976620313
94,5.378813353,26.19249396,0.683176296,1.966023388
95,5.202749677,26.32339346,0.687334637,1.955791876
96,5.033167898,26.44808508,0.691402198,1.945919621
97,4.869858768,26.56686563,0.695379855,1.936400294
98,4.712702854,26.68003458,0.699268542,1.927227451
99,4.561485673,26.78787416,0.703069254,1.918394524
100,4.416060113,26.89066078,0.706783044,1.909894836
101,4.276227702,26.98865632,0.710411004,1.901721627
102,4.141817706,27.08211118,0.713954276,1.893868047
103,4.012652307,27.17126571,0.717414032,1.886327187
104,3.888547722,27.25634631,0.72079148,1.879092071
105,3.769338828,27.33757149,0.72408785,1.872155687
106,3.654843407,27.41514674,0.727304397,1.865510975
107,3.544902297,27.48926941,0.730442392,1.859150861
108,3.43934243,27.56012619,0.733503118,1.853068244
109,3.338008599,27.62789468,0.73648787,1.84725602
110,3.240739339,27.69274415,0.739397945,1.841707081
111,3.147384483,27.75483421,0.742234648,1.836414331
112,3.057793428,27.8143176,0.744999277,1.831370688
113,2.971823605,27.87133783,0.747693131,1.826569093
114,2.889333453,27.92603186,0.750317502,1.822002515
115,2.810189931,27.97852874,0.752873671,1.817663962
116,2.73425994,28.0289506,0.755362912,1.813546484
117,2.66142137,28.07741319,0.757786482,1.809643175
118,2.591549394,28.12402547,0.760145628,1.805947187
119,2.524526194,28.16889,0.762441577,1.80245173
120,2.460241116,28.2121039,0.76467554,1.799150074
121,2.398582554,28.25375814,0.766848708,1.796035561
122,2.339448183,28.2939383,0.768962251,1.793101605
123,2.282737754,28.33272498,0.771017321,1.790341694
124,2.228351921,28.37019335,0.773015044,1.787749397
125,2.176202402,28.40641408,0.774956523,1.785318369
126,2.126198229,28.44145311,0.776842841,1.783042349
127,2.078252931,28.47537177,0.778675054,1.78091517
128,2.032289077,28.50822761,0.780454191,1.778930755
129,1.988225322,28.54007378,0.782181261,1.777083123
130,1.945987322,28.57095953,0.783857244,1.775366397
131,1.905506296,28.60093083,0.785483094,1.773774795
132,1.866710694,28.63002975,0.787059743,1.772302639
133,1.829536596,28.65829502,0.788588092,1.770944364
134,1.793923209,28.6857625,0.790069019,1.769694505
135,1.759807987,28.71246465,0.791503377,1.768547707
136,1.727135802,28.73843107,0.79289199,1.767498735
137,1.695853572,28.76368888,0.794235659,1.766542458
138,1.665906858,28.78826226,0.795535159,1.765673858
139,1.63724775,28.81217287,0.796791237,1.76488805
140,1.6098307,28.83544034,0.798004619,1.764180247
141,1.583608537,28.85808171,0.799176004,1.763545788
142,1.558539103,28.88011185,0.800306065,1.762980142
143,1.534584277,28.90154398,0.801395453,1.762478887
144,1.511703769,28.92238903,0.802444793,1.762037729
145,1.489860928,28.94265622,0.803454688,1.761652496
146,1.46901991,28.96235298,0.804425716,1.761319142
147,1.449150458,28.9814853,0.805358432,1.761033753
148,1.430220322,29.00005752,0.806253368,1.760792532
149,1.412199751,29.01807252,0.807111035,1.760591813
150,1.395060844,29.03553184,0.807931921,1.76042806
151,1.378777247,29.05243574,0.808716491,1.760297867
152,1.36332412,29.06878329,0.809465189,1.760197956
153,1.348678066,29.08457245,0.81017844,1.76012518
154,1.334817079,29.09980013,0.810856644,1.760076525
155,1.321720519,29.11446225,0.811500184,1.760049109
156,1.309369048,29.12855384,0.812109421,1.760040181
157,1.297744605,29.14206911,0.812684695,1.760047125
158,1.286830364,29.15500146,0.813226329,1.76006746
159,1.276610694,29.16734361,0.813734625,1.760098836
160,1.267071138,29.17908763,0.814209864,1.760139043
161,1.258198372,29.19022498,0.814652312,1.760186002
162,1.249980181,29.20074662,0.815062212,1.760237773
163,1.242405435,29.210643,0.815439792,1.760292551
164,1.235464059,29.21990417,0.815785259,1.760348667
165,1.229147024,29.22851981,0.816098804,1.760404592
166,1.223446311,29.23647928,0.816380598,1.760458932
167,1.218354893,29.24377166,0.816630795,1.760510432
168,1.213866748,29.25038584,0.816849533,1.760557976
169,1.209976933,29.25631051,0.817036931,1.76060058
170,1.206683328,29.26153411,0.817193093,1.760637381
171,1.203981172,29.26604525,0.817318097,1.760667736
172,1.201865499,29.26983255,0.817412012,1.760691053
173,1.200339304,29.27288425,0.817474893,1.76070688
174,1.199400093,29.27518902,0.817506766,1.760714997
175,1.199047199,29.27673542,0.817507652,1.760715195
176,1.199291069,29.27751179,0.817477557,1.760707431
177,1.200129043,29.27750742,0.817416446,1.76069197
178,1.201556854,29.27671173,0.817324282,1.760669096
179,1.203576177,29.27511391,0.817201028,1.760639097
180,1.206208087,29.27270296,0.817046617,1.760602509
181,1.209453459,29.26946932,0.816860947,1.760560159
182,1.213310651,29.26540353,0.81664391,1.760512889
183,1.217784711,29.26049592,0.816395402,1.760461543
184,1.222902198,29.25473689,0.816115288,1.760407214
185,1.228667416,29.24811845,0.815803393,1.760351286
186,1.235081953,29.24063278,0.815459543,1.760295153
187,1.242157572,29.23227158,0.815083566,1.760240178
188,1.249935955,29.22302624,0.81467527,1.760187918
189,1.258422902,29.21289119,0.814234395,1.760140404
190,1.267620128,29.20186113,0.813760677,1.760099701
191,1.277529352,29.18993076,0.813253852,1.760067869
192,1.288152297,29.17709476,0.812713656,1.760046972
193,1.299522823,29.16334718,0.812139806,1.76003922
194,1.31168084,29.14868348,0.811531963,1.760047232
195,1.324639916,29.13310045,0.810889776,1.760073683
196,1.338415075,29.11659478,0.810212895,1.760121253
197,1.353037952,29.09916285,0.809500944,1.760192787
198,1.368532948,29.0808024,0.808753512,1.760291374
199,1.384921789,29.06151136,0.807970183,1.760420123
200,1.402235865,29.04128727,0.807150519,1.760582286
201,1.420502511,29.0201288,0.806294047,1.760781332
202,1.439748517,28.99803475,0.805400287,1.761020764
203,1.460007259,28.97500342,0.804468735,1.761304241
204,1.481311984,28.95103334,0.803498862,1.761635558
205,1.503696929,28.926123,0.802490118,1.762018631
206,1.527198061,28.90027073,0.801441929,1.762457508
207,1.551852924,28.87347476,0.8003537,1.762956353
208,1.577700587,28.84573263,0.799224814,1.763519453
209,1.604781927,28.81704133,0.798054627,1.764151222
210,1.633140641,28.7873975,0.796842475,1.764856191
211,1.662820824,28.75679656,0.795587668,1.765639007
212,1.693868575,28.72523286,0.794289494,1.766504437
213,1.726334296,28.69269996,0.792947214,1.767457364
214,1.760267741,28.65918965,0.791560067,1.768502781
215,1.795720892,28.62469203,0.790127268,1.769645795
216,1.832751315,28.58919584,0.788648006,1.770891624
217,1.871414935,28.5526874,0.787121445,1.772245591
218,1.911770597,28.51515066,0.785546727,1.773713127
219,1.953883469,28.47656758,0.783922966,1.775299766
220,1.997816085,28.43691685,0.782249254,1.777011139
221,2.043635521,28.39617416,0.780524659,1.778852982
222,2.091414566,28.35431243,0.778748224,1.780831122
223,2.141223113,28.31130046,0.776918968,1.782951477
224,2.193138004,28.26710335,0.775035887,1.785220062
225,2.247239264,28.22168254,0.773097954,1.78764297
226,2.30360526,28.17499455,0.77110412,1.790226381
227,2.362323728,28.12699157,0.769053314,1.792976556
228,2.423481864,28.07762103,0.766944444,1.795899829
229,2.487167857,28.02682472,0.764776399,1.799002605
230,2.553480286,27.97453964,0.762548047,1.802291359
231,2.622513848,27.92069674,0.76025824,1.805772627
232,2.694368849,27.86522086,0.757905811,1.809453004
233,2.769152266,27.8080314,0.755489579,1.813339136
234,2.846968448,27.74904075,0.753008351,1.817437719
235,2.92792979,27.68815481,0.750460919,1.821755493
236,3.012150636,27.62527314,0.747846065,1.82629923
237,3.099746329,27.56028784,0.745162566,1.831075737
238,3.190839025,27.4930841,0.742409189,1.836091842
239,3.285551204,27.42354,0.739584701,1.84135439
240,3.384008854,27.35152582,0.736687865,1.846870241
241,3.486340095,27.27690469,0.73371745,1.852646251
242,3.592677141,27.19953216,0.730672226,1.858689278
243,3.703152252,27.11925563,0.727550973,1.865006162
244,3.817897679,27.03591517,0.724352484,1.871603723
245,3.937054854,26.94934359,0.721075566,1.878488756
246,4.060754978,26.85936461,0.717719046,1.885668007
247,4.189132228,26.7657951,0.714281775,1.89314818
248,4.322335164,26.66844548,0.710762629,1.900935924
249,4.460485887,26.56711576,0.707160524,1.909037806
250,4.603711949,26.46159981,0.703474406,1.917460325
251,4.752164169,26.35168664,0.699703265,1.926209891
252,4.90596709,26.23715581,0.695846145,1.935292798
253,5.06519379,26.11777522,0.691902137,1.944715234
254,5.229989158,25.99331368,0.687870393,1.954483264
255,5.400457036,25.86353124,0.68375013,1.96460281
256,5.576687761,25.72818138,0.679540638,1.975079643
257,5.758765209,25.58701243,0.675241283,1.985919368
258,5.946754964,25.43976693,0.670851515,1.997127411
259,6.140707432,25.2861829,0.666370876,2.008709005
260,6.340655059,25.12599428,0.661799003,2.020669176
261,6.546608458,24.9589315,0.657135637,2.033012726
262,6.758655839,24.78473769,0.652380629,2.045744234
263,6.976582967,24.60311408,0.647533957,2.058867983
264,7.200452482,24.4138034,0.642595706,2.072388043
265,7.429986834,24.21650281,0.637566109,2.08630815
266,7.665167767,24.01095615,0.632445525,2.100631774
267,7.905762259,23.79688241,0.627234458,2.11536206
268,8.151537096,23.57401277,0.621933572,2.1305018
269,8.402279375,23.34209429,0.616543674,2.146053465
270,8.657537736,23.10084692,0.611065741,2.162019141
271,8.916968815,22.85002814,0.605500921,2.178400521
272,9.180149691,22.58940197,0.599850522,2.195198929
273,9.446391208,22.31870562,0.594116045,2.212415232
274,9.715177748,22.03773616,0.588299163,2.230049887
275,9.985854529,21.74629504,0.582401735,2.248102894
276,10.25759759,21.44418633,0.576425809,2.266573787
277,10.52952578,21.13123788,0.570373628,2.285461602
278,10.80070076,20.80730673,0.564247625,2.304764881
279,11.07009667,20.47227669,0.558050425,2.324481653
280,11.3365073,20.12604112,0.551784849,2.344609412
281,11.59864721,19.76852898,0.545453913,2.365145093
282,11.85518127,19.39971521,0.539060827,2.386085071
283,12.104682,19.01961441,0.532608985,2.407425147
284,12.34546174,18.62824183,0.526101974,2.429160528
285,12.57592397,18.22570401,0.519543564,2.45128581
286,12.79429994,17.81213589,0.5129377,2.473794972
287,12.99873391,17.38772423,0.506288506,2.49668136
288,13.18729482,16.95270917,0.499600266,2.519937678
289,13.35798719,16.50738911,0.492877426,2.543555977
290,13.50876612,16.05212436,0.486124581,2.567527644
291,13.63755556,15.5873406,0.479346467,2.591843395
292,13.74225253,15.1135279,0.47254795,2.616493265
293,13.82076803,14.63124845,0.465734014,2.641466602
294,13.87107245,14.1411433,0.458909754,2.66675206
295,13.89121321,13.64393088,0.452080357,2.692337598
296,13.87935045,13.14040879,0.445251093,2.718210474
297,13.83379601,12.63145487,0.438427298,2.744357246
298,13.75305507,12.11802746,0.431614365,2.770763767
299,13.63586985,11.60116467,0.424817724,2.797415189
300,13.48124434,11.08198146,0.418042829,2.824295965
301,13.28849177,10.56167088,0.411295144,2.851389848
302,13.05731969,10.04150213,0.404580128,2.878679902
303,12.7878441,9.522811233,0.397903215,2.906148505
304,12.48062538,9.006993463,0.391269804,2.933777359
305,12.13669838,8.495493857,0.384685243,2.9615475
306,11.75759442,7.989795861,0.37815481,2.989439309
307,11.34535337,7.491408035,0.371683705,3.017432524
308,10.90249449,7.001855017,0.365277032,3.045506257
309,10.43176745,6.522718473,0.358939784,3.073639007
310,9.936925716,6.055446739,0.352676834,3.101808683
311,9.421843374,5.601502333,0.346492923,3.129992623
312,8.890752825,5.162286521,0.340392644,3.158167613
313,8.348162179,4.739120373,0.334380438,3.186309912
314,7.798677886,4.333250863,0.328460579,3.214395279
315,7.247279474,3.945712268,0.322637171,3.242399
316,6.698717066,3.577461764,0.316914134,3.270295914
317,6.157626148,3.229299238,0.311295207,3.298060446
318,5.628521428,2.901811089,0.305783932,3.325666642
319,5.115558952,2.595402718,0.300383659,3.353088195
320,4.622355515,2.310334817,0.295097539,3.38029849
321,4.152176678,2.046620199,0.289928523,3.407270634
322,3.70782909,1.804026192,0.284879361,3.433977499
323,3.291302908,1.582225953,0.279952603,3.460391763
324,2.904161473,1.380640279,0.275150602,3.486485946
325,2.547205375,1.198597122,0.270475511,3.51223246
326,2.220849945,1.035192087,0.265929296,3.53760365
327,1.924857819,0.889446351,0.26151373,3.56257184
328,1.658530049,0.760279423,0.257230408,3.587109381
329,1.420782887,0.646529462,0.253080746,3.611188698
330,1.210183609,0.546990016,0.249065991,3.634782339
331,1.025035119,0.460436093,0.245187229,3.657863026
332,0.863448181,0.385653731,0.241445391,3.680403703
333,0.723450622,0.321435203,0.237841265,3.702377591
334,0.603000293,0.266627184,0.234375503,3.723758237
335,0.500069736,0.220131239,0.231048629,3.744519568
336,0.412685016,0.180920754,0.227861054,3.764635942
337,0.338970951,0.148041768,0.224813079,3.784082201
338,0.277168031,0.120625124,0.221904912,3.802833725
339,0.225655467,0.097886156,0.219136674,3.820866485
340,0.182959295,0.079126181,0.216508411,3.838157091
341,0.147760931,0.063726287,0.214020102,3.854682851
342,0.118893327,0.051144328,0.211671674,3.870421816
343,0.095332774,0.040911632,0.209463004,3.885352832
344,0.076192075,0.032625722,0.207393938,3.899455593
345,0.060709647,0.02594386,0.205464293,3.912710687
346,0.048237627,0.020576316,0.203673868,3.925099643
347,0.038229253,0.016280134,0.202022454,3.936604976
348,0.030226605,0.012853061,0.200509842,3.947210236
349,0.023848888,0.010127909,0.199135828,3.956900046
350,0.018781847,0.007967044,0.197900223,3.965660144
351,0.014767437,0.006258082,0.196802857,3.973477423
352,0.011595045,0.004909753,0.195843589,3.980339966
353,0.009093819,0.003848199,0.195022307,3.986237081
354,0.007125786,0.003013992,0.194338937,3.991159331
355,0.005580054,0.002359497,0.193793444,3.995098565
356,0.004367881,0.001846693,0.193385839,3.998047944
357,0.003418503,0.001445363,0.193116177,4.00000196
358,0.002675728,0.001131542,0.192984564,4.000956461
359,0.002095053,0.000886308,0.192991152,4.000908666
360,0.001641359,0.000694742,0.193136147,3.999857178
361,0.001286985,0.000545124,0.193419803,3.997801993
362,0.001010212,0.000428257,0.193842422,3.994744512
363,0.000794013,0.000336943,0.194404353,3.990687535
364,0.000625064,0.000265557,0.195105992,3.985635269
365,0.000492958,0.000209705,0.195947773,3.979593321
366,0.000389573,0.000165966,0.196930169,3.972568688
367,0.000308579,0.00013167,0.198053683,3.964569747
368,0.000245047,0.000104741,0.199318847,3.955606243
369,0.000195136,8.36E-05,0.200726212,3.945689265
370,0.000155861,6.69E-05,0.202276342,3.934831226
371,0.000124897,5.37E-05,0.203969806,3.92304584
372,0.000100434,4.33E-05,0.205807171,3.910348086
373,8.11E-05,3.50E-05,0.207788993,3.896754182
374,6.57E-05,2.84E-05,0.209915804,3.882281544
375,5.35E-05,2.32E-05,0.212188107,3.86694875
376,4.37E-05,1.90E-05,0.214606359,3.850775496
377,3.59E-05,1.56E-05,0.217170968,3.83378255
378,2.96E-05,1.29E-05,0.219882272,3.815991707
379,2.45E-05,1.08E-05,0.222740538,3.797425736
380,2.05E-05,0,0.225745938,3.778108327
381,1.72E-05,0,0.228898547,3.758064038
382,1.45E-05,0,0.232198325,3.737318236
383,1.23E-05,0,0.235645107,3.715897039
