Time,J,A,S,tau
0.0,100.0,100.0,0.591408285970857,27.027027027027028
1.0,99.61380893294181,36.78881292272988,0.5903537159196166,27.919742965483973
2.0,99.2351590389349,13.533700496930543,0.5892790222813521,28.817534559808877
3.0,98.86369723242885,4.978716039024813,0.5881867510513519,29.720027149614825
4.0,98.49908552020874,1.831547395561671,0.5870791682132789,30.62689135247398
5.0,98.14099866066547,0.6737813403665293,0.5859583393281909,31.537817927039782
6.0,97.78912348497454,0.24786763884190294,0.5848261408533078,32.452516705554764
7.0,97.44315825165322,0.09118444711631517,0.5836842716659679,33.370715513651696
8.0,97.10281203249671,0.03354454890691393,0.5825342646023645,34.29215909174013
9.0,96.7678041280197,0.012340246654511448,0.5813774978589866,35.21660802941399
10.0,96.43786351064485,0.0045397042074800924,0.5802152061381516,36.14383772181495
11.0,96.11272829398972,0.0016700752839619072,0.5790484914478032,37.07363735472558
12.0,95.7921452267024,0.0006144082697232623,0.5778783334902629,38.00580892331923
13.0,95.47586920939192,0.00022605323080302387,0.5767055995952062,38.94016628793321
14.0,95.1636628332845,8.318594441095314e-05,0.575531054169239,39.876534268927266
15.0,94.85529593932353,3.0627864954217e-05,0.5743553676484112,40.81474778161736
16.0,94.5505451964963,1.1292304935264888e-05,0.5731791249515102,41.754651011379174
17.0,94.24919369825301,4.178533178377827e-06,0.5720028334408492,42.69609662832257
18.0,93.95103057595301,1.5609246941960203e-06,0.5708269304043797,43.638945040374196
19.0,93.65585062829875,5.973936074719277e-07,0.5696517900788438,44.58306368311492
20.0,93.36345396586532,2.424153538787902e-07,0.5684777302367968,45.52832634448856
21.0,93.07364566957268,1.1135155497741423e-07,0.5673050183665193,46.47461252187707
22.0,92.78623546319731,6.272181925751135e-08,0.5661338774645283,47.421806810160405
23.0,92.50103739677368,4.445146380485562e-08,0.564964491492492,48.369798315694574
24.0,92.2178695372165,3.7382739771981815e-08,0.5637970105422851,49.318480091942625
25.0,91.9365536647175,3.443335865724475e-08,0.5626315557169661,50.267748596687845
26.0,91.65691509665064,3.2930278558130226e-08,0.5614682231165877,51.21750324536761
27.0,91.37878217868938,3.25166536905374e-08,0.5603070894549211,52.16764576000894
28.0,91.1019863191147,3.2211726189759093e-08,0.5591482146406137,53.11807987016559
29.0,90.82636123749103,3.1917611903866244e-08,0.5579916478968455,54.068710583015864
30.0,90.55174403936873,3.173036628445797e-08,0.5568374279461702,55.019444151664494
31.0,90.2779726207252,3.170107354794611e-08,0.5556855911750533,55.97018710704226
32.0,90.00488784026969,3.1689709294421914e-08,0.5545361732668371,56.92084600226978
33.0,89.73233204230537,3.171186357862471e-08,0.5533892127795367,57.87132699449395
34.0,89.46014865449078,3.175273781258907e-08,0.5522447527108515,58.8215356452899
35.0,89.18818294220928,3.189484772282011e-08,0.5511028501487119,59.77137566152057
36.0,88.91628078914562,3.207313557495467e-08,0.5499635682383044,60.720749952510445
37.0,88.64428942801682,3.2302644279608634e-08,0.5488270015241196,61.6695573175643
38.0,88.37205638502638,3.2669209309843524e-08,0.5476932525573738,62.61769550902253
39.0,88.0994298139744,3.3050927448595825e-08,0.5465624485326265,63.56505903899903
40.0,87.82625819556543,3.349487396879443e-08,0.5454347672846173,64.5115357909958
41.0,87.55239005823312,3.4047435124120274e-08,0.5443103918313554,65.45701296707583
42.0,87.27767399633927,3.460389743847186e-08,0.5431895533564052,66.4013714344241
43.0,87.00195809827517,3.52667760814117e-08,0.5420725451186745,67.34448393425488
44.0,86.72509045391594,3.6056369704502744e-08,0.5409596685926868,68.28622211978224
45.0,86.44691828157369,3.6862996435418044e-08,0.5398513110554196,69.22644638125135
46.0,86.1672878972595,3.7795787255837505e-08,0.5387479182816358,70.16500946698157
47.0,85.88604548398125,3.878115808181711e-08,0.5376499562903531,71.10176144396212
48.0,85.60303520673664,3.981881237625396e-08,0.5365580221630367,72.03653523350836
49.0,85.31810044381466,4.107528269567106e-08,0.535472755427897,72.96915822771223
50.0,85.0310838549219,4.2391425312723716e-08,0.5343948520557994,73.89945039649409
51.0,84.7418252257819,4.3792179584226794e-08,0.5333251710101468,74.82721046738138
52.0,84.45016381023038,4.536808661195026e-08,0.5322646002702756,75.75223339090962
53.0,84.15593696572746,4.699102462220435e-08,0.5312141507937999,76.67429804267421
54.0,83.85897950849655,4.881863257166311e-08,0.5301749719113843,77.59316531784386
55.0,83.55912529119385,5.0736051793233244e-08,0.5291482790876006,78.50858746662912
56.0,83.25620469383547,5.281798395172126e-08,0.5281354882402842,79.42029067181957
57.0,82.95004713269967,5.509710753920892e-08,0.5271380746714946,80.32799338531999
58.0,82.64047863364333,5.747740244375509e-08,0.5261577250240829,81.23138652312589
59.0,82.32732321651378,6.014613858351893e-08,0.5251962385754526,82.13014636802266
60.0,82.01040251560961,6.28939519711428e-08,0.5242555785520443,83.02392777676661
61.0,81.6895346056353,6.595835125510362e-08,0.5233379142735155,83.9123587307361
62.0,81.36453625910241,6.916167545342986e-08,0.5224455145094931,84.79505417660664
63.0,81.03521964871082,7.261918846884523e-08,0.5215809288860215,85.6715921912508
64.0,80.70139558353864,7.641062879442059e-08,0.5207467956583994,86.54153919527343
65.0,80.36287091762759,8.039789877826388e-08,0.5199460127523378,87.40442720814235
66.0,80.01945019741761,8.467076461470481e-08,0.5191816156252278,88.25976997406417
67.0,79.67093426200371,8.919272375359824e-08,0.5184568755608852,89.1070495224795
68.0,79.3171212521511,9.417380806251386e-08,0.517775213900669,89.94572751151148
69.0,78.95780630234009,9.9409058398026e-08,0.5171402409784738,90.7752396490956
70.0,78.5927814265523,1.8866386805692908e-07,0.5165557348201533,91.59499813544929
71.0,78.22183553660727,2.98594139895707e-07,0.5160256273540379,92.40439300593357
72.0,77.84475467500296,4.131508076125373e-07,0.5155539795794825,93.20279512465783
73.0,77.46132135587767,5.326204166819517e-07,0.5151449753769481,93.98955535430409
74.0,77.07131599017661,6.572928365673785e-07,0.5148028636667643,94.76401349941531
75.0,76.67451545206357,7.874595268698698e-07,0.5145319449425705,95.52549625137561
76.0,76.2706943439094,9.234131522439005e-07,0.5143365301758419,96.27332493635427
77.0,75.85962480772356,1.0654409920698692e-06,0.5142208754793138,97.00682024794938
78.0,75.4410760553257,1.2138272029530649e-06,0.5141891550072407,97.72530594402917
79.0,75.01481605058255,1.3688452810723334e-06,0.5142453995474895,98.42811626564772
80.0,74.58060956466095,1.5307567237380406e-06,0.5143933928101477,99.11460459666236
81.0,74.13822111567417,1.6998102625044915e-06,0.5146367354530884,99.78414054843626
82.0,73.68741221887684,1.8762279793847383e-06,0.5149785129107981,100.43613935548566
83.0,73.22794446727484,2.0602223753684904e-06,0.5154216623826433,101.07003009744457
84.0,72.75957837658113,2.251963107911016e-06,0.5159683452585643,101.68531398365708
85.0,72.28207315366721,2.4516035296521797e-06,0.5166203830623198,102.28152343877385
86.0,71.79519005048073,2.659264562133439e-06,0.5173790711947885,102.85824125355737
87.0,71.29868916019028,2.8750117023106285e-06,0.5182445912341638,103.41515276939114
88.0,70.7923309756083,3.0989065630312897e-06,0.5192170708229378,103.95194910854326
89.0,70.27588092678124,3.3309562778286147e-06,0.5202956904780565,104.46840946939399
90.0,69.74910491717718,3.5710936007830642e-06,0.5214780497541573,104.96445234205345
91.0,69.21176868397448,3.819247637834358e-06,0.5227616619586531,105.4400036244006
92.0,68.66364208286112,4.075327270721481e-06,0.5241437220024158,105.89501835520544
93.0,68.1045054604945,4.339153061042632e-06,0.5256196852665993,106.3295983718741
94.0,67.53413888404592,4.61052266006176e-06,0.5271844161357386,106.74389141499337
95.0,66.95232759773155,4.8892166950325394e-06,0.5288325012817962,107.1380681784672
96.0,66.358869901841,5.17494911147209e-06,0.530557068977147,107.51240604326264
97.0,65.75356573011422,5.4674174861830104e-06,0.5323508082148949,107.8672122560301
98.0,65.13622444002469,5.766297344337782e-06,0.5342059884034112,108.20282167513712
99.0,64.506671100663,6.071219502442769e-06,0.5361137680278528,108.51963400202884
100.0,63.86473404038312,6.381806497087462e-06,0.5380650741434477,108.8180610811499
101.0,63.210261126621795,6.697652316354044e-06,0.5400501305982438,109.09854516127568
102.0,62.54311002533673,7.0183365937964704e-06,0.5420586519751314,109.36154656627842
103.0,61.863151557907926,7.343427288728401e-06,0.5440800907107246,109.6075324082121
104.0,61.170280358167766,7.67247691405907e-06,0.5461032819110379,109.83697719227978
105.0,60.464397485464914,8.00503467248151e-06,0.5481169280644381,110.05035581357745
106.0,59.74543440720612,8.340639061483612e-06,0.5501093265901457,110.24813584126156
107.0,59.01333653557457,8.678828715344478e-06,0.5520685431165007,110.43077615484712
108.0,58.26807008841262,9.019136532086399e-06,0.5539824987999133,110.59872751041327
109.0,57.50963460183495,9.361097487775328e-06,0.5558388476838558,110.75241584415036
110.0,56.73804081598409,9.704247331619916e-06,0.5576251847332377,110.89225866751082
111.0,55.953336244829,1.0048120309986304e-05,0.5593289685325867,111.01865032836456
112.0,55.15559434710034,9.835991557237791e-06,0.5715197779130019,102.20857047392062
113.0,54.34491705974231,9.614825093225859e-06,0.591407982843078,87.83438595834568
114.0,53.521438773806615,9.396555444575269e-06,0.6150651695650625,71.05412694917644
115.0,52.685326853496974,9.181190655848165e-06,0.6327175511939255,59.037726596735254
116.0,51.83678309130916,8.96873855009497e-06,0.6433895341490947,51.60312627744492
117.0,50.976045084473995,8.80906279363343e-06,0.6494888510710245,46.7097481109417
118.0,50.1033877011828,9.253444860110974e-06,0.6526575381450079,43.2329657159874
119.0,49.21912547961133,1.0292579269539361e-05,0.6538274142923395,40.61468521723232
120.0,48.323612506961865,1.1840684469351854e-05,0.6535480630569642,38.557255129471315
121.0,47.417243396949786,1.385052893008072e-05,0.6521646924325354,36.88832645450824
122.0,46.5004542578696,1.6295947522818116e-05,0.649907020160672,35.500909158274176
123.0,45.57372347584465,1.9163027849419608e-05,0.6469355774214121,34.32473391261649
124.0,44.637572339105354,2.2445321315848856e-05,0.6433672005638029,33.311522494636314
125.0,43.692565373076675,2.6140920475940654e-05,0.6392899470903471,32.426846554199415
126.0,42.73931069595372,3.025074910771792e-05,0.6347721209792425,31.64542909752183
127.0,41.77845973687789,3.477724419598931e-05,0.6298681684058955,30.948205433420966
128.0,40.81070720549625,3.9723477542455706e-05,0.624622428938715,30.320516934543168
129.0,39.83679049932008,4.509248835633223e-05,0.6190717755375473,29.75088284578821
130.0,38.857488839925644,5.088674678150062e-05,0.6132474460702818,29.230173745271752
131.0,37.87362213022366,5.710768014596077e-05,0.6071763495937956,28.751033593696864
132.0,36.88604981526116,6.375529997450883e-05,0.6008820020676585,28.307477156512963
133.0,35.89566905256655,7.08278845021818e-05,0.5943852520259697,27.89458413617278
134.0,34.90341255360404,7.832170450562639e-05,0.5877048207990191,27.508274542146076
135.0,33.91024630196678,8.62307377723825e-05,0.5808577008756383,27.14514309802304
136.0,32.91716723031031,9.454659042535067e-05,0.5738594837831476,26.802332958320346
137.0,31.925201185595064,0.00010325813995838511,0.5667245753010655,26.47744299492615
138.0,30.935396788844372,0.00011217943453320072,0.5594664704038476,26.168418422266836
139.0,29.948823326430485,0.00012064611644289802,0.5520978206890585,25.873521278908914
140.0,28.966565408375633,0.00012859982500824653,0.5446306039321234,25.591266986224436
141.0,27.98972349564415,0.00013604622828871626,0.5370762423042307,25.320383653226507
142.0,27.01940439435734,0.0001429926456894665,0.5294456383694989,25.059778906646685
143.0,26.056718788531594,0.00014991551660833863,0.5217492720307699,24.808510117795233
144.0,25.10277870214354,0.00015798642461450143,0.513997238686358,24.56576593726219
145.0,24.158693749880236,0.00016817036988124001,0.5061992976264315,24.3308447726469
146.0,23.225565136754902,0.00018126711486380617,0.49836490304301817,24.10313913087694
147.0,22.304479924656256,0.0001979761290751239,0.4905032301065201,23.882122061614467
148.0,21.396505436351514,0.00021892706979829025,0.48262319482419547,23.66733577875196
149.0,20.502683682070515,0.00024469414762417536,0.4747334691977352,23.458381883730073
150.0,19.624025860299895,0.0002758020220609381,0.4668424919069871,23.254913116189968
151.0,18.76150696110594,0.0003127269132669924,0.4589584756274559,23.0566262686301
152.0,17.916060437994286,0.00035589483423306847,0.4510894113288548,22.86325611815231
153.0,17.088573264311876,0.0004056782515465862,0.4432430706520378,22.67457018393753
154.0,16.2798808179289,0.00046239143772331727,0.4354270048621228,22.490364366242762
155.0,15.49076285271014,0.0005262860993480539,0.42764854491154847,22.310458928993775
156.0,14.72193827309176,0.0005975461568124906,0.4199147966544793,22.13469531186599
157.0,13.974061798350807,0.0006762833590261002,0.4122326376391407,21.962933242832907
158.0,13.247716143152953,0.0007625339840531888,0.4046087113120217,21.795048058703028
159.0,12.543433454893538,0.0008562543845062914,0.3970494329568095,21.630929400250412
160.0,11.861652749899099,0.0009570937251193382,0.38956096779682525,21.47047793696102
161.0,11.20274110968262,0.0010637335537207698,0.38214923099086867,21.313604959899184
162.0,10.566988507108027,0.001174685226133769,0.37481988742570327,21.16023056153856
163.0,9.954605710901497,0.0012885448983279257,0.3675783446831567,21.010282504115086
164.0,9.365723588790967,0.0014042200090456265,0.36042974727407256,20.86369520605973
165.0,8.80039773945263,0.0015220691990284958,0.3533789756958776,20.720408836931725
166.0,8.258609745738466,0.0016440369965347093,0.3464306394467076,20.580368568165614
167.0,7.740275500247401,0.0017731109542209428,0.3395890778733378,20.443523897079537
168.0,7.245247301116609,0.0019129717933383317,0.33285835624360016,20.309828092387047
169.0,6.773318435655157,0.0020677399042686793,0.3262422660031518,20.179237698829166
170.0,6.324226027715001,0.002241775983502103,0.31974432460192403,20.051712115063662
171.0,5.897654050679632,0.0024395130137114273,0.3133677764234463,19.92721323103683
172.0,5.493236285991107,0.002665309530987297,0.30711559462251764,19.80570511642546
173.0,5.110559271895996,0.0029233195517519603,0.3009904838322082,19.687153753471552
174.0,4.749165219876329,0.003217377224386683,0.29499488365822396,19.571526808314893
175.0,4.40855471189729,0.003550896377964229,0.2891309731609787,19.45879343372459
176.0,4.088190845478275,0.003926786027302901,0.28340067704781674,19.34892410202849
177.0,3.78750059254832,0.004347378113968894,0.27780567013580065,19.2418904646661
178.0,3.505880106376452,0.004814374556474804,0.27234738574332956,19.13766523122233
179.0,3.2426966630655762,0.005328784432784827,0.2670270229375535,19.036222064657146
180.0,2.9972963999383344,0.005890328250478882,0.26184555438838164,18.937535507042973
181.0,2.769001091016014,0.006496986552047841,0.2568037380000989,18.841580885246422
182.0,2.55710843913025,0.007145209251202388,0.2519021201402818,18.748334270417182
183.0,2.360899423544437,0.007830400140568728,0.24714105062293204,18.65777242033939
184.0,2.179639851617728,0.008548150286088409,0.24252069146549468,18.569872739151823
185.0,2.012585535789985,0.009295719708409478,0.23804102694519252,18.484613242866303
186.0,1.858994569319,0.010072815749403472,0.23370187569325065,18.40197253236271
187.0,1.7181337295154793,0.01088182528456946,0.2295029006625887,18.321929767966747
188.0,1.5892896320636358,0.011727742757807733,0.22544362120528552,18.24446464968102
189.0,1.4717723624317676,0.012617894063554246,0.22152342254820234,18.169557399416252
190.0,1.3649262954929557,0.013561547997585483,0.2177415691339085,18.09718874464347
191.0,1.2681326802315154,0.014569450820488163,0.214097215255482,18.02733990193107
192.0,1.180812320332277,0.01565333508968653,0.2105894161562092,17.959992561047756
193.0,1.1024270972225252,0.016825425880336906,0.20721713898662125,17.895128869066696
194.0,1.032480664491869,0.018097965730737353,0.20397927423369847,17.83273141119296
195.0,0.9705168445588973,0.01948277918211173,0.20087464642143266,17.772783189772614
196.0,0.9161176928982203,0.02099088951314631,0.197902024640945,17.715267601994007
197.0,0.8689007430489816,0.022632182056807774,0.19506013271680903,17.660168415974397
198.0,0.8285162925434056,0.02441489236076515,0.19234765924558764,17.607469745534868
199.0,0.7946441291750974,0.02634490554705447,0.18976326764851367,17.557156021115162
200.0,0.766987910680112,0.028425261998632014,0.18730560507999555,17.509211962899588
201.0,0.7452702619718302,0.03065605017202978,0.18497331144048712,17.46362255330242
202.0,0.7292278699915474,0.033034963101901585,0.182765027827343,17.420373011224815
203.0,0.7186081805952258,0.035558512524052996,0.18067940451261782,17.379448769142464
204.0,0.7131685490139936,0.0382234381130543,0.17871510840954524,17.34083545455759
205.0,0.7126786375650531,0.04102801305003615,0.1768708300681549,17.30451887606787
206.0,0.7169239532771022,0.04397308044410954,0.17514529001448378,17.270485016979244
207.0,0.7257111208914265,0.04706279399562886,0.17353724462931971,17.238720036396668
208.0,0.73887441552408,0.050305087818390395,0.17204549129716368,17.209210276964875
209.0,0.7562810936359228,0.053711837232860216,0.17066887313714113,17.181942283745236
210.0,0.7778371361485952,0.05729881490340281,0.16940628305392388,17.15690282999093
211.0,0.8034919896628154,0.06108545987685767,0.16825666723288937,17.1340789513913
212.0,0.833242329125391,0.06509450997917046,0.16721902808267483,17.113457987469904
213.0,0.8671347485288179,0.06935154226301786,0.16629242664973057,17.09502762877565
214.0,0.9052673775486141,0.07388446114190524,0.1654759845375496,17.07877596814224
215.0,0.9477905050225369,0.07872293548190365,0.16476888536866002,17.064691553991032
216.0,0.9949062654284281,0.08389771143415782,0.16417037583139527,17.05276344344871
217.0,1.046867275425135,0.08943981252593801,0.1636797663556604,17.042981252959578
218.0,1.1039741424287357,0.09537973827195423,0.16329643146224473,17.03533520410269
219.0,1.1665719568077093,0.10174682599662964,0.16301980982864903,17.029816162477704
220.0,1.2350461607543455,0.10856898733123904,0.16284940411097146,17.0264156677939
221.0,1.3098185396863373,0.11587291628765259,0.16278478055629705,17.02512595366996
222.0,1.3913441673730522,0.1236847226602443,0.1628255684335384,17.025939956107276
223.0,1.4801099608721862,0.13203088357042336,0.16297145930313303,17.02885131011006
224.0,1.57663523646943,0.140939396123965,0.16322220613782584,17.03385433446233
225.0,1.6814744127911163,0.15044103370015394,0.16357762229840042,17.040944005203304
226.0,1.7952218277836653,0.160570614975562,0.16403758036012683,17.050115918838507
227.0,1.9185184750337492,0.17136822764456044,0.16460201077829753,17.06136624675686
228.0,2.052060348288533,0.18288036428708115,0.16527090036924963,17.074691682657214
229.0,2.1966081524009295,0.1951609433162709,0.16604429060321751,17.09008938508437
230.0,2.3529980362645637,0.20827220173213684,0.16692227566947096,17.1075569172246
231.0,2.5221528316555655,0.22228546368039726,0.1679050002669909,17.127092186144345
232.0,2.7050936162367716,0.23728178676948075,0.16899265712290693,17.148693383635017
233.0,2.9029512312357504,0.2533524793895184,0.1701854842028585,17.172358930537342
234.0,3.1169774050142385,0.2705994635433564,0.1714837615914639,17.198087426165376
235.0,3.348555068943232,0.2891354716185924,0.17288780802599615,17.22587760410671
236.0,3.5992074115970523,0.3090840961082473,0.1743979770722141,17.25572829529396
237.0,3.8706052267010507,0.3305797565557004,0.17601465293779125,17.287638398847175
238.0,4.164572198924356,0.3537676916677371,0.17773824592558277,17.321606860801804
239.0,4.483087925832969,0.37880409272677534,0.17956918753571596,17.3576326604819
240.0,4.828288617060972,0.4058564742906008,0.18150792523188644,17.395714803971686
