Time,J,A,S,tau
0.0,100.0,100.0,0.44065356986734366,23.809523809523807
1.0,96.36708253126847,91.79580425496061,0.4410833735781522,23.705658003037733
2.0,92.8587584074686,84.2488453074605,0.4415250990824511,23.599107765291983
3.0,89.47247324981026,77.31063704561826,0.4419784302198684,23.48996064565461
4.0,86.20438429898913,70.93317412931712,0.4424432965458399,23.378245030551334
5.0,83.05097255879231,65.07216810783561,0.442919623245086,23.263990278524965
6.0,80.00930671687604,59.68672726484306,0.44340733110635344,23.14722671149615
7.0,77.0775505499862,54.73908299346455,0.44390633647819466,23.02798561007028
8.0,74.25585290183143,50.19441773307703,0.4444165512189441,22.90629920950282
9.0,71.54768079231378,46.020618313485365,0.4449378826856491,22.782200687551267
10.0,68.96162334958305,42.18805221671481,0.4454702337078734,22.655724155628498
11.0,66.51360546369133,38.66938499024152,0.44601350254210964,22.526904653693524
12.0,64.2292186943841,35.439441418799326,0.4465675828494729,22.39577814007783
13.0,62.14564608529563,32.475012612267086,0.4471323636902753,22.26238147825449
14.0,60.31277207373477,29.75469561562109,0.4477077294982309,22.126752427618747
15.0,58.793109303956264,27.258790638247344,0.44829356004426607,21.9889296359014
16.0,57.659813089592376,24.969132627923262,0.44888973045706204,21.84895262105384
17.0,56.993236744685355,22.868995957718617,0.4494961111805217,21.706861764833246
18.0,56.875974143703125,20.94298702403782,0.4501125679918205,21.562698295212552
19.0,57.38673835435872,19.176929700351593,0.4507389619714355,21.416504277555966
20.0,58.594200685763795,17.55777878894892,0.4513751495302582,21.26832259561383
21.0,60.55085921625472,16.07352579515929,0.4520209823819882,21.118196942163873
22.0,63.288551256570564,14.713137009460377,0.45225951581800045,21.064313918081506
23.0,66.81449731811941,13.46644155694779,0.45245152955230244,21.021436514473343
24.0,71.11042119542951,12.324117206069458,0.45263979076493605,20.97947472603029
25.0,76.13246654838527,11.277634007884126,0.45282424824884715,20.93843507413366
26.0,81.8132136650497,10.319257934303284,0.4530048521988531,20.898323806104326
27.0,88.06452880384235,9.442138686599854,0.4531815542281692,20.859146898676503
28.0,94.7815817352009,8.640554648013946,0.45335430737851523,20.820910062565115
29.0,101.84678763693539,7.910316743532707,0.45352306611959253,20.783618748833767
30.0,109.13375990714219,7.2494340259164,0.45368778636513335,20.747278152070365
31.0,116.51173917041268,6.659008704202521,0.45384842547715043,20.711893215485084
32.0,123.85074809657499,6.144220639894976,0.4540049422656509,20.677468636607287
33.0,131.02879991176403,5.715294291420963,0.45415729700065216,20.644008870733956
34.0,137.94127768740074,5.38812625838865,0.4543054514096129,20.611518136554608
35.0,144.51036753506304,5.184367078197428,0.4544493686834507,20.58000042019253
36.0,150.68873935851184,5.130700961734313,0.4545890134762793,20.54945948007905
37.0,156.44879656896913,5.257289780603853,0.4547243519070602,20.519898851297874
38.0,161.75098499549208,5.595436759689217,0.4548553515579265,20.49132185024559
39.0,166.49575188030653,6.174720461052366,0.45498198147263536,20.4637315790695
40.0,170.48062340242623,7.019950268682798,0.4551042121547114,20.43713092993661
41.0,173.3945735816077,8.148331146977943,0.45522201556259106,20.411522589541885
42.0,174.870568854918,9.567193394603962,0.4553353651066192,20.386909043126003
43.0,174.58395264017338,11.272538962385395,0.45544423564187164,20.363292578922543
44.0,172.3532937596506,13.248560963835645,0.4555486034632958,20.34067529203874
45.0,168.19420079521805,15.468117162950652,0.45564844629640555,20.319059088771617
46.0,162.3069280349593,17.894030156928142,0.4557437432908988,20.298445690317678
47.0,155.01326224249343,20.481013088654674,0.4558344750116956,20.278836636673272
48.0,146.67906961345977,23.177977967366722,0.4559206234283062,20.26023329053988
49.0,137.65264445657928,25.930462417825346,0.4560021719046502,20.242636840988094
50.0,128.23055167914904,28.683047535552777,0.4560791051892223,20.226048306904644
51.0,118.64769743652107,31.381829039184503,0.45615140940407356,20.21046854045372
52.0,109.08158997237209,33.977203004860314,0.456219072032002,20.195898230572425
53.0,99.66115773448591,36.42733596781159,0.45628208190387554,20.182337906306174
54.0,90.47442391360971,38.702420804815546,0.4563404291901506,20.16978793940948
55.0,81.57392529712605,40.78873718444039,0.45639410538159714,20.15824854828419
56.0,72.98150908159087,42.69011176147524,0.4564431032883634,20.147719799364918
57.0,64.69800118010029,44.422477350820515,0.4564874170178377,20.138201610948883
58.0,56.72118917971021,45.998833763025466,0.45652704196868465,20.1296937551537
59.0,49.07106509674288,47.40679932637826,0.4565619748095592,20.122195861378817
60.0,41.814006126308165,48.58756485801833,0.4565922134751448,20.115707417886462
61.0,35.070220859308016,49.43165590144374,0.4566177571539153,20.110227773755923
62.0,28.993688375697552,49.80140089534967,0.4566386062762338,20.105756141087454
63.0,23.728748926429514,49.574785862800596,0.45665476250391346,20.102291596783044
64.0,19.363351259858803,48.69040934290283,0.45666622871947027,20.099833084339924
65.0,15.902100349545037,47.171048232113826,0.45667300901904484,20.098379415009074
66.0,13.270629705859802,45.11612044087128,0.45667510870009737,20.09792926964692
67.0,11.344175773135074,42.67144491609271,0.45667253425490323,20.098481199651584
68.0,9.984439482829039,39.993127300229844,0.45666529336251943,20.10003362804157
69.0,9.07013515081742,37.21986524178427,0.4566533948815715,20.102584850357772
70.0,8.514840106828482,34.45907162349918,0.45663684884346245,20.1061330354295
71.0,8.272913362550236,31.784813719056658,0.45661566644604124,20.110676226013094
72.0,8.337453078776559,29.242582781089997,0.45658986005004676,20.116212338970907
73.0,8.733843943687559,26.856484347704818,0.456559443171262,20.122739165929804
74.0,9.511589824991907,24.63599561544204,0.4565244304768099,20.13025437338753
75.0,10.735580053214585,22.581329262582724,0.4564848377819817,20.13875550258268
76.0,12.47730263628246,20.687224269254205,0.45644068204514315,20.14823996956269
77.0,14.80652785696503,18.945449521632238,0.45639198136491704,20.158705064869643
78.0,17.783720601361402,17.346389175278897,0.45633875497613263,20.170147953306923
79.0,21.453718708468372,15.880021359036904,0.45628102324685954,20.182565673444792
80.0,25.84089375084213,14.536489281360305,0.45621880767564116,20.19595513703522
81.0,30.946222185093305,13.306411672941827,0.45615213088609263,20.210313128599037
82.0,36.74616800184464,12.181044605881404,0.45608101663119305,20.225636303724713
83.0,43.193266591507594,11.152335628399937,0.4560054897775799,20.241921189789984
84.0,50.21806401935524,10.213019532632012,0.45592557631142805,20.259164183956596
85.0,57.732689605264966,9.356781834142161,0.4558413033291632,20.27736155267359
86.0,65.63449012781298,8.57851962469306,0.4557526990384879,20.29650943004767
87.0,73.81025039428566,7.874745296201843,0.4556597927468689,20.316603817535103
88.0,82.14043539374788,7.2441888970033785,0.45556261486324584,20.33764058186053
89.0,90.50368252410449,6.688512009491116,0.45546119688655906,20.3596154545641
90.0,98.78217509334868,6.213104013381915,0.4553555714031668,20.38252403014676
91.0,106.86808154421423,5.827714617262565,0.45524577207858574,20.406361764987114
92.0,114.67073372465963,5.546747802602734,0.4551318336493519,20.431123976016472
93.0,122.12199123862536,5.389031650998405,0.4550137919158028,20.45680583917304
94.0,129.17488600414993,5.376953348334204,0.4548916837331329,20.483402387975268
95.0,135.7898525106562,5.5349931441745115,0.45476554700177013,20.510908512047322
96.0,141.90644065142106,5.887784277932479,0.45463542065718976,20.539318955620356
97.0,147.40735797560808,6.457918143936803,0.45450134465909237,20.568628315999838
98.0,152.09239041273534,7.263747979390473,0.45436335998001026,20.598831041995812
99.0,155.68359327904585,8.317442118352604,0.45422150859322574,20.62992143233174
100.0,157.8719857531143,9.623479241640547,0.45407583345974767,20.6618936340983
101.0,158.3937576904935,11.177724606785212,0.45392637851476986,20.694741641181
102.0,157.10500728930924,12.967157479430458,0.45377318865460325,20.72845929247515
103.0,154.02161901612115,14.970208455506693,0.4536163097222312,20.763040270259616
104.0,149.3106476186626,17.157711109317795,0.45345578848973894,20.798478098991957
105.0,143.24447326553948,19.494239774154924,0.4532916726473638,20.834766142854875
106.0,136.1401648304378,21.939766616791854,0.45312401078306275,20.87189760492466
107.0,128.30808490380747,24.451437926721848,0.45295285236890154,20.909865525000725
108.0,120.01982642625538,26.985378128352842,0.4527782477436347,20.948662778076212
109.0,111.49569504860001,29.49848795924558,0.45260024809579075,20.98828207265241
110.0,102.90542291740252,31.950305072946865,0.452418905446233,21.02871594910241
111.0,94.37494917566028,34.30505873391378,0.4522342726316775,21.06995677777029
112.0,85.99433520492458,36.53396556949111,0.45204640328478035,21.111996757780094
113.0,77.82407656310248,38.617575552112896,0.451855351819627,21.154827914608482
114.0,69.90028476267287,40.54723084894009,0.4516611734091168,21.1984420994823
115.0,62.23986443914475,42.3242943287584,0.4514639239713822,21.242830986668906
116.0,54.84847281814367,43.95521530882512,0.4512636601479902,21.287986072703145
117.0,47.732754809234876,45.44138139886524,0.45106043929728096,21.33389867168425
118.0,40.91472992316729,46.76694724581691,0.4508543194531063,21.380559919746574
119.0,34.44495515707971,47.88741882755566,0.45064535932602984,21.427960768327384
120.0,28.406429005517282,48.727735270796,0.4504336182781063,21.476091984435893
121.0,22.904837188439767,49.19346903674551,0.4502191563062547,21.524944148665856
122.0,18.04582998152732,49.19401386180174,0.45000203402393635,21.57450765371082
123.0,13.907468723217859,48.669387690352444,0.4497823126431646,21.624772702842915
124.0,10.519104458123723,47.60959461175774,0.44956005395669596,21.67572930839472
125.0,7.854922158140609,46.05897399607698,0.44933532032038587,21.72736729025415
126.0,5.843196565188212,44.10535372241674,0.4491081746354526,21.779676274468585
127.0,4.385694859269083,41.860151485634965,0.44887868033107314,21.832645691819767
128.0,3.3792714571407036,39.437661934020056,0.44864690134722934,21.886264776389996
129.0,2.733420116296997,36.93954853848725,0.44841290211740303,21.94052256428453
130.0,2.381103004046367,34.446717167600106,0.4481767475516253,21.995407892320234
131.0,2.283179925804341,32.01761797263016,0.4479385030195262,22.05090939682873
132.0,2.4282158519705264,29.69061413336274,0.44769823433383277,22.10701551237149
133.0,2.829460821361302,27.488143002295338,0.4474560077334949,22.16371447075834
134.0,3.520359477040468,25.42103790765256,0.4472118898674648,22.22099429989901
135.0,4.549348781534045,23.492247151340358,0.44696594777838655,22.278842822815623
136.0,5.974311611620599,21.69967408851378,0.4467182488864599,22.33724765672117
137.0,7.856952538485134,20.038196693254545,0.4464688609734623,22.396196212160753
138.0,10.257318778219823,18.50103111674522,0.4462178521669063,22.45567569223522
139.0,13.228742716484314,17.080620110011214,0.4459652909243514,22.51567309188911
140.0,16.813429516020708,15.769190774610028,0.4457112460178587,22.576175197285277
141.0,21.038987868221792,14.55909329525317,0.4454557865185692,22.637168585256973
142.0,25.915981855486912,13.44298876378249,0.44519898178102946,22.698639623219105
143.0,31.436821429284013,12.41396598692811,0.4449409014293293,22.760574467600986
144.0,37.57568719205347,11.4655815696458,0.4446816153404866,22.82295906482584
145.0,44.28918295916854,10.591870244681592,0.44442119362946986,22.885779151652464
146.0,51.5183140189202,9.787402245005374,0.4441597066362494,22.94902025307549
147.0,59.190970861616975,9.047328297996449,0.4438972249088996,23.012667684591243
148.0,67.22459096410165,8.367480255554796,0.44363381919083633,23.076706550465758
149.0,75.52917322410907,7.744517745560109,0.4433695604047576,23.141121745812914
150.0,84.01015257203015,7.176164182040768,0.44310451963973213,23.205897955268565
151.0,92.57140087682693,6.661513698089506,0.44283876813561635,23.271019655179334
152.0,101.11827627543295,6.2014296021782584,0.4425723772700819,23.33647111268994
153.0,109.56111731450704,5.798960243316364,0.4423054185435017,23.402236387989543
154.0,117.81938454642093,5.459743908575614,0.44203796356589786,23.468299333824234
155.0,125.82620558867593,5.192263302782412,0.44177008404233725,23.534643597940182
156.0,133.53260305678168,5.007927569560367,0.4415018517596957,23.60125262303886
157.0,140.90902568784188,4.9208438369215415,0.4412333385727301,23.668109648984725
158.0,147.9413574679117,4.947315315503699,0.44096461639054496,23.735197713828917
159.0,154.61843310441964,5.105035815751846,0.44069575716308595,23.80249965556913
160.0,160.91066713864944,5.412055334965786,0.4404268328677391,23.86999811391376
161.0,166.7440486619062,5.885600203692498,0.44015791549600775,23.937675532211884
162.0,171.97911062362115,6.540852433985676,0.43988907704027147,24.005514159540088
163.0,176.40693229626126,7.389795007802706,0.4396203894806631,24.07349605299509
164.0,179.77071172935058,8.44022212255447,0.4393519247718709,24.14160307992992
165.0,181.81099700919853,9.69498612595172,0.4390837548302827,24.20981692076169
166.0,182.32141570380776,11.15154289172995,0.43881595152111424,24.278119071820527
167.0,181.19637124895775,12.80178070399138,0.4385485866450505,24.346490847378675
168.0,178.45187616146663,14.632217814552668,0.43828173192598474,24.414913384112015
169.0,174.21766445207737,16.62438794862168,0.43801545899810773,24.483367643287544
170.0,168.70556660816044,18.755530440881767,0.43774983939330564,24.551834414728436
171.0,162.1685256061206,20.999408516892995,0.43748494452842474,24.620294320132817
172.0,154.86321190328366,23.32724780813176,0.4372208456928943,24.68872781731726
173.0,147.0237239004401,25.708694598134404,0.4369576140357334,24.7571152034856
174.0,138.8484632728365,28.112792753383996,0.4366953205539095,24.825436620311578
175.0,130.49688836855515,30.508927024618803,0.43643403607887415,24.89367205741758
176.0,122.09292121239226,32.867763003016925,0.43617383126522513,24.961801357657972
177.0,113.73060408097774,35.16221780390634,0.4359147765773449,25.029804221356173
178.0,105.48011994623792,37.368533947654136,0.43565694227806917,25.09766021167358
179.0,97.3924665853483,39.467492556162775,0.4354003984151846,25.16534875926251
180.0,89.50281307457878,41.445687230942774,0.4351452148102326,25.232849168140998
181.0,81.83256592928842,43.2966383449235,0.43489146104597093,25.300140621066845
182.0,74.39103426377955,45.021236727854856,0.4346392064531389,25.36720218498013
183.0,67.17784902199156,46.6266967189998,0.434388520097219,25.434012816704453
184.0,60.18726973872072,48.12318835551082,0.43413947076919746,25.5005513701958
185.0,53.414633361182034,49.51808885930373,0.4338921269718097,25.566796602332857
186.0,46.86478041380535,50.80829299644613,0.4336465569064592,25.632727179421394
187.0,40.56073305186111,51.97250946458996,0.43340282846126976,25.69832168371029
188.0,34.549072229263444,52.96685029931466,0.4331610091994333,25.763558621003035
189.0,28.899462181700112,53.72632228758392,0.43292116634467426,25.828416427266223
190.0,23.696124516276594,54.1740478764979,0.43268336677017366,25.892873476369974
191.0,19.02298783319601,54.23626984680662,0.43244767698529407,25.956908087590058
192.0,14.946469384298299,53.859076214801,0.4322141631229488,26.020498533452937
193.0,11.50141017884312,53.021415890281716,0.43198289092687614,26.083623047778357
194.0,8.684417407619916,51.740380978689,0.4317539257380795,26.146259833882763
195.0,6.456236867420925,50.0676809668226,0.431527332482703,26.208387073094247
196.0,4.751168905300491,48.07943092110433,0.43130317565826953,26.26998293337181
197.0,3.4900963883590297,45.86307207154432,0.43108151932043937,26.33102557818107
198.0,2.5933058947590704,43.50521983141775,0.43086242706964445,26.391493175566676
199.0,1.990554471551618,41.08287660948443,0.43064596203745764,26.451363907431794
200.0,1.6274227114287547,38.658736362895894,0.4304321868728859,26.51061597901808
201.0,1.4682316096421426,36.28002346985386,0.43022116372850383,26.56922762858559
202.0,1.496402236983147,33.979705637622125,0.43001295424635666,26.627177137297366
203.0,1.7131942780705205,31.778908831761917,0.4298076195437201,26.68444283929149
204.0,2.135512565488814,29.689640647236846,0.42960522019875547,26.741003131950105
205.0,2.7932271496933883,27.717296783811694,0.4294058162358757,26.796836486360636
206.0,3.726209879051738,25.86271872239489,0.42920946711093105,26.851921457961684
207.0,4.9811834232891,24.123759472579522,0.4290162316962252,26.906236697370037
208.0,6.608460399293045,22.496413193825266,0.4288261682653025,26.959760961387452
209.0,8.65865754441329,20.975598144060672,0.4286393344775374,27.012473124178634
210.0,11.179514690856113,19.55568413963846,0.42845578736244483,27.06435218862692
211.0,14.212933334797777,18.23083766314007,0.4282755833037667,27.11537729786076
212.0,17.79241081504741,16.995244475976236,0.4280987780235887,27.16552774686894
213.0,21.94095241196678,15.843248431710126,0.42792542656566085,27.214782994403254
214.0,26.66953548322341,14.769429506668459,0.4277555832801694,27.263122674601163
215.0,31.976347110684998,13.768660931235772,0.42758930180236837,27.310526610286786
216.0,37.84659163299016,12.836122927714795,0.42742663504021683,27.356974823992555
217.0,44.25269590423783,11.967297802697397,0.4272676351578633,27.402447550043526
218.0,51.15522101872279,11.15797434441022,0.42711235355508104,27.446925247868695
219.0,58.50428064790492,10.404254899422828,0.42696084084807373,27.490388615046715
220.0,66.2411922522886,9.702562898202936,0.4268131468544676,27.532818599071796
221.0,74.30024557466487,9.049665106000054,0.4266693205759524,27.574196409776917
222.0,82.61056016214903,8.442721002309575,0.4265294101761208,27.61450353335491
223.0,91.09802879167067,7.87937013503693,0.42639346296221164,27.653721745141198
224.0,99.68707241463551,7.357856775090629,0.4262615253692937,27.69183312147658
225.0,108.30232870124165,6.877213964983156,0.4261336429394482,27.728820053222744
226.0,116.8704044758696,6.437520389586689,0.42600986029869997,27.76466526012708
227.0,125.32172624737387,6.040198716239137,0.42589022114161695,27.7993518023558
228.0,133.5927471428453,5.688342465579793,0.4257747682119249,27.832863093329067
229.0,141.6287429807635,5.387045664423407,0.4256635432776587,27.865182914573595
230.0,149.3869616820488,5.143648681709485,0.42555658711496464,27.89629542722959
231.0,156.83969009033297,4.967867262118388,0.4254539394859531,27.92618518568382
232.0,163.97580061176518,4.871754899342928,0.42535563911832713,27.95483715043518
233.0,170.79886697778954,4.869454006048432,0.42526172368438114,27.982236701061726
234.0,177.31953833205012,4.976735206856576,0.42517222977979524,28.008369649142058
235.0,183.54079056356125,5.210340647690103,0.42508719290273217,28.033222250911088
236.0,189.43712109980316,5.587166286351825,0.4250066474325049,28.0567812199249
237.0,194.93234030247706,6.123342592131392,0.42493062660820907,28.079033739574935
238.0,199.88405722420023,6.833281151884708,0.4248591625073831,28.099967475411727
239.0,204.08381922590226,7.728756509639088,0.42479228602412994,28.119570587505596
240.0,207.27858098549353,8.818098372090091,0.42473002684810146,28.137831742258822
241.0,209.21119241727746,10.105539006786897,0.4246724134431694,28.154740124128598
242.0,209.66980258326979,11.590745873954184,0.42461947302324404,28.17028544834728
243.0,208.53031685030177,13.268619454580497,0.42457123153707577,28.184457969602743
244.0,205.78036480453696,15.129262692062996,0.42452771363694225,28.197248497404814
245.0,201.5159611761575,17.158218121419743,0.42448894266545967,28.208648403391905
246.0,195.917829244308,19.336872586724628,0.42445494063473904,28.21864963165097
247.0,189.21671703042236,21.643018066676408,0.4244257281963804,28.227244712834057
248.0,181.65779077838334,24.051563970953968,0.4244013246315106,28.234426769316798
