Time,J,A,S,tau
0.0,100.0,100.0,0.8550695968349998,9.345794392523365
1.0,102.07453557064086,99.4428576761309,0.857402438510995,10.13421239283258
2.0,104.00052347572168,98.89811571916043,0.8596305790721325,10.932381364080062
3.0,105.78916720262046,98.36522780162143,0.8617590872797671,11.739523524732341
4.0,107.45108436768636,97.84367078523599,0.8637926525418201,12.555162061076905
5.0,108.99627650583805,97.3329426100437,0.865735948396651,13.378832561469272
6.0,110.43408693765271,96.83256228645851,0.8675935987583858,14.210085098365003
7.0,111.7732199896916,96.34206836727633,0.8693701507188053,15.048485046133566
8.0,113.02179989644982,95.86101671516427,0.8710700620638628,15.893612572165779
9.0,114.18732720615013,95.38898147461506,0.8726976720386541,16.745064862247094
10.0,115.27673030314978,94.92555346748104,0.8742571900517909,17.602455870258538
11.0,116.29644880781564,94.47033776365363,0.875752701737299,18.465414552506854
12.0,117.25235999104693,94.02295598093677,0.8771881313275235,19.333588240893302
13.0,118.1499209441311,93.58304230540936,0.8785672701414828,20.20663875381258
14.0,118.99412201382346,93.15024506201556,0.8798937489272578,21.08424472025895
15.0,119.78955808196022,92.72422495275049,0.8811710508320129,21.96609982000713
16.0,120.54047277098599,92.30465381375107,0.8824025198647725,22.85191153165451
17.0,121.25071714134498,91.89121648378722,0.883591332222191,23.74140362568625
18.0,121.92389281936718,91.48360618834224,0.8847405524226544,24.634310502840446
19.0,122.56324922869214,91.0815286280582,0.8858530776705374,25.5303823026943
20.0,123.17182607431384,90.68469706631787,0.8869317006933156,26.42937879676161
21.0,123.75239513955556,90.29283500935507,0.887979075574537,27.331072524355033
22.0,124.30752234095233,89.90567398842218,0.8889977449612505,28.235246092327557
23.0,124.83958802754306,89.52295325724978,0.8899901484236471,29.141691457748998
24.0,125.35075198631876,89.14442151486145,0.8909585974922133,30.050211987522882
25.0,125.84309490975126,88.76983100505916,0.8919053579657081,30.96061518081699
26.0,126.31845827986662,88.398945330193,0.8928325508181943,31.872721409717983
27.0,126.77862740836295,88.03153083420247,0.8937422621296106,32.78635412109588
28.0,127.22525397915896,87.66736090956934,0.8946364961224551,33.70134410068164
29.0,127.6598578573379,87.30621624703966,0.8955171743872554,34.61752946788604
30.0,128.08392975362148,86.94787919368594,0.8963862004318705,35.5347499731143
31.0,128.49882180993256,86.59214096788382,0.8972453942440369,36.45285297902211
32.0,128.90583971370037,86.23879595828042,0.8980965480874247,37.37168837945161
33.0,129.30625884547516,85.88764070640195,0.8989414367650879,38.291107713087534
34.0,129.70126163094042,85.53847953145645,0.8997817889945227,39.21096711871745
35.0,130.09201258723357,85.1911184325425,0.9006193256972808,40.13112355640551
36.0,130.47965280076374,84.84536568821181,0.9014557580643477,41.05143506444281
37.0,130.86527887113382,84.5010360674098,0.902292797720717,41.97176065740936
38.0,131.24998241702792,84.15794539234841,0.9031321591922746,42.89195929761124
39.0,131.63484624899993,83.81591085389107,0.9039755572428567,43.811890148976566
40.0,132.0209541223674,83.47475492001675,0.9048247552356886,44.73140970779016
41.0,132.4093962823858,83.13430130525994,0.9056815365744862,45.65037322169708
42.0,132.8012615430752,82.79437435874668,0.9065476881700687,46.56863578782309
43.0,133.19768231454137,82.45480216716824,0.9074250886783375,47.486046563895414
44.0,133.59982278039732,82.1154141764065,0.9083156718717301,48.40245100159171
45.0,134.0088470716359,81.7760401101789,0.9092213739973272,49.317694420967236
46.0,134.42599538749525,81.43651204379323,0.91014425329094,50.2316139242201
47.0,134.85258448322415,81.09666323273015,0.911086479921066,51.14403892336004
48.0,135.28993190363806,80.75632705838946,0.9120502265793677,52.054798672923106
49.0,135.73944916030698,80.41533821136484,0.9130377999709894,52.96371330376505
50.0,136.20269166891995,80.0735320804193,0.9140516971580039,53.87058980138819
51.0,136.68122187903927,79.7307440986737,0.9150944249405679,54.775234480057655
52.0,137.1766970013337,79.3868103610072,0.9161686159605678,55.67744510795861
53.0,137.69100743060795,79.04156697109475,0.9172771870567699,56.57699988354417
54.0,138.22607086041577,78.69484995356882,0.9184230871676661,57.47367478097388
55.0,138.78390297504322,78.34649560465908,0.919609385800591,58.367237649400195
56.0,139.3668124265801,77.99633964780135,0.9208394839701872,59.25743369147722
57.0,139.97715849163748,77.64421761725399,0.9221168384376855,60.144004285753525
58.0,140.61749386181978,77.2899648861815,0.9234451186693252,61.02667655531019
59.0,141.29068250912323,76.9334156932648,0.9248283130673332,61.905155985894424
60.0,141.9996295614051,76.57440425138861,0.9262704551002507,62.779145079229
61.0,142.7475996981151,76.21276389764391,0.9277759305795891,63.64832293443225
62.0,143.5381321672127,75.84832673665579,0.9293493758823905,64.51235179345471
63.0,144.3748740054557,75.48092479851894,0.9309955303599549,65.370887264321
64.0,145.2619499181387,75.1103885937645,0.9327195453918538,66.22355789832915
65.0,146.20364574973345,74.73654800138527,0.934526704910618,67.06998352433024
66.0,147.20466857946218,74.35923180095358,0.936422624161526,67.90976270709454
67.0,148.27002985679252,73.97826754561035,0.9384131411515423,68.74247948410702
68.0,149.4050671601973,73.59348217900585,0.940504326615053,69.56770340622275
69.0,150.61559163329292,73.20470088490654,0.9427025529722448,70.38498473940594
70.0,151.90763327342825,72.81174857775096,0.9450143327979261,71.19386534107291
71.0,153.28781130324904,72.41444828000849,0.9474464948439503,71.99386750412923
72.0,154.76294457282026,72.01262253008981,0.9500059688094947,72.78450750233178
73.0,156.3403759219722,71.60609258950889,0.9526999108846654,73.56528840269546
74.0,158.02771584147885,71.19467893604201,0.9555355742001631,74.33570768585427
75.0,159.83301803563774,70.77820087484031,0.9585203262573543,75.09525678555173
76.0,160.23793736914246,71.89302781826527,0.959721351197152,75.2633179886129
77.0,159.85832820229797,73.97325969120543,0.9597585805093551,74.96354128366362
78.0,159.6750612294423,76.05739398411143,0.9598144200804654,74.51505079109438
79.0,159.71482098251442,78.13425209313715,0.9598923573542907,73.89104424288332
80.0,160.0049104945978,80.19137427882177,0.959996725578813,73.05827983131891
81.0,160.57244986048832,82.2152580474452,0.9601328657626956,71.97546070634425
82.0,161.44320749573296,84.19192966476135,0.9603072111767218,70.59178613562248
83.0,162.64003553768512,86.10777477457965,0.9605272274065038,68.8459295191069
84.0,164.1806774244774,87.95102527156236,0.9608008990594785,66.66763237113888
85.0,166.07470119388321,89.71415092443776,0.9611353424402499,63.985224945704104
86.0,168.31939278517078,91.39727284985372,0.9615339118903954,60.74488882512171
87.0,170.89504791605873,93.01233943716596,0.9619914967838978,56.946460611074194
88.0,173.76060196152378,94.58699819826008,0.9624890681928718,52.68882300469088
89.0,176.85253437726774,96.16508512328639,0.9629916461484771,48.18910436492194
90.0,180.08886275521488,97.80173438428724,0.9634541051093113,43.73403606201842
91.0,183.37692516519786,99.5542464928282,0.9638333290421494,39.57902269520927
92.0,186.62013879702687,101.47361643165891,0.964098291492458,35.87424665735496
93.0,189.7203726165725,103.6004259721629,0.9642324118266701,32.66157448401634
94.0,192.57655747794203,105.96495230310578,0.964230118598299,29.913648965289656
95.0,195.0826226232606,108.58891627523391,0.9640921992931083,27.572986546010835
96.0,197.12641225623224,111.48755213429554,0.9638222026635292,25.57627737962912
97.0,198.59099932100048,114.67099232376263,0.9634243335372784,23.86535243781052
98.0,199.35767175771247,118.14596220289062,0.9629023907034064,22.3907207859996
99.0,199.10489132133353,122.12029387607092,0.962259323390016,21.111665445452243
100.0,197.5810345961138,126.73027155311593,0.9614970932070546,19.995180052723722
101.0,194.7146295425199,131.9470830140715,0.9606166858141141,19.014597995602994
102.0,190.4908492848897,137.71579997059453,0.9596181785818658,18.148339417750787
103.0,184.9614036373491,143.95705068639447,0.9585008219860863,17.37884843789018
104.0,178.24523386684268,150.5713922788254,0.957263129415893,16.691755580074894
105.0,170.51970093903154,157.44467546695736,0.955902945403031,16.07522244913662
106.0,162.0057984420145,164.45082446604195,0.954417517311557,15.519426313537034
107.0,152.9544760885472,171.44888875552013,0.9528035419621527,15.016155178767345
108.0,143.63592505860473,178.27722893368443,0.9510572170797871,14.558506518552965
109.0,134.32890009210195,184.75169798593524,0.949174276264906,14.140641651598546
110.0,125.308705506304,190.6715390976011,0.9471500224960938,13.757592344881683
111.0,116.83315710116409,195.83310368056786,0.9449793556528759,13.405111468725728
112.0,109.12774743188017,200.0482997025387,0.9426567946412399,13.079551183441726
113.0,102.38328794072275,203.15198012928272,0.940176500525156,12.777764518261039
114.0,96.72884099461093,205.03348048161777,0.9375322957203518,12.497027544941163
115.0,92.19724261241052,205.67405006962352,0.9347176814291411,12.234974963150536
116.0,88.71474313349286,205.15866005072434,0.9317258618736077,11.989546445549893
117.0,86.1179124901447,203.65961822457416,0.928549755327219,11.758942597168717
118.0,84.19327492176969,201.39704185894522,0.9251820188145454,11.541589072123603
119.0,82.72383472180556,198.59249282086571,0.9216150686565796,11.33610571597321
120.0,81.5250881923538,195.4333022085603,0.9178411029993366,11.141280729508201
121.0,80.46178933506516,192.05627436107667,0.9138521265142422,10.956048700797814
122.0,79.44692980156316,188.5491885986165,0.9096399775755721,10.779472164014964
123.0,78.43031374703318,184.96262356721638,0.9051963585016133,10.610725111330908
124.0,77.38544212989845,181.3233491841291,0.9005128671500889,10.44907985865124
125.0,76.29894757705806,177.64506459168456,0.8955810335133989,10.293894957091942
126.0,75.16404283186786,173.93504895623963,0.8903923563213133,10.144604149498448
127.0,73.97706734479932,170.19766911456327,0.884938349182282,10.000708168242456
128.0,72.73579734990133,166.4361430138774,0.8792105904340237,9.861770271627384
129.0,71.43865950611966,162.65328467628115,0.8732007424139606,9.727398362452469
130.0,70.08458337811474,158.8518014870599,0.8669006725501628,9.597257180073584
131.0,68.67274819681184,155.03442243453082,0.8603023874060731,9.47104082223896
132.0,67.20271543780325,151.20399032420374,0.8533982704213937,9.348492419521898
133.0,65.67425927192377,147.36341192248452,0.8461808909650517,9.229374885547449
134.0,64.08762394227406,143.51576046860134,0.8386434001534021,9.113493303003404
135.0,62.44324790906511,139.66416750265824,0.8307791948344794,9.000667394108238
136.0,60.74216059236169,135.81191700329353,0.8225823894831491,8.890748966727827
137.0,58.98564438901379,131.96237140283267,0.8140475256156926,8.783606205330102
138.0,57.17559423804764,128.11898843138147,0.8051698777260788,8.67912837978353
139.0,55.314317052561776,124.2853352637115,0.7959454424774667,8.577224070423398
140.0,53.40465532003399,120.46501908354162,0.7863708780630234,8.477815160416126
141.0,51.450011242108715,116.66173565752663,0.7764437330638109,8.380841238694332
142.0,49.454384734065215,112.87921835093726,0.7661624323276384,8.28625619206512
143.0,47.42227397322381,109.12125022492796,0.7555262214343265,8.194027051197011
144.0,45.35882114427361,105.39163124066009,0.7445353499878922,8.104135257403419
145.0,43.26970964534874,101.69416866659446,0.7331909788011377,8.016575018201893
146.0,41.16115701096904,98.03266888101982,0.7214952029174202,7.931353521291352
147.0,39.039928647246015,94.41092230906254,0.7094511118504914,7.848491937286693
148.0,36.91324399704679,90.83267152141038,0.6970626840394004,7.768024277913856
149.0,34.788746472946926,87.30160733188023,0.6843348023455382,7.6899986082987475
150.0,32.67442555433163,83.8213503544314,0.6712731892709167,7.61447726814163
151.0,30.578539004844842,80.39543498288559,0.6578843481553023,7.541537530872814
152.0,28.509524499237497,77.02729339354661,0.6441754910148592,7.471272431386561
153.0,26.47587171019543,73.72022948083749,0.6301544387664815,7.4037911405201395
154.0,24.486029382781588,70.47741271196995,0.6158295350124446,7.33922007968484
155.0,22.548283947510946,67.30185967768797,0.6012095428962672,7.277703658855085
156.0,20.67064536101729,64.19641890119804,0.5863035460647523,7.219405116257454
157.0,18.86074355632566,61.16375683516396,0.5711208564579895,7.164507322802567
158.0,17.125746465970856,58.20634502616413,0.5556709367862198,7.113213522590154
159.0,15.472314474896452,55.32644875837709,0.5399633464423662,7.065747971922119
160.0,13.906619244991667,52.526118961508374,0.5240077217486018,7.0223564771148785
161.0,12.434413017430304,49.80718320156446,0.507813796572677,6.98330656955032
162.0,11.06121398966439,47.17124051302694,0.4913914809308416,6.948887748391452
163.0,9.79265108719464,44.619670217800135,0.47475100783920615,6.919411215103812
164.0,8.634803092634364,42.15362878804368,0.45790314119017816,6.895209282991746
165.0,7.594797153292768,39.77407556406259,0.4408594903735626,6.876634645791589
166.0,6.681330382737298,37.481798849992735,0.4236328908469082,6.864058924562528
167.0,5.90512101407065,35.277454218172664,0.4062378842827679,6.857871019763083
168.0,5.279206826255628,33.16162686930964,0.388691281868558,6.85847486126747
169.0,4.8187282892976,31.134895994158082,0.3710127957318969,6.866286747946173
170.0,4.540198770884253,29.197911803418076,0.3532257259458224,6.881732161157041
171.0,4.460008115251881,27.35146032467972,0.33535766531004857,6.905242125364712
172.0,4.592219332101052,25.596500943012735,0.31744118721556586,6.937249124078261
173.0,4.945800794335092,23.9341509799074,0.2995144638232161,6.978182625189736
174.0,5.521639124414431,22.365593593210647,0.2816217562637354,7.02846428091529
175.0,6.310353399832324,20.891910105442065,0.2638137866409264,7.088502751498716
176.0,7.290032184747095,19.513789200033425,0.24614770499715674,7.158688647587123
177.0,8.426500179416442,18.231204003800766,0.22868690423230023,7.239389137751726
178.0,9.674916007017549,17.043054505574265,0.21150041288532512,7.330942716862861
179.0,10.983092591335941,15.946853985937345,0.1946619116088755,7.4336541167697625
180.0,12.29595014874455,14.93852523367677,0.1782483477481196,7.54778952219157
181.0,13.560320871550962,14.012361643029331,0.1623381736417518,7.673572152759416
182.0,14.729253106805578,13.161184172051689,0.14700926875025547,7.811178289085671
183.0,15.765059830266981,12.376689454749133,0.1323366291369293,7.960733890940673
184.0,16.640771462214627,11.649944737063247,0.11838993633830669,8.122311806964717
185.0,17.340090766542556,10.971960487459308,0.10523110541977443,8.295929638561901
186.0,17.855870185516235,10.334251303093295,0.09291228858984456,8.481548219874334
187.0,18.18864153511311,9.729321073393168,0.08147354844161185,8.679070915975318
188.0,18.344067798600786,9.150995151530708,0.0709418380211305,8.888343215256585
189.0,18.331537407637395,8.594589321680035,0.06132981394406342,9.109153525033916
190.0,18.162729290421154,8.056922916476674,0.052635568377869375,9.341233693519857
191.0,17.85054511193184,7.536175479991935,0.044843320450371246,9.584260451820601
192.0,17.408518096745066,7.031645307324474,0.037924844350564466,9.837857406359792
193.0,16.85181839448839,6.5435279810483555,0.0318394075354215,10.101596810106738
194.0,16.19617437481785,6.072594620755256,0.026536914264420706,10.37500190976393
195.0,15.458086480054924,5.619942850878677,0.021959760832500123,10.657549023312654
196.0,14.654507445281622,5.1867689703506565,0.018045419034988852,10.948670034059893
197.0,13.802660479672967,4.774204766811649,0.014728507085837431,11.247754509880847
198.0,12.919528730771022,4.38319389624104,0.01194309041226097,11.554151822548228
199.0,12.021428101753433,4.014421450687886,0.009624439920241321,11.867173005087869
200.0,11.12348204032609,3.6682767907933864,0.00771067723615616,12.186092372043293
201.0,10.239208068139549,3.3448487290284707,0.0061439617646391765,12.510148818995535
202.0,9.380205192829733,3.0439422454275142,0.004871304846187833,12.838546799277124
203.0,8.555954248282443,2.7651082644087874,0.0038451127589605727,13.170456920782081
204.0,7.77377070224775,2.507682627515391,0.003023358038886522,13.505016145271647
205.0,7.0388681458936775,2.270828013526091,0.002369506257400402,13.841327615524662
206.0,6.354518218241114,2.0535752770078095,0.0018522896859552457,14.178460051336018
207.0,5.722280443565544,1.854862541400776,0.0014453104373507474,14.515446757925865
208.0,5.14226966356795,1.6735700783217944,0.001126565379410242,14.85128423600485
209.0,4.613436176968123,1.5085503307151322,0.000877930399865814,15.18493041427116
210.0,4.133838318867546,1.358652877711029,0.0006846386083143429,15.515302526837889
211.0,3.7008925476931154,1.222744481847594,0.0005347779642110449,15.841274668601017
212.0,3.311591979973015,1.0997246028509275,0.00041882621821524727,16.161675071679316
213.0,2.9626894159793977,0.9885369028258061,0.0003292337381623214,16.475283159994937
214.0,2.650844390597788,0.8881773138003267,0.00026005876231843534,16.780826456417312
215.0,2.3727364273396074,0.7976992429185801,0.0002066554236568385,17.076977438602523
216.0,2.1251482506844166,0.7162164554993689,0.0001654119212388332,17.36235046717687
217.0,1.9050234689506678,0.6429041213266513,0.0001335343808006738,17.635498944462334
218.0,1.7095033952673762,0.5769984467023869,0.00010887100719318964,17.894912904936575
219.0,1.5359474296508613,0.5177952489338639,8.977085139450099e-05,18.13901729152071
220.0,1.3819409330492758,0.4646477662759526,7.497168529437741e-05,18.366171236059646
221.0,1.2452940421934064,0.41696394842491213,6.351194372123535e-05,18.574668737734513
222.0,1.1240340328807719,0.37420340660456464,5.4662262867953824e-05,18.762741224982992
223.0,1.0163934822900533,0.3358741688354306,4.787285137763515e-05,18.928562586145166
224.0,0.9207960256674941,0.30152937139195557,4.2733592284543465e-05,19.07025735949912
225.0,0.8358408228908043,0.2707639590902423,3.8944372870345994e-05,19.18591289301525
226.0,0.7602866014537644,0.24321146237468325,3.629382415357879e-05,19.273596383457754
227.0,0.6930362474082007,0.218540807207301,3.464506834418339e-05,19.33137781644198
228.0,0.6331214831419328,0.1964534633848571,3.392792218842222e-05,19.35735974216147
229.0,0.5796880883506188,0.17668068950095034,3.4137384160269786e-05,19.349715089719204
230.0,0.5319848138883286,0.15898068054271272,3.5339035071452315e-05,19.306733635590856
231.0,0.48935143344333704,0.14313621240195046,3.7683131039166536e-05,19.226877544627957
232.0,0.45120784262894637,0.12895237529205864,4.143054221023564e-05,19.108846274088457
233.0,0.4170441911885985,0.11625455478805458,4.6995670495731426e-05,18.951649570093778
234.0,0.3864125185579331,0.10488652948823962,5.501474905722542e-05,18.754686541426867
235.0,0.35891976890614685,0.09470874486412549,6.645268606986798e-05,18.517827564720033
236.0,0.3342212237011379,0.08559679035140488,8.276862493042379e-05,18.241493953980687
237.0,0.31201508024885594,0.07744003621663603,0.0001061699565281381,17.92672875246104
238.0,0.29203765641285007,0.07014045970925374,0.0001399985827339322,17.575251149173603
239.0,0.27405965540423716,0.0636116324694666,0.00018930859621659181,17.189486206811416
240.0,0.2578829430502697,0.05777788959465972,0.00026171459221432724,16.77256241171595
241.0,0.24333838051776474,0.0525736486443539,0.0003686007715645505,16.328271266020565
242.0,0.23028445163624317,0.04794286682748772,0.0005267815710934587,15.860986693065522
243.0,0.21860664397531293,0.043838604022968575,0.000760678667504194,15.375546146342325
244.0,0.2082178383650737,0.04022262315908592,0.0011049964816926274,14.877100156303284
245.0,0.19905950086415297,0.03706495530873655,0.001607746255396536,14.370941208236948
246.0,0.19110359880764047,0.03434333552297729,0.002333273989882407,13.862325657101662
247.0,0.1843550211898601,0.032042417784960656,0.0033647279528583674,13.356303177939997
