Time,J,A,S,tau
0.0,100.0,100.0,0.6018522511077555,31.25
1.0,98.57091420238281,97.64368768777358,0.6005288936119854,31.49808349645554
2.0,97.15905745611728,95.33690070569138,0.5992154721754611,31.74504607918483
3.0,95.76632643927859,93.08188139351853,0.5979161381670123,31.99014952144177
4.0,94.3924312545842,90.87740751996142,0.596631348283062,32.233306540646815
5.0,93.03709374002165,88.7223293731834,0.5953615571428034,32.474429882346044
6.0,91.70003129875877,86.61545395203335,0.5941072177773508,32.71343231397323
7.0,90.38098087230392,84.55568764600953,0.5928687792808495,32.95022670187564
8.0,89.07968379210078,82.54196230680407,0.5916466901322716,33.18472592980472
9.0,87.79588077918692,80.57317309254374,0.5904413964561142,33.41684295973513
10.0,86.52933765590517,78.64832222423067,0.5892533411416543,33.646490909816684
11.0,85.27982086015342,76.76641230919894,0.5880829667187779,33.873582914214865
12.0,84.04710729436673,74.92643093783661,0.5869307128523258,34.098032286943386
13.0,82.83100514369644,73.12746412583503,0.5857970166677451,34.319752544284704
14.0,81.63132010856137,71.36857714057152,0.584682314918382,34.53865722871415
15.0,80.447893123708,69.64884762388834,0.5835870409038396,34.754660225609534
16.0,79.28060359006852,67.96743350349071,0.5825116259484212,34.96767564374294
17.0,78.12932870705,66.32345575294228,0.581456500771121,35.17761766359606
18.0,76.99403185849617,64.71607878861651,0.5804220918226023,35.38440103567103
19.0,75.87471856901925,63.144520680251645,0.57940882407622,35.587940715843374
20.0,74.77141004104938,61.6079573885601,0.5784171212345341,35.788151866131244
21.0,73.68429954473974,60.10563096001657,0.5774474016958914,35.984950473704465
22.0,72.61361849436075,58.63681045364257,0.5765000828232176,36.17825268702497
23.0,71.55968004572688,57.200728963591686,0.5755755792611,36.36797514346628
24.0,70.52309001373537,55.79669461021364,0.5746742991885923,36.55403553989546
25.0,69.50448013430939,54.42402090636438,0.5737966500871317,36.73635169620706
26.0,68.50472664085521,53.081998938535754,0.5729430340054203,36.91484240729672
27.0,67.52514015417005,51.769993143247945,0.5721138454389413,37.08942769596764
28.0,66.56709182615825,50.487361228860685,0.5713094775698678,37.2600278258274
29.0,65.63247562456995,49.23345796732558,0.5705303143283382,37.426564646266236
30.0,64.7235478331107,48.00767613923044,0.5697767340316554,37.58896090378067
31.0,63.84311800058266,46.809407127871346,0.5690491059411958,37.74714084813609
32.0,62.994593512839664,45.63807627866227,0.5683477906325541,37.9010300911458
33.0,62.18201942700581,44.49310487050638,0.5676731385202568,38.05055587992945
34.0,61.41020587028699,43.37393534689715,0.5670254888330197,38.195647188744594
35.0,60.68495980019433,42.280023749498305,0.5664051660916828,38.33623523217191
36.0,60.012977330853005,41.21083631218569,0.5658124814471831,38.47225323051649
37.0,59.40212789438391,40.16585299659186,0.5652477285910161,38.603636975548355
38.0,58.86157202178387,39.144565912665406,0.564711181608175,38.73032509359834
39.0,58.40188416246298,38.146438438902464,0.5644509015196747,38.80279572855389
40.0,58.03528020057938,37.17083547338908,0.5654318709191489,38.62838851885257
41.0,57.77527837912304,36.21747873019556,0.566432833283178,38.4508402259883
42.0,57.63740314579979,35.28590614302506,0.5674529915594235,38.27030442105319
43.0,57.639084874458824,34.37566641406042,0.56849148868765,38.08694192382393
44.0,57.79977560893845,33.48631955354332,0.5695474031531119,37.90092111157578
45.0,58.14104044011133,32.617437238558665,0.5706197441047308,37.71241826622638
46.0,58.686626632144005,31.768603463675873,0.571707445934528,37.52161797052658
47.0,59.46250505708855,30.93941559235149,0.5728093622617734,37.32871355894482
48.0,60.49687821364596,30.129485947111817,0.5739242592618609,37.133907629171745
49.0,61.82015108274165,29.338444161230846,0.5750508082099163,36.93741262711733
50.0,63.46485465785564,28.565940481118446,0.5761875774995252,36.73945147923369
51.0,65.46550346285375,27.811649964026667,0.5773330233721794,36.5402583474481
52.0,67.85842597331296,27.07527900828226,0.5784854801347128,36.340079430576964
53.0,70.68150509892672,26.35657331560771,0.57964314923993,36.139173872611735
54.0,73.9738528551279,25.655328552332804,0.5808040873339877,35.93781476762481
55.0,77.77540253080907,24.971404136096925,0.581966193053382,35.73629028127693
56.0,82.12642078514811,24.30474107013021,0.5831271926078436,35.53490488597212
57.0,87.06691072044265,23.65538391406136,0.5842846245392488,35.33398067172135
58.0,92.63591063842257,23.02350804222,0.5854358230868743,35.133858787334326
59.0,98.87067465356247,22.40945291250975,0.5865779003169963,34.93490099658116
60.0,105.80571274336229,21.813761389869832,0.5877077272897833,34.73749132257149
61.0,113.47172471255571,21.2372280975109,0.5888219128851194,34.542037914669216
62.0,121.8943134518095,20.68095136593224,0.589916783950056,34.348974784003985
63.0,131.0926731306404,20.146395544411124,0.5909883627626143,34.15876380516377
64.0,141.07807241664557,19.63545823285163,0.5920323445413397,33.97189670909771
65.0,151.85200224740558,19.150560038590626,0.5930440651535925,33.78889798085982
66.0,163.40475209041492,18.69468582483743,0.5940184982726207,33.61032505893279
67.0,175.71394480975025,18.271491945206684,0.594950217221169,33.43677184098997
68.0,188.74192966740674,17.885362873783006,0.59583337794949,33.26887015035556
69.0,202.43505382196258,17.54148257262793,0.5966616998036188,33.10729157015094
70.0,216.72224626682552,17.24588487500807,0.5974284475628946,32.95274912328296
71.0,231.51415184584823,17.00546553269962,0.59812642477621,32.80599796838998
72.0,246.7026907185189,16.827995919214928,0.598747959533098,32.66783686237681
73.0,262.16131740451056,16.722085624405327,0.5992849061973747,32.53910822794276
74.0,277.745760238301,16.6970826195622,0.5997286515678296,32.42069790269172
75.0,293.29540955449505,16.76293981813276,0.6000701305860586,32.313534120871296
76.0,308.635340064801,16.9300252785372,0.6002998526895285,32.218585643640594
77.0,323.579092244873,17.208872900687137,0.6004079403248798,32.136858916169295
78.0,337.93228600118715,17.609876456476417,0.6003841811342867,32.069394126076425
79.0,351.4973007843184,18.142933291184264,0.6002180947090817,32.01726009393672
80.0,364.0792063330457,18.817047326675976,0.5998990148120052,31.981547918640075
81.0,375.4929986957438,19.63990563535982,0.599416187449334,31.963363340671485
82.0,385.57191820534354,20.617446944858205,0.5987588846065098,31.96381782862759
83.0,394.17624263451137,21.7534438838792,0.5979165327876331,31.984018444215092
84.0,401.2012793679993,23.049125934525932,0.5968788530812003,32.02505672556723
85.0,406.58482823480574,24.502846034253853,0.5956360185266045,32.08799614511241
86.0,410.3101495773731,26.10986793535888,0.5941788094584296,32.173859536652216
87.0,412.40638672745746,27.86222338051144,0.5924987795972961,32.283615617635775
88.0,412.94500517120775,29.74872299820361,0.5905884115097051,32.418166109245135
89.0,412.03306588638327,31.75502667631631,0.5884412821760328,32.57833204773207
90.0,409.80470779336207,33.86393013676982,0.586052200030194,32.764841860956494
91.0,406.4113961027609,36.05571699206668,0.583417332315882,32.978320158132036
92.0,402.0126596739098,38.30862794783815,0.5805343086269308,33.21927811484851
93.0,396.7680935065391,40.59941249493728,0.577402297669603,33.48810573333262
94.0,390.83113846788336,42.903935781034846,0.574022053892058,33.78506625763894
95.0,384.3447674747317,45.19780964400729,0.5703959318427525,34.11029294687128
96.0,377.4389284408225,47.45701875147616,0.5665278680500841,34.46378824396661
97.0,370.2294286337712,49.65851131514395,0.5624233295307818,34.84542547773673
98.0,362.81787557111426,51.78072585644952,0.5580892318975135,35.254952944344055
99.0,355.29232821692057,53.80403520706094,0.5535338307249458,35.69200012434734
100.0,347.7283738932897,55.71109505728495,0.548766589185272,36.1560859100189
101.0,340.19038523317937,57.48709601511912,0.5437980312427516,36.64662804765629
102.0,332.7328905946295,59.11990010150771,0.5386395780988803,37.16295419550596
103.0,325.4018785875446,60.600098810441715,0.5333033798714046,37.70431362059633
104.0,318.2361059131037,61.92095117598908,0.5278021429087915,38.26988972575841
105.0,311.2682731907932,63.07825524489073,0.5221489641924366,38.858812134445394
106.0,304.52591570932447,64.07026090875101,0.5163571741339591,39.47016777264474
107.0,298.0326935967474,64.89735068011827,0.5104401743757219,40.103014627235325
108.0,291.80919751782,65.56175783275113,0.5044113202792607,40.75639130049349
109.0,285.87354440947706,66.06747319271662,0.49828377417156694,41.42932684015761
110.0,280.2425394249597,66.41982669137661,0.4920704154167896,42.12085102330262
111.0,274.9319042580409,66.62522983181674,0.48578376642661303,42.830000318271665
112.0,269.95720137809303,66.69105595831277,0.4794358528348178,43.55582821040962
113.0,265.33422595342915,66.62525749707025,0.47303824708137243,44.297406554502196
114.0,261.07943694378906,66.43626748002157,0.46660194045564607,45.053833924447225
115.0,257.21043203290674,66.13278073932719,0.4601373332197762,45.82423883574554
116.0,253.74616743748211,65.72359796356001,0.45365423762869056,46.607781389812324
117.0,250.70709613927633,65.21749789025792,0.4471618583160601,47.403655906707755
118.0,248.11543575988952,64.62312063883596,0.4406687649257868,48.211094104113755
119.0,245.99520038172005,63.948892203221696,0.43418293054866053,49.02936400722786
120.0,244.37205581598369,63.202956645503846,0.42771174811005147,49.8577699393047
121.0,243.27322326385703,62.39310391740034,0.4212620208745576,50.69565422516359
122.0,242.7273724859835,61.52674626841871,0.41483999163490815,51.542396077895006
123.0,242.76421397317233,60.61090274084544,0.4084513863491833,52.39740946084616
124.0,243.41413118656135,59.65217215571469,0.40210142771109125,53.26014294020857
125.0,244.7078000127256,58.656715068607355,0.3957948445917391,54.13007966334076
126.0,246.67568805270443,57.630278615922414,0.38953592386649016,55.00673418059589
127.0,249.3475343984807,56.578200177125254,0.38332853818888507,55.8896510425309
128.0,252.75174691708696,55.50539765915587,0.37717615519125086,56.77840476162293
129.0,256.9148612649095,54.416397208640454,0.3710818708944927,57.672597519744066
130.0,261.86103744238807,53.31535868046867,0.36504844743873444,58.57185682022117
131.0,267.6115357995385,52.20608472559343,0.35907833106271647,59.47583459008532
132.0,274.1839946090023,51.09202260818885,0.35317366021108343,60.38420693643128
133.0,281.5922573979902,49.97631730061112,0.34733631180610275,61.29667036089112
134.0,289.8460413786391,48.86181321203535,0.3415679186075023,62.21294161748264
135.0,298.9500725088629,47.751059249324605,0.33586986372480476,63.13275735050086
136.0,308.9048217168107,46.64637374602497,0.33024334349356904,64.05586957245457
137.0,319.7052239061034,45.549797658336026,0.32468933686417484,64.98204928302174
138.0,331.34164006059365,44.46317878839249,0.3192086619315901,65.91108011546098
139.0,343.799317340467,43.38814124917283,0.31380196872356525,66.84276137422341
140.0,357.05840908736093,42.32612082683155,0.30846975247602265,67.77690465880654
141.0,371.0949231612881,41.27838917432655,0.3032123885129716,68.7133333617747
142.0,385.8796979991219,40.24603679240189,0.29803010728289975,69.65188294541642
143.0,401.38027804031964,39.23003233560048,0.2929230495973383,70.59239760400575
144.0,417.55974086792907,38.23118450120666,0.28789123356414664,71.53473276271245
145.0,434.37838940593963,37.25020010490434,0.28293459987757275,72.47875089611408
146.0,451.7933661607037,36.2876630661248,0.27805299733077093,73.42432343674777
147.0,469.7593478197605,35.34405523122192,0.27324619677029416,74.37132892756033
148.0,488.2292028733043,34.419772146622805,0.2685139052742697,75.31965229892762
149.0,507.154283226982,33.51512216851956,0.2638557655880434,76.26918507559145
150.0,526.4848364640874,32.63033668468318,0.25927136164528863,77.21982413185465
151.0,546.17063045668,31.765584003739704,0.2547602315824416,78.17147126653144
152.0,566.1613038164884,30.920967694409438,0.25032186577341703,79.12403321932548
153.0,586.4066667497626,30.096535523375962,0.24595571220505777,80.07742062799092
154.0,606.8572343457349,29.2922907222062,0.24166118725869604,81.03154782003557
155.0,627.4645405149153,28.508188970144435,0.2374376720375986,81.98633264774793
156.0,648.1812915015613,27.74414680490537,0.23328451820898743,82.94169568714555
157.0,668.9618204228257,27.000050651117093,0.22920105677196972,83.89756012068472
158.0,689.762298980057,26.275752647881,0.225186593086682,84.85385143648914
159.0,710.5407395359355,25.571077882122797,0.22124041230701977,85.81049685634451
160.0,731.2574716912441,24.885835256199687,0.21736179026871447,86.76742524570201
161.0,751.8750820248918,24.219805790210728,0.21354998075676537,87.72456667840727
162.0,772.3583345209158,23.572758471983807,0.20980423015008556,88.68185209905461
163.0,792.674882292986,22.94444852791154,0.2061237763675661,89.63921315120278
164.0,812.7943689220513,22.334616283341955,0.2025078454887968,90.59658173641108
165.0,832.6894168580674,21.74299880210594,0.1989556646031264,91.55388979424873
166.0,852.3348076936469,21.169315058336167,0.19546644500682506,92.5110690182253
167.0,871.7081790721552,20.61329526722409,0.19203941271097286,93.46805042438544
168.0,890.7892053677901,20.074646812128798,0.18867377219966872,94.42476438028427
169.0,909.5605790231074,19.55309546186369,0.18536874965900313,95.3811395948365
170.0,928.0064728104762,19.04834909039846,0.1821235536717002,96.33710411748251
171.0,946.1145005271426,18.560125630883213,0.17893740578443182,97.29258294742291
172.0,963.8731882395498,18.08815464811355,0.1758095400951268,98.24750013837836
173.0,981.2742151899794,17.632139531881094,0.17273916474389092,99.20177671918991
174.0,998.3110251774866,17.191827511139056,0.1697255350147824,100.15532977697912
175.0,1014.9780935771553,16.76694928109184,0.1667678887833615,101.10807570192037
176.0,1031.2733308868276,16.357233812784937,0.16386546315638723,102.05992453054479
177.0,1047.1950503163896,15.962450370070284,0.16101753840174923,103.01078286100878
178.0,1062.7435655559168,15.582339434215582,0.15822336375450938,103.9605551541648
179.0,1077.9214463752894,15.216673432811413,0.15548222316440483,104.90913641115095
180.0,1092.7313342743237,14.865243522694241,0.15279342075594704,105.85641947169593
181.0,1107.1785533159468,14.527818900273196,0.15015623613219992,106.80229127165485
182.0,1121.2692119235348,14.204217200653748,0.14757000161018427,107.74662783476946
183.0,1135.00989051778,13.894255323961595,0.14503404838680417,108.68930371838205
184.0,1148.4097878610723,13.597748759374229,0.14254770487025295,109.63018165209095
185.0,1161.4777960015417,13.314560649806333,0.14011035182977605,110.56911422910761
186.0,1174.2241780054323,13.044536477064687,0.13772134967932564,111.50595214269784
187.0,1186.660868447728,12.787552122353894,0.13538009092985764,112.44052596709331
188.0,1198.7990645704867,12.543522164161054,0.13308601101829215,113.37265746753633
189.0,1210.6514650162296,12.312342848591493,0.13083852411620692,114.3021657966072
190.0,1222.232390521167,12.093941921417702,0.12863707750199943,115.22884377605264
191.0,1233.5550467658738,11.888290827298086,0.12648116713158505,116.15247238463166
192.0,1244.6339680199917,11.69534581833595,0.1243702713483245,117.07282973035683
193.0,1255.485086556777,11.51509617171374,0.12230390373597444,117.98966134530285
194.0,1266.1230123580647,11.347577965605845,0.12028163016586922,118.9026965249855
195.0,1276.5635074668255,11.192814708117549,0.11830300224533459,119.81166143760917
196.0,1286.8234499727469,11.050864196218019,0.11636760990039224,120.71624247170247
197.0,1296.9181672270736,10.921834197458017,0.11447509934236758,121.61610412506913
198.0,1306.8639546837242,10.80582206399588,0.11262510561410329,122.51090750410485
199.0,1316.6778058169991,10.702959325331525,0.11081730599981832,123.40026587763329
200.0,1326.3748647886819,10.61343004788482,0.10905143849071716,124.28376357360912
201.0,1335.970863423157,10.537413723573126,0.10732723792030531,125.16097828648287
202.0,1345.4816130861284,10.475119126967721,0.10564448318866139,126.03143458955434
203.0,1354.921305595318,10.426793160605635,0.10400299998060346,126.89463088811
204.0,1364.3043399819314,10.39268548945826,0.10240262974475448,127.75003587254821
205.0,1373.6428561746502,10.373090564906416,0.10084328185933945,128.5970641174716
206.0,1382.9488352954766,10.368303145896451,0.09932487566894531,129.43511451912894
207.0,1392.2317958700373,10.378639714268195,0.09784739472113237,130.26351950484428
208.0,1401.4997523700224,10.404433010999893,0.0964108549392489,131.08158638308873
209.0,1410.758785396512,10.446002956444481,0.09501530996851466,131.88857157254716
210.0,1420.0113850063683,10.503682272447541,0.09366087775641058,132.68367584268935
211.0,1429.2587978821264,10.577781598744757,0.09234769270102468,133.46607410221978
212.0,1438.4968141374231,10.66857375670996,0.09107596719403452,134.23486190043647
213.0,1447.7195540764214,10.7763180657246,0.08984593570087994,134.98911331702607
214.0,1456.9156551485642,10.901172550370772,0.08865789355948775,135.72783194097372
215.0,1466.0697609694207,11.043241698065096,0.08751218605170442,136.44997560075035
216.0,1475.1627944025106,11.202521880657825,0.08640919200062752,137.15446206632242
217.0,1484.1687405109665,11.378810618078877,0.08534936762232201,137.84013347202213
218.0,1493.0593937473166,11.571824098680839,0.08433319176961954,138.50581014309174
219.0,1501.7999845130157,11.780971245434133,0.0833612139791615,139.15024400254026
220.0,1510.352329982728,12.00545201020471,0.08243402895120296,139.77214806039012
221.0,1518.6741070582825,12.244123357624984,0.08155229430982856,140.37018252277363
222.0,1526.720245518854,12.495478541082575,0.0807167293578085,140.94296067499366
223.0,1534.444011145315,12.757613802546622,0.07992811881023146,141.48904893849857
224.0,1541.798273360902,13.028142950754109,0.07918732785734667,142.00696070476556
225.0,1548.7373495712156,13.304176818475202,0.07849531166222742,142.4951538207454
226.0,1555.2188969606848,13.582295712976652,0.07785313318664085,142.95202258284823
227.0,1561.2058241516802,13.858553434463177,0.0772619842471376,143.37588721950146
228.0,1566.668443454616,14.128494964953639,0.0767232190898401,143.7649753095669
229.0,1571.5863213337836,14.387236364039776,0.0762383926760461,144.11739907925184
230.0,1575.9498789583167,14.629582887173163,0.07580931346251844,144.4311227809612
231.0,1579.7615211723714,14.850208352860875,0.07543811142783938,144.7039192412032
232.0,1583.0361582883527,15.043887804327504,0.07512732627822993,144.93331238795332
233.0,1585.8010106017523,15.205777065891894,0.0748800219220811,145.1165018969818
234.0,1588.094647200226,15.33172389895294,0.0746999355017313,145.25026487987657
235.0,1589.965275857917,15.418578483754512,0.07459167284141645,145.3308276672725
236.0,1591.468399085688,15.464464054235412,0.07456095654428042,145.35370449958194
237.0,1592.6641900476282,15.469007064460838,0.07461499131243503,145.31346254781872
238.0,1593.6141299692026,15.433456914005673,0.07476299473017411,145.2033896009032
239.0,1594.378227555653,15.360607081910507,0.07501668040119695,145.01519893205113
240.0,1595.0117283654024,15.254822369427707,0.0753913711809891,144.73835715975753
241.0,1595.5626038964135,15.121854911221309,0.075907277567227,144.35933831211386
242.0,1596.0686089220442,14.968795352292606,0.07659154773598692,143.8604613255802
243.0,1596.5544407062864,14.804192588675553,0.07748146193500774,143.2181294702306
244.0,1597.0276878053764,14.638636460224669,0.07862947142620609,142.40015319269574
245.0,1597.4718923442856,14.486328660204675,0.08011177022999398,141.3613623877664
246.0,1597.8326716218342,14.368940952237727,0.08204360402455606,140.03611090205246
247.0,1597.9866310473942,14.325275521347063,0.08460805934591996,138.32489342840393
248.0,1597.6612297635656,14.438499653142243,0.08811571748778006,136.06830232322267
249.0,1596.1979280182763,14.925046960425904,0.09314009112576235,132.99252021392766
