Time,J,A,S,tau
0.0,100.0,100.0,0.3370009184022632,30.3030303030303
1.0,94.58393074312832,94.68785768311876,0.3310886161177306,30.238515772518024
2.0,89.42020696628204,89.6413187524547,0.32507415060547373,30.17452762359839
3.0,84.51273190638997,84.85064722566129,0.3189690871624315,30.11134661494788
4.0,79.86528956456438,80.30376937364099,0.31278047754982463,30.049218202242955
5.0,75.48561906783422,75.98910366092397,0.3065155511309532,29.988395902585527
6.0,71.38610793325839,71.89556587779407,0.30018170061761923,29.929140516581136
7.0,67.58418777622867,68.01254901822784,0.29378646799821423,29.87171925210519
8.0,64.102780254363,64.32990673192332,0.28733753715345023,29.816404977242833
9.0,60.970173909051404,60.837947922321376,0.2808427167993405,29.76347506803151
10.0,58.219530688085214,57.527404561795684,0.27430992793311393,29.713210282844717
11.0,55.888016029016065,54.38942604053042,0.2677471875078777,29.665893477284094
12.0,54.01543313214979,51.41555702991038,0.2611625920211496,29.62180823069172
13.0,52.64253260356853,48.59772456778557,0.2545642994698812,29.581237370134016
14.0,51.808911746677275,45.92821555684161,0.2479605096105781,29.544461402203353
15.0,51.55101692206601,43.39967256173723,0.24135944303682544,29.511756893875216
16.0,51.899816668532424,41.005068743422164,0.2347693183764814,29.483394798064438
17.0,52.87880514480105,38.737701558935065,0.22819832817895602,29.459638691250593
18.0,54.50227280930783,36.591177978085135,0.2216546135528968,29.440743075164516
19.0,56.773882819813046,34.55940214160211,0.21514623729278393,29.426951614296666
20.0,59.68578861404919,32.63657078873407,0.20868115583276528,29.4184952783967
21.0,63.2183325342037,30.817150315227533,0.20226719255356454,29.41559102566258
22.0,67.33947255891934,29.09585837447697,0.1959120021819866,29.418439811480376
23.0,72.00601691171852,27.4676677956335,0.18962304609132674,29.427225295056
24.0,77.1642998649613,25.92778765039924,0.1834075588395375,29.442112312784502
25.0,82.75173170958499,24.471657380253593,0.17727252024788906,29.463245635172523
26.0,88.69836647510546,23.094935607173248,0.17122462442382275,29.490748719786822
27.0,94.92881912070922,21.793492420187874,0.16527025312143104,29.52472272175405
28.0,101.3641423045719,20.56339802830821,0.15941544887541023,29.565245674983817
29.0,107.92374058199916,19.40091382222034,0.15366588993897565,29.612371793849384
30.0,114.52646607547265,18.30322884676424,0.1488422114030848,29.686439198205953
31.0,121.09178157605282,17.26832650406143,0.14556645070005517,29.803716498835637
32.0,127.54504251993116,16.292399731729724,0.1423267572513227,29.926765349739718
33.0,133.81538886649656,15.373034021660796,0.13912579824727758,30.055402936512067
34.0,139.8378828320928,14.50814079997581,0.13596628767224742,30.18942364690192
35.0,145.55450392396966,13.69596774077863,0.1328509667501469,30.328599460266723
36.0,150.91498984552817,12.93509645424839,0.12978258361023218,30.472680314769924
37.0,155.8775356212085,12.224429225113278,0.12676387352243382,30.621394663003134
38.0,160.40934528705654,11.563171233588866,0.12379754043433328,30.77444988942899
39.0,164.48702501996175,10.950796059268626,0.12088623902713476,30.93153294911394
40.0,168.0969005775845,10.387000939283153,0.11803255740242144,31.09231092160857
41.0,171.23546259140338,9.871635001188158,0.1152390002887013,31.256432125147395
42.0,173.90716667353317,9.404720333022112,0.11250798973784867,31.423525961524007
43.0,176.12762614845414,8.986269029564216,0.10984182645071941,31.59320392819387
44.0,177.91963364077807,8.616315995192616,0.10724271124749787,31.76506153010834
45.0,179.3146735544194,8.294808617941758,0.10471271396231803,31.938677241745225
46.0,180.3508451246466,8.02156805714886,0.10225377777394536,32.113614099279914
47.0,181.07157842399494,7.796244414215757,0.0998677171769646,32.289420520263015
48.0,181.5237842554983,7.61828925790102,0.09755621910769309,32.46563095933451
49.0,181.75714615102876,7.48690428600928,0.09532083725359568,32.641766485087594
50.0,181.82167762896125,7.4010424491948,0.09316300065509622,32.81733566992639
51.0,181.76642653917733,7.359394363139591,0.09108401699607308,32.99183535340932
52.0,181.63795047430276,7.360391812524182,0.08908507965640051,33.16475144590574
53.0,181.47901614263554,7.402218877892156,0.0871672761096632,33.335559757865
54.0,181.3275491963377,7.482829625485216,0.08533159772692983,33.50372687220586
55.0,181.21586373596165,7.599972302931845,0.08357895085709838,33.66871107242178
56.0,181.17018868749318,7.751217396317927,0.08191016902637091,33.8299633411125
57.0,181.21048643177966,7.933988319146608,0.08032602609749405,33.98692844539863
58.0,181.35054192821775,8.145593938768629,0.0788272502309135,34.139046127446214
59.0,181.5982843992336,8.383260956322639,0.0774145385111619,34.285752422807896
60.0,181.95631671258113,8.644165890654056,0.07608857198180259,34.426481127796926
61.0,182.42257022485362,8.925465861371217,0.07485003115662854,34.5606654386764
62.0,182.9910515660167,9.224326834667641,0.07369961159736,34.68773978034407
63.0,183.65263555282078,9.537949150458585,0.07263803943542757,34.807141851122076
64.0,184.39585891367923,9.86359059711795,0.07166608669316409,34.9183149087633
65.0,185.20768658002115,10.198580506432375,0.07078458621667012,35.02071032122275
66.0,186.07423563361533,10.54030757804848,0.06999444601780609,35.11379040441499
67.0,186.981345513757,10.886286774321341,0.06929666280384668,35.197031566902474
68.0,187.91513194664407,11.234162341130455,0.06869233442453905,35.269927794664774
69.0,188.8624279834094,11.581712866273815,0.06818267115864339,35.331994492816634
70.0,189.81111411273983,11.926867411953523,0.06776900524947721,35.382772614331195
71.0,190.75035503045322,12.267724299964234,0.06745279823806079,35.42183304677293
72.0,191.67075930126714,12.602573739898615,0.06723564667233306,35.4487818430763
73.0,192.5644147093331,12.929928721001337,0.06711928314934568,35.46326472192309
74.0,193.4248857085246,13.248567225146815,0.06710557707481887,35.4649724591945
75.0,194.24707287545684,13.557560748836268,0.06719652599648764,35.45364640667227
76.0,195.02708346227215,13.856370940791026,0.06739425609977039,35.42908716869856
77.0,195.76213438610299,14.144871228211564,0.06770100026048637,35.39115117345841
78.0,196.4495574286177,14.423440349520991,0.06811907532868862,35.339775232223914
79.0,197.0874739144565,14.692979634131028,0.06865086705844589,35.27495498152011
80.0,197.67380154785417,14.955038995463477,0.06929880122974294,35.196771321176584
81.0,198.2059602794481,15.211838458599448,0.0700653004121967,35.10538967070521
82.0,198.68051513530182,15.46621876325188,0.07095274517331587,35.00105685935596
83.0,199.09277051375614,15.721683221475933,0.07196342495096232,34.88411098741807
84.0,199.43635936548142,15.982304455150295,0.07309948349820791,34.75498012990626
85.0,199.70297661607808,16.252624692927355,0.07436285993383039,34.614183182483785
86.0,199.88216877888675,16.537504762892603,0.07575522659258331,34.46232824234568
87.0,199.9611987916498,16.841939368464438,0.07727792434243311,34.30010964536138
88.0,199.925030813989,17.17085036715278,0.07893189761282492,34.128303393220406
89.0,199.75644252936758,17.528871007187814,0.08071763096597599,33.94776092046007
90.0,199.43627802825097,17.920136978435455,0.08263508940302576,33.75940124850495
91.0,198.9438558955137,18.348099041417584,0.08468366432095684,33.564201658059474
92.0,198.25751647535253,18.81537362129557,0.08686212794006133,33.363186884307716
93.0,197.3553486179415,19.323634167870654,0.08916859573899426,33.157417416314296
94.0,196.21600301359675,19.873566401047405,0.09160050520963839,32.947976276761516
95.0,194.8195199907758,20.46490301382182,0.0941546315190511,32.73595647300124
96.0,193.14834355777487,21.096431873867214,0.09682706935552798,32.522448059044756
97.0,191.18821646268094,21.766092507661796,0.09961324889915077,32.3085235661829
98.0,188.92865758962964,22.471154596174785,0.10250802305682796,32.09522859256789
99.0,186.363836051815,23.208305712205362,0.10550569157963001,31.88356797140419
100.0,183.4927785651494,23.973824793694043,0.108600060397376,31.674496258624195
101.0,180.31947350911065,24.76374204390775,0.1117845439486832,31.46890945691642
102.0,176.8527134612457,25.57397576062345,0.1150522471619227,31.26763824549866
103.0,173.1057487753032,26.400460228550187,0.11839605886371295,31.071441444069805
104.0,169.09580033841206,27.239256901893487,0.12180874552422835,30.881001544143405
105.0,164.8433417284387,28.0866360285288,0.1252830505073711,30.696923762845312
106.0,160.3713766911894,28.939130797964236,0.1288117846815399,30.51973538768355
107.0,155.70470652071825,29.793567885482613,0.1323879128483031,30.349885905818816
108.0,150.869241910712,30.647072517215193,0.1360046387141885,30.187747435831504
109.0,145.89143442746746,31.49703740047796,0.13965546805156384,30.033618852834973
110.0,140.797731523683,32.341066097720415,0.1433342669360825,29.887729785929263
111.0,135.6141914954929,33.17689853888984,0.14703530837575315,29.750244633288947
112.0,130.3661650673717,34.00231349593416,0.15075331797703387,29.621266328973277
113.0,125.0781921681517,34.81501609858766,0.15448349595305585,29.500841699194694
114.0,119.77390613221277,35.61252422725835,0.15822152625799066,29.38896747434357
115.0,114.47600994173648,36.39206089953243,0.16196358201922162,29.28559531783056
116.0,109.20627782433662,37.150449763918346,0.1657063270312911,29.190636584169315
117.0,103.98560454173582,37.88402628953454,0.1694469105001895,29.103967008776962
118.0,98.83407870943853,38.58860721749345,0.17318293927639977,29.02543226058875
119.0,93.77097259490057,39.25948793415244,0.17691245548734558,28.95485240733045
120.0,88.81471048703095,39.89148029365912,0.1806339118309932,28.892025952856176
121.0,83.98275759181531,40.47899271738831,0.18434614871016433,28.836733491255423
122.0,79.2915526665149,41.016199648319365,0.1880483562119638,28.788741598296504
123.0,74.7563438001478,41.49722990938476,0.19174003827576502,28.747806165311996
124.0,70.39101539263807,41.916373456994414,0.19542098068600305,28.713675187631377
125.0,66.20786963218771,42.268302846009234,0.1990912212044292,28.686091278003847
126.0,62.21748206598707,42.54832508109584,0.20275101645262075,28.664794066062182
127.0,58.42863112467144,42.75257248703175,0.2064008058620848,28.649522284324355
128.0,54.84822905051981,42.87814393777724,0.21004118272483965,28.640015436914236
129.0,51.48135069235464,42.92320828919674,0.2136728658661334,28.636015254937014
130.0,48.33114183328523,42.887060442626364,0.217296678114071,28.63726708375324
131.0,45.3991867926702,42.77018351781297,0.2209135132984588,28.64352125158233
132.0,42.685470941978835,42.57395146255456,0.22452432000753964,28.65453292736963
133.0,40.18874967680624,42.300892448443506,0.22813007680898736,28.670064614636825
134.0,37.906890479889654,41.95423732432256,0.2317317744495488,28.689884560200127
135.0,35.83670117910877,41.5379787741529,0.23533040247190826,28.71376949143992
136.0,33.97473124173445,41.056645272447675,0.23892692969491847,28.741503014773844
137.0,32.3171397757633,40.51518121410426,0.24252229555355984,28.772876837056973
138.0,30.859986136561613,39.918805927415036,0.2461173963228537,28.80769096310459
139.0,29.599494233205085,39.272904362768415,0.24971307602653023,28.845753444540122
140.0,28.532142840502143,38.582921232401105,0.25331012090441024,28.886880276349387
141.0,27.65479395835798,37.85427590559719,0.25690925078048066,28.930895677602955
142.0,26.964880637118075,37.09231188674257,0.26051111184719905,28.97763197808182
143.0,26.460422837855944,36.30224462875858,0.2641162762306717,29.026929144186422
144.0,26.1400629942164,35.48912319362119,0.26772523881181437,29.078634711657863
145.0,26.0031548229209,34.65780019128542,0.2713384109753256,29.13260391004597
146.0,26.04974119038404,33.81292465440597,0.27495612220158855,29.18869908461242
147.0,26.28049843616294,32.958927703963994,0.27857862141765516,29.246789374739247
148.0,26.696750343617882,32.100006473494325,0.28220607433327577,29.30675072475936
149.0,27.30040006585902,31.24011727053576,0.2858385629156808,29.36846560613781
150.0,28.093795138774578,30.382975805279962,0.289476090455685,29.431822473615377
151.0,29.079665164538305,29.532051502789987,0.29311858269153784,29.496715574712915
152.0,30.261045085309767,28.690553793245346,0.2967658862554993,29.563044914182516
153.0,31.64102717276547,27.861435209845897,0.30041777386082663,29.63071571590217
154.0,33.22264141475741,27.0473972856924,0.30407394839810625,29.69963809032515
155.0,35.00879233451359,26.250889981215405,0.30773404349065514,29.76972694719969
156.0,37.0019266022045,25.474110474579998,0.31139762572795493,29.84090172044081
157.0,39.20382592835419,24.719021914159537,0.3150642002346533,29.91308595736265
158.0,41.615684127351365,23.98738074923792,0.31873321512696895,29.986207046550398
159.0,44.23763922420482,23.280728488056052,0.32240405917986603,30.060196285408594
160.0,47.06845945343953,22.600426613772036,0.3260760712389928,30.13498823127115
161.0,50.10609614011044,21.94770087828078,0.3297485422705173,30.210520672671098
162.0,53.346495806490005,21.32362476192112,0.3334207142694488,30.286734572249138
163.0,56.78413175979523,20.729180794912097,0.3370917921887931,30.36357336841868
164.0,60.41194268468337,20.165284017233176,0.3407609379710401,30.440983419464956
165.0,64.22054275012457,19.632785789626052,0.3444272810278191,30.51891325257724
166.0,68.19862686748675,19.132518003600982,0.348089918093716,30.597313668966923
167.0,72.33293166953379,18.66532182802261,0.35174791678451606,30.67613754785528
168.0,76.60788683851437,18.232062357528807,0.3554003186802493,30.755339669156506
169.0,81.00571199555091,17.833651523502972,0.35904614312743255,30.834876507341
170.0,85.50632089896567,17.471071386890298,0.36268438919142865,30.91470615783569
171.0,90.08736330718291,17.145393525943952,0.3663140387808784,30.994788179108507
172.0,94.72420440520574,16.857795790494063,0.3699340592151235,31.075083474343444
173.0,99.38991387326499,16.609576444958783,0.3735434057439296,31.155554177613126
174.0,104.05527760326486,16.40216482004154,0.377141024008836,31.23616354265017
175.0,108.6888709065103,16.237130764088324,0.3807258523445641,31.31687584369068
176.0,113.25714031001169,16.11618976947251,0.3842968239543638,31.39765628369515
177.0,117.7245239094715,16.04120448878894,0.38785286897142074,31.478470909389863
178.0,122.05362330205527,16.014181862663204,0.3913929164073139,31.559286532788406
179.0,126.20545851281804,16.037265979849945,0.3949158959888802,31.6400706592957
180.0,130.139801503696,16.11272575230545,0.39842073990272003,31.720791422287853
181.0,133.81556653031498,16.242934217848767,0.40190638443179605,31.801417519827254
182.0,137.19141145046785,16.43034508071824,0.4053717714601319,31.881918158693207
183.0,140.2264526569361,16.67746303674503,0.4088158498778807,31.9622630036577
184.0,142.88113031837725,16.986808447369324,0.41223757688691604,32.04242213128296
185.0,145.11821864846596,17.360876539566966,0.41563591920968823,32.1223659879783
186.0,146.9039658391455,17.80209244068573,0.4190098542044211,32.20206535214798
187.0,148.20933781720976,18.312762290147923,0.4223583709164624,32.28149130061827
188.0,149.01110124497748,18.89501558103212,0.4256804710101029,32.360615176144925
189.0,149.29313861743591,19.550753607564022,0.42897516968463784,32.43940856263966
190.0,149.0471869818703,20.281584497085046,0.4322414964718814,32.51784325822064
191.0,148.27328403919165,21.088791828181026,0.4354784952093205,32.595891248887845
192.0,146.98114028887397,21.973245383879057,0.43868522624731426,32.673524709980214
193.0,145.18802736813967,22.93536266596352,0.44186076520932666,32.750715960738326
194.0,142.9194180791244,23.975042636017896,0.445004204659729,32.82743746974129
195.0,140.2076821225725,25.091633803019523,0.44811465400424844,32.903661838794235
196.0,137.09043895750997,26.283862711334294,0.4511912401202047,32.97936179113108
197.0,133.609052762564,27.5498077986206,0.4542331074258261,33.05451016461505
198.0,129.80688288355046,28.886852608728297,0.45723941818256447,33.12907990509479
199.0,125.72764980303826,30.291653142958722,0.4602093526743147,33.203044061657955
200.0,121.41401273473313,31.76010623100664,0.463142109335312,33.276375783370746
201.0,116.90644597712019,33.287323856643965,0.46603690483035914,33.349048317403366
202.0,112.24246421572819,34.86761138835525,0.4688929740901481,33.42103500844565
203.0,107.45619877975196,36.494452592272005,0.4717095703043736,33.49230929932449
204.0,102.57829616477918,38.160497873700834,0.47448596487526434,33.56284473274105
205.0,97.63607929264671,39.85755732100138,0.4772214473340902,33.63261495405236
206.0,92.65389978886766,41.57659889118838,0.47991532522313757,33.70159371502732
207.0,87.6536081318295,43.30775210718896,0.4825669239455729,33.769754878512956
208.0,82.65507550674575,45.04031807811248,0.48517558658498383,33.83707242395693
209.0,77.67671368702143,46.76278698671963,0.4877406736992529,33.90352045376705
210.0,72.73595365696434,48.46286645550487,0.4902615630938562,33.96907320034031
211.0,67.8496559385731,50.12752275199024,0.4927376495596428,34.03370503381084
212.0,63.034437651622135,51.74303941157489,0.49516834459532955,34.097390470463225
213.0,58.30690866009217,53.29509915976143,0.4975530761117361,34.16010418175662
214.0,53.68381402721295,54.768895535671646,0.4998912881190205,34.22182100392421
215.0,49.18208191910274,56.149281828919,0.5021824403988179,34.28251594811274
216.0,44.81877785952383,57.42096430612158,0.5044260081631209,34.34216421102922
217.0,40.610964828570474,58.56874746722818,0.5066214817086129,34.40074118633183
218.0,36.57547575933706,59.57783145847119,0.5087683659841123,34.45822247513451
219.0,32.72859180215152,60.434181214260995,0.5108661803896618,34.51458389961019
220.0,29.08565174816383,61.12492727750163,0.5129144582443866,34.569801514320076
221.0,25.66059435641017,61.63882099436911,0.5149127464534717,34.62385161921584
222.0,22.465462174825543,61.96670732145368,0.5168606051229139,34.676710772737415
223.0,19.50989752348239,62.10198943307097,0.518757607172324,34.72835580523245
224.0,16.80066731581164,62.04105120293041,0.5206033379471848,34.778763832674784
225.0,14.34127277440678,61.78359204908599,0.5223973948743517,34.82791226969924
226.0,12.131608822852751,61.33286863647673,0.5241393869213452,34.875778848214715
227.0,10.167921620960763,60.69571030015615,0.525828934397429,34.92234162444557
228.0,8.442790121547866,59.88244589674767,0.5274656685559622,34.96757899987259
229.0,6.945392174405214,58.906579075701934,0.5290492311080324,35.01146973348912
230.0,5.661939051636146,57.78431802040182,0.5305792739617666,35.053992957157725
231.0,4.57627042780272,56.53395279823764,0.5320554588191326,35.09512819117554
232.0,3.6705765084004747,55.17513621743931,0.5334774568378297,35.134855359456324
233.0,2.9261897240346526,53.72812208646598,0.5348449482961704,35.1731548050897
234.0,2.324387956009208,52.213022037613584,0.5361576222680601,35.210007305607
235.0,1.8471567060680194,50.64913305744975,0.53741517630881,35.24539408905022
236.0,1.4778632812596588,49.05438218631996,0.5386173161518619,35.2792968492775
237.0,1.201813975117049,47.44491324359904,0.539763755427052,35.31169776181974
238.0,1.006678476820459,45.83482704136905,0.5408542153840362,35.342579499563094
239.0,0.8827814781424996,44.23606904531926,0.5418884246370663,35.371925248426216
240.0,0.8232734476824385,42.65844568842716,0.5428661189256235,35.39971872296885
241.0,0.8242011018372747,41.109741948026006,0.543787040893012,35.4259441820153
242.0,0.8845006808308736,39.59591060336629,0.5446509398724777,35.4505864440772
243.0,1.0059396683440123,38.121302030792094,0.5454575716981379,35.47363090319473
244.0,1.1930116987026413,36.68891270845126,0.546206698558706,35.49506354312803
245.0,1.4528269657165926,35.300625593787714,0.5468980888303789,35.51487095352262
246.0,1.7949768898862397,33.957435546189565,0.5475315169573126,35.53304034408093
247.0,2.2313977685072364,32.65964684164195,0.5481067633401027,35.54955955960975
248.0,2.7762208411382385,31.407041250694224,0.5486236142555958,35.56441709441989
