Time,J,A,S,tau
0.0,100.0,100.0,0.9055726503081809,10.0
1.0,97.85353503127155,89.1889759668713,0.9010887898191042,9.825343891842971
2.0,95.84223983673446,79.8714947429227,0.8971746621358143,9.668241686919288
3.0,94.02141882861073,71.81705463788467,0.8937959625367101,9.52857466915856
4.0,92.66251824404617,64.83216882722189,0.8909190916965398,9.406156609419705
5.0,92.82103145283133,58.756006035674694,0.8885126873482737,9.300798196365784
6.0,97.9794947024735,53.454462533079976,0.886547438854167,9.212307462420677
7.0,118.0197010344673,48.815357977553646,0.8849959196584666,9.1404902316592
8.0,177.1227617116289,44.744542919111986,0.8838324353331789,9.085150594027173
9.0,326.3559797097294,41.16275056872309,0.8830328857293936,9.046091410176713
10.0,668.1272743303929,37.609130000076725,0.8862772236214387,9.170104927014519
11.0,1374.7746712695564,34.450706362981435,0.8895994050234542,9.302857024289988
12.0,2671.0216768059136,31.673882242541172,0.8928340632627079,9.437832966925074
13.0,4793.304400986927,29.317421981685165,0.8959820104420807,9.575054148927933
14.0,7895.965253280829,27.626526222547337,0.899044123134917,9.714544622004938
15.0,11904.111673713458,27.421168214436253,0.9020213329620372,9.856331793930735
16.0,16334.994988942277,30.959930895073818,0.9049146169524859,10.000447259243563
17.0,20144.343400537564,43.69490672579515,0.9077249877743496,10.146927787086524
18.0,22060.71334368026,77.32834614876731,0.9104534837566629,10.295816489517549
19.0,22252.94171231661,154.28839823975645,0.9131011587037088,10.44716419886758
20.0,21953.671624696413,313.89004935517283,0.915669071491455,10.601031086068787
21.0,21478.952597192612,626.1610849734936,0.9181582754297708,10.757488554907955
22.0,20741.276697976093,1185.674161034289,0.9205698073823769,10.916621450771547
23.0,19613.95685154677,2103.7312440833366,0.9229046766404972,11.078530625168161
24.0,17967.988655134322,3489.3756383260493,0.9251638535576611,11.243335899478637
25.0,15707.639713605062,5415.4128653718535,0.9273482579652793,11.411179471626056
26.0,12821.745793413143,7870.517947207807,0.929458747435413,11.582229821348918
27.0,9445.556970465706,10702.872706631313,0.9314961054064804,11.75668612447438
28.0,5920.311806848637,13567.88546279518,0.933461029336412,11.9347832492624
29.0,2833.1804933943113,15896.478952356038,0.9353541190269473,12.116797328657965
30.0,873.9236472097693,17044.007566285993,0.9371758653130529,12.303051928375156
31.0,176.53393847267319,16936.207409081933,0.9389266394229686,12.49392478125519
32.0,76.06706404901635,16277.328507086304,0.9406066833702089,12.689855029894618
33.0,71.73131195688563,15576.088371902995,0.9422161018525216,12.891350874037286
34.0,71.46901840833192,14920.953971912364,0.9437548562303876,13.098997441826848
35.0,71.24896077738583,14311.530382822317,0.9452227614424752,13.31346434979689
36.0,71.05419683091625,13743.851014007036,0.9466194853800708,13.535514503357687
37.0,71.77735245029855,13214.320526317577,0.9479445561067642,13.76600873365221
38.0,90.77077243714412,12719.7042102373,0.9491973694427953,14.005912574614419
39.0,258.753538683046,12257.08750958392,0.9503772073555302,14.256299055180348
40.0,1024.440325676491,11823.839687257025,0.9514832619236098,14.51834910268781
41.0,3152.3597222725407,11417.582520451275,0.9525146678885602,14.79334817912786
42.0,7236.375265894237,11036.16281711886,0.9534705439504552,15.082678294851224
43.0,13190.002880868144,10677.628275023408,0.9543500428814897,15.387804582854356
44.0,20276.045260064264,10340.206156462033,0.9551524097714229,15.710255758519416
45.0,27545.233739350664,10022.284517083295,0.9558770471224848,16.051598148370598
46.0,34236.38452487396,9722.395598120822,0.9565235844660657,16.41340336754266
47.0,39928.74314588204,9439.201115154514,0.9570919492793091,16.797210320686652
48.0,44501.78546191705,9171.479171367575,0.9575824350033169,17.204482894352466
49.0,48025.42351101866,8918.113035078013,0.9579957639708206,17.63656494642844
50.0,50658.064506846626,8678.080277641815,0.9583331337345324,18.09463606293001
51.0,52579.816879112914,8450.443972303903,0.9585962515765947,18.579669798604055
52.0,53957.16783288512,8234.344436313366,0.9587873469713055,19.092398225050374
53.0,54929.08910356489,8028.991928057152,0.95890916240681,19.633285170886445
54.0,55604.88059718431,7833.660095643526,0.9589649216358885,20.202510345524708
55.0,56067.317226521176,7647.68016610008,0.9589582775577533,20.79996526622054
56.0,56377.54469410714,7470.435702465318,0.9588932419631597,21.425261277005056
57.0,56580.00575257284,7301.357826190545,0.9587741022744448,22.07774949957144
58.0,56706.60482514907,7139.921163351626,0.9586053311401203,22.7565486623566
59.0,56780.06817162362,6985.640449379191,0.95839149415141,23.460580857374456
60.0,56816.50637084502,6838.068015700766,0.9581371604226192,24.18861149129545
61.0,56827.28381649099,6696.792746392638,0.9578468213143925,24.939289966281244
62.0,56820.38866792749,6561.4400119344555,0.9575248190877955,25.711189829268935
63.0,56801.43140929779,6431.671081406334,0.9571752910341347,26.50284593433214
64.0,56774.33729204402,6307.1816770096775,0.9568021311289903,27.312785870481886
65.0,56741.78916151924,6187.700715745186,0.956408933311581,28.139561563318377
66.0,56705.70750746997,6072.979635508877,0.955999016457316,28.981764706261075
67.0,56667.37088606687,5962.792363158712,0.9555753741623133,29.838051688254303
68.0,56627.6801445505,5856.922737398621,0.9551406977276978,30.70715053340161
69.0,56587.25534242256,5755.1637439295755,0.9546974011875209,31.587863964264717
70.0,56546.50590818654,5657.311784212158,0.9542475689473281,32.47909320911886
71.0,56505.73198144279,5563.166399985163,0.9537930764393219,33.37980684049627
72.0,56465.12597581071,5472.529131859458,0.953335491848924,34.28907833784765
73.0,56424.832145946646,5385.20460627926,0.95287621406557,35.20604259005425
74.0,56384.94183260642,5301.002910830544,0.9524163807216467,36.129933412008825
75.0,56345.523909870884,5219.738769522717,0.9519569956572705,37.060037588187804
76.0,56306.6196380063,5141.236473326487,0.9514988492740568,37.9957297780158
77.0,56268.258667955364,5065.326349395648,0.9510426281353589,38.936428933109525
78.0,56230.45489768984,4991.850852446956,0.9505888503590597,39.88162864228161
79.0,56193.21550786533,4920.658893749828,0.9501379559061365,40.830858134636614
80.0,56156.537506095854,4851.612962728214,0.9496902491373762,41.78371116855078
81.0,56120.414098031564,4784.581187568973,0.9492459823674128,42.73980688792232
82.0,56084.831499283246,4719.444693311445,0.9488053027549777,43.698817860769324
83.0,56049.773419677316,4656.090044024173,0.9483683177131887,44.660437470389155
84.0,56015.218836642,4594.415187648992,0.947935057756549,45.624401052958405
85.0,55981.14494902428,4534.323774484958,0.947505519413175,46.590463167124696
86.0,55947.526137591594,4475.72719800092,0.9470796533415147,47.55840520237334
87.0,55914.334919027206,4418.544323711495,0.9466573723250222,48.52803168653589
88.0,55881.54202480706,4362.698021538516,0.946238568136345,49.49916037860415
89.0,55849.11882632798,4308.120070004925,0.9458230941060274,50.47163460656221
90.0,55817.03695981175,4254.744015666072,0.9454107958728619,51.44530294432588
91.0,55785.26479088456,4202.510489825695,0.9450014921010136,52.42003337492516
92.0,55753.76856972553,4151.364130155526,0.9445949888845252,53.39570341933704
93.0,55722.513993222616,4101.252131323953,0.9441910834190917,54.372197512810956
94.0,55691.46587278168,4052.1286496915036,0.9437895553200609,55.34941471473677
95.0,55660.58891939112,4003.948825524434,0.943390181839871,56.327256121554356
96.0,55629.84693788016,3956.6716480140335,0.9429927317140372,57.305630447097414
97.0,55599.202593017355,3910.2617839621157,0.942596965047662,58.28445464842136
98.0,55568.61849974916,3864.684221175715,0.9422026412876472,59.26364633404419
99.0,55538.055870671626,3819.9078224862324,0.9418095150494756,60.24312801281796
100.0,55507.47383060273,3775.907234760654,0.9414173368814593,61.222826577841474
101.0,55476.831444747615,3732.6573513798608,0.9410258571166039,62.202669173757776
102.0,55446.08639922821,3690.1355685239914,0.94063482450518,63.182584732023614
103.0,55415.191687818595,3648.3273174495316,0.9402439871372484,64.16250300435806
104.0,55384.099643270296,3607.2191390413095,0.9398530932289775,65.14235361414211
105.0,55352.763102739314,3566.797061458106,0.9394618901817091,66.12206710647035
106.0,55321.127328341485,3527.056465975962,0.939070128357835,67.1015707054468
107.0,55289.13092284929,3488.0007165715488,0.9386775620682984,68.08078718957009
108.0,55256.71242794639,3449.63324912803,0.9382839456676824,69.05963928814377
109.0,55223.809340577056,3411.9585570692852,0.9378890339411101,70.03804919128699
110.0,55190.34617915852,3374.9942933598713,0.9374925899622573,71.01593002835743
111.0,55156.23886740697,3338.7668334053224,0.9370943833458258,71.99318808295634
112.0,55121.40225500064,3303.3035677109187,0.9366941843367406,72.96972891657727
113.0,55085.73445346765,3268.6476384781445,0.9362917751484628,73.945446042158
114.0,55049.12056622747,3234.8544558710887,0.9358869480985671,74.92022320864565
115.0,55011.43812417153,3201.9858343915375,0.9354795002033767,75.89393963899919
116.0,54972.53822889962,3170.129728801206,0.9350692493470611,76.86645548356901
117.0,54932.262049731966,3139.384427680903,0.9346560215749764,77.83762362421854
118.0,54890.415555129504,3109.8794492727834,0.9342396664578427,78.80727667846514
119.0,54846.78106186617,3081.7651456203216,0.9338200492325482,79.7752340706142
120.0,54801.09223180918,3055.236436836978,0.9333970663141626,80.74128984832335
121.0,54753.04710335252,3030.520914863499,0.9329706362655283,81.7052203996449
122.0,54702.27786372349,3007.906697587112,0.9325407156164474,82.66677247603212
123.0,54648.34755643591,2987.745624613025,0.9321072978881146,83.62566459016989
124.0,54590.73142101375,2970.4705318474143,0.9316704209409535,84.58158191974874
125.0,54528.7898336278,2956.620644460914,0.931230174922659,85.53417085529071
126.0,54461.74055333849,2946.8675738845,0.9307867090954314,86.48303444736243
127.0,54388.62362290683,2942.0484209434258,0.930340238879907,87.4277275603288
128.0,54308.24689023303,2943.2170964461675,0.9298910566738138,88.3677492118804
129.0,54219.12498213687,2951.702131153592,0.9294395403209855,89.30253640896679
130.0,54119.39184274062,2969.1896583873386,0.9289861642312771,90.23145575013481
131.0,54006.690888002,2997.8279345378137,0.928531509994035,91.15379495385514
132.0,53878.03046968382,3040.3656099484983,0.9280762771031225,92.06875360710778
133.0,53729.589510871054,3100.337934687161,0.9276212948439804,92.97543221029571
134.0,53556.47818978365,3182.297870140736,0.9271675313540514,93.87282206589519
135.0,53352.411590575386,3292.132648146536,0.9267161039319325,94.75979259675844
136.0,53109.31047780789,3437.4552772574775,0.9262682854345451,95.63507951842851
137.0,52816.79763154304,3628.104935944567,0.9258255085535106,96.49727190981413
138.0,52461.59439276759,3876.759309938045,0.9253893658413016,97.34479915823238
139.0,52026.83758343715,4199.653421258753,0.9249616041788415,98.17591807350729
140.0,51491.37509892062,4617.3733731379025,0.924544112668162,98.98870016632156
141.0,50829.17776868342,5155.637307237646,0.9241389025511857,99.78101939477651
142.0,50009.13109850416,5845.887666620168,0.9237480781031374,100.5505405808383
143.0,48995.646502381365,6725.405688900955,0.9233737980471375,101.29470835147067
144.0,47750.77455719196,7836.513946604528,0.9230182278664105,102.01073591538604
145.0,46238.780909913396,9224.295656428221,0.9226834843337296,102.69559280992331
146.0,44434.330749201144,10932.23204076617,0.922371575538577,103.34598976038312
147.0,42335.427501385566,12995.329499497713,0.9220843411705105,103.95835707731305
148.0,39981.66234665169,15430.836793753137,0.9218234004519279,104.52881211972735
149.0,37476.64988522009,18227.66205340448,0.921590118120476,105.05310893196601
150.0,35010.724240175055,21336.684955704917,0.921385600737525,105.52655924547054
151.0,32875.04936596349,24665.191681078686,0.9212107391802676,105.94391010686253
152.0,31451.723842480485,28078.8286677697,0.9210663178416914,106.29915735595111
153.0,31159.624272308083,31412.95111152744,0.9209532156709748,106.58526191671399
154.0,32338.914456237413,34492.577053776775,0.9208727344821656,106.793719793371
155.0,35081.74902396581,37156.93711782754,0.9208271076327581,106.91390313242447
156.0,39071.55361355192,39282.46558769833,0.9208202738148217,106.9320365646616
157.0,43553.42342013313,40798.367071220535,0.9208590694816996,106.8295552630251
158.0,47552.242616523596,41691.33154637359,0.920955126958489,106.58036284193895
159.0,50302.8338217158,41999.55780315659,0.9211280572844293,106.14600148442058
160.0,51621.32818112334,41799.23232888918,0.9214112020149294,105.46648134946932
161.0,51897.525116214274,41188.040876004205,0.9218630018713397,104.44122887116971
162.0,51713.07966901031,40269.752270547135,0.9225924704384235,102.88399502492656
163.0,51462.44653844305,39142.41252200796,0.9238270438036608,100.39447466210588
164.0,51273.63394186266,37891.004808529244,0.9261500177107962,95.86558005612454
165.0,51134.10449585077,36584.14585313261,0.9318471084997345,84.19624314193702
166.0,51004.51992212345,35270.47822367339,0.9476251863445394,46.3202345162681
167.0,50862.38538838157,33973.895896478,0.954743929119588,31.49556154384667
168.0,50656.801806128584,32745.177125310904,0.9573451060502945,26.12305211196356
169.0,50166.355484051,31801.26329304194,0.9584996123498827,23.11902399056868
170.0,48701.5892742488,31810.88367439782,0.9589310885001212,21.124842135826643
171.0,44878.89424973777,34095.985112829774,0.9589155373541902,19.675270633360523
172.0,37175.65244856218,40053.428414953414,0.9585869764382878,18.559726727581776
173.0,25710.229771665807,49398.67232741396,0.9580203264374284,17.666188245443646
174.0,13599.148950018583,58911.03386366982,0.9572614916574659,16.928432877835156
175.0,4985.713546610148,64510.31234718949,0.9563404312284258,16.304315291959107
176.0,1150.4299780906224,65112.965808002904,0.9552775951868007,15.765521122372396
177.0,183.34135443851233,62810.27580104241,0.9540873946654425,15.292234752543504
178.0,62.79539025449558,59708.43056358667,0.9527802088637655,14.870145969647561
179.0,56.39921860352701,56561.74058351687,0.9513636127701842,14.48866467456446
180.0,56.022830391666126,53483.602085259,0.9498431636344032,14.139802233366394
181.0,55.733104295780066,50483.251613382934,0.9482229255002051,13.817439281607312
182.0,55.430552926147385,47563.879610303055,0.9465058276798499,13.516837175570467
183.0,55.11424241098243,44728.42353575028,0.9446939264123859,13.23428880322802
184.0,54.7836156971831,41979.63519810414,0.9427885892299692,12.966873665729253
185.0,54.43810651737841,39320.059040721724,0.9407906361363356,12.712278432544288
186.0,54.07714160929134,36752.00718816145,0.9387004483666921,12.468662406951196
187.0,53.70014267790696,34277.527417454025,0.9365180550856729,12.234554142491461
188.0,53.30652835129951,31898.40401265502,0.9342432043793191,12.008773221693064
189.0,52.89571640642238,29616.1636304231,0.9318754118567063,11.790378552560325
190.0,52.46712735908606,27431.935072577762,0.9294140122499402,11.578609706088688
191.0,52.02018593351599,25346.572014375623,0.9268582090936178,11.372847268313775
192.0,51.554325851965274,23360.67591357303,0.9242070935535371,11.172603538849073
193.0,51.068992698889794,21474.21562179256,0.9214596830889442,10.977468812401115
194.0,50.563647208301674,19687.29288668557,0.9186149593474614,10.787121996334644
195.0,50.03777178543566,17998.923290457085,0.9156718610983634,10.601289833241664
196.0,49.49087251849039,16408.75679423766,0.9126293618225428,10.419758702116528
197.0,48.92248285894762,14914.86343004641,0.909486407207034,10.242338700045412
198.0,48.33218169207446,13516.13828229787,0.9062420463084933,10.068885686238342
199.0,47.719568915619206,12211.127795408085,0.9028953528399722,9.899266637292397
200.0,47.08430853394624,10997.030615921942,0.8994454671062446,9.73337247909342
201.0,46.42610971545736,9871.266537491048,0.8958916262504525,9.571107660642628
202.0,45.74474182655337,8830.948086048507,0.8922331739950782,9.412388506670611
203.0,45.040039078681836,7873.038431380872,0.8884695767928743,9.257140392121615
204.0,44.311908178227874,6994.166719627404,0.8846004294942784,9.105295497783137
205.0,43.560334401356556,6190.816858345517,0.8806254733838706,8.956791428408016
206.0,42.78538849581029,5459.3346793815,0.876544607382934,8.811569928996509
207.0,41.987233665064565,4795.882384918576,0.8723578958200767,8.66957583792357
208.0,41.16613200503975,4196.5593323423345,0.8680655827361423,8.530756410224457
209.0,40.322450768988766,3657.4140547833326,0.8636681006547817,8.39506070623811
210.0,39.456667963394665,3174.459213146651,0.8591660780630702,8.262439129961862
211.0,38.56937872077623,2743.704189595293,0.8545603491441478,8.132843099670948
212.0,37.66129960547914,2361.2201063484426,0.8498519622917659,8.006224815536909
213.0,36.73327272112357,2023.1412536152086,0.8450421852378284,7.882537058523471
214.0,35.786269608358886,1725.6987182548346,0.8401325123516148,7.761733068233759
215.0,34.821393325166596,1465.2481461276336,0.8351246694441533,7.643766456413924
216.0,33.839879643695376,1238.296093143798,0.8300206183070472,7.528591155873867
217.0,32.843097470502464,1041.5138912181549,0.8248225604488908,7.416161388495998
218.0,31.83254741503909,871.7503120032187,0.8195329390331736,7.306431652158077
219.0,30.809859119617194,726.0492513292893,0.8141544409323316,7.199356727824324
220.0,29.776787042160834,601.6560184273568,0.8086899971717124,7.094891691886208
221.0,28.735204656079013,496.0219574274396,0.8031427823570174,6.992991936805412
222.0,27.687371855434602,406.8046268594138,0.7975162130384156,6.89361319571067
223.0,26.714097643336412,331.870169947188,0.7918139454595278,6.7967115739998105
224.0,30.125823813654826,269.28419138798364,0.7860398713045186,6.702243576304562
225.0,105.64019114796557,217.30943701634916,0.7801981133343446,6.610166140612415
226.0,638.6410194005907,174.39647997837324,0.7742930194955348,6.520436669106902
227.0,2528.5036448831747,139.17324709561876,0.7683291559788572,6.433013058398672
228.0,6558.457870054615,110.43366578544239,0.762311299279784,6.347853728826407
229.0,12450.323167937811,87.14113868778314,0.7562444272917723,6.26491765245622
230.0,18951.499986095012,70.04587918033408,0.7501337093666791,6.184164379024656
231.0,25029.712046852783,97.05060079440992,0.7439844955067682,6.105554060306044
232.0,28406.778654847574,437.2041869292103,0.7378023046655222,6.02904747243289
233.0,25598.29380489429,1741.0787899817556,0.7315928122568908,5.954606036351103
234.0,20746.39756809558,4408.549663518483,0.725361836911596,5.882191836350137
235.0,14561.399428115941,7830.544901954247,0.7191153265682754,5.811767637092401
236.0,8221.165086667352,10818.967485975767,0.7128593438872746,5.7432969002238154
237.0,2373.0534655647434,12914.894825598354,0.7066000509364591,5.676743806005576
238.0,29.86834898741975,11522.641201641172,0.7003436922617364,5.612073300363762
239.0,10.500615005597059,8571.115260162354,0.6940965728781227,5.549251249881321
240.0,10.143742382762742,6325.513175547501,0.6878650167964071,5.4882450218328005
241.0,47.84583311580283,4639.174882854277,0.6816552503757907,5.429025679446363
242.0,629.9709659674685,3381.189120079872,0.6754730013152029,5.371576128488983
243.0,3247.055607331218,2448.960925646329,0.6693220525661179,5.315920550043251
244.0,8524.025058079797,1762.710284887648,0.6631990711936238,5.262227692201593
245.0,14786.826180178068,1260.9430309201628,0.6570756008126599,5.21116212814863
246.0,19933.041220194747,909.3179908760319,0.6508376056608759,5.16503531481164
247.0,23157.283221097838,908.3342781176268,0.6440936607526357,5.131376220286979
248.0,25486.774130269063,1956.4507178354988,0.6356342066615202,5.132829876904818
249.0,27234.798114858106,3912.4216334054713,0.6223320743051264,5.227395476092469
250.0,28627.551451458246,5244.143544472411,0.598799280939441,5.517950558461981
251.0,31020.371106275186,5150.538891884318,0.5618763000513586,6.08085098451652
