Time,J,A,S,tau
0.0,100.0,100.0,0.5220789827348604,8.19672131147541
1.0,94.42445412589518,92.62869581501882,0.5260736960460423,8.376569336104367
2.0,89.14720046081567,85.7888095933479,0.5300887056910552,8.55538053372724
3.0,84.15452126451635,79.4452407648019,0.5341205455444152,8.732963108561519
4.0,79.43124588034479,73.56227155652925,0.5381683894980049,8.909261758684082
5.0,74.96307257744202,68.1067546283728,0.5422313742234509,9.084221524439526
6.0,70.73656876978691,63.047925553975915,0.5463085978643881,9.25778780710817
7.0,66.7392241220376,58.35724697021697,0.5503991186786004,9.429906388408071
8.0,62.959563543829546,54.00823846976186,0.5545019537294745,9.600523449635624
9.0,59.38735497026593,49.97632323712263,0.5586160775263652,9.769585591559625
10.0,56.01395423751874,46.23872656951055,0.5623896572236304,9.92230527268899
11.0,52.83266540077956,42.774218740612476,0.5621433047810632,9.905123270507648
12.0,49.83932758597613,39.56313267720659,0.5618867593555663,9.887341136878693
13.0,47.03291119157698,36.58725232348342,0.5616199973479975,9.86897018317779
14.0,44.41597833177823,33.8296598850333,0.5613429942866045,9.850022112981602
15.0,41.995042067202334,31.27467123797848,0.5610557247709995,9.830509013154646
16.0,39.780629748936015,28.90778477401325,0.5607581624161687,9.810443343702362
17.0,37.7869420377929,26.715659567773383,0.560450279793997,9.789837927679667
18.0,36.03105819695785,24.686153850684864,0.5601320483700234,9.76870594061879
19.0,34.53159691645127,22.808413101373514,0.5598034384420135,9.747060899259614
20.0,33.30688389294185,21.07303618423373,0.5594644190746951,9.724916650368044
21.0,32.37268110028512,19.472313197695367,0.5591149580321852,9.702287359340733
22.0,31.739553598270575,18.000506084639294,0.5587550217111457,9.679187498396482
23.0,31.41001553111715,16.654122647474527,0.5583845750777511,9.655631834170135
24.0,31.37651975972264,15.432343984462129,0.5580035815310683,9.631635421185315
25.0,31.618186340710842,14.336830402056869,0.5576120029427014,9.607213578900774
26.0,32.09997530666958,13.37187745775134,0.5572097994951956,9.582381888844607
27.0,32.77258669112105,12.54402773462936,0.5567969296365689,9.55715617806326
28.0,33.57392444287553,11.86147886744896,0.5563733499980232,9.531552507537615
29.0,34.432214934608126,11.333205502252195,0.5559390153231373,9.50558715897133
30.0,35.27026865795914,10.96783579241092,0.5554938783888994,9.479276622550488
31.0,36.01029878275594,10.772336236690128,0.5550378899334318,9.452637583860753
32.0,36.57850519000883,10.750579193456113,0.5545709985840286,9.425686910978667
33.0,36.909161977241475,10.901901267259406,0.5540931507870593,9.39844164152345
34.0,36.948380821453746,11.219781318065657,0.5536042907418661,9.370918969631623
35.0,36.65803331316998,11.690894240042326,0.5531043603306093,9.343136233165605
36.0,36.01934650352236,12.294725691612454,0.5525932990640986,9.315110900449067
37.0,35.03576332906557,13.003996830313312,0.5520710440261031,9.286860557243996
38.0,33.733695890437815,13.785931817346649,0.5515375298201801,9.258402893819135
39.0,32.16030613859443,14.604200121125398,0.5509926885254409,9.229755691922866
40.0,30.378710358539905,15.421128692782768,0.5504364496602945,9.20093681173283
41.0,28.461852886249176,16.199734822352276,0.549868740152914,9.171964178868977
42.0,26.486420756619097,16.90537238158397,0.5492894843201865,9.142855771442585
43.0,24.52758366071487,17.50715791058066,0.5486986038559726,9.113629607135534
44.0,22.6546182680604,17.979548561554093,0.5480960178289256,9.084303730307294
45.0,20.927253928669675,18.30422749476207,0.5474816426936381,9.054896199106093
46.0,19.392799030224456,18.471942394092217,0.5468553923136589,9.025425072640196
47.0,18.084511918006093,18.483564552652307,0.5462171779978624,8.995908398185108
48.0,17.021587262766715,18.34974471087866,0.5455669085521964,8.966364198469831
49.0,16.21062856504999,18.08914145345851,0.5449044903361913,8.936810458773062
50.0,15.648179794222342,17.725700142639077,0.5442298273617489,8.907265114524389
51.0,15.323206067554361,17.285888659230952,0.5435428213799307,8.877746038267672
52.0,15.2190471567936,16.796373089476308,0.5428433720063249,8.848271027273805
53.0,15.31468208120695,16.282468550742404,0.5421313768601282,8.818857790826375
54.0,15.585325131143364,15.767249304226144,0.5414067317210132,8.789523937551747
55.0,16.002721672198682,15.271148588485682,0.5406693307136384,8.760286962819048
56.0,16.535440891193147,14.811830900376888,0.5399190665130379,8.73116423630118
57.0,17.14938834821283,14.404176047777476,0.5391558305719516,8.702172989093
58.0,17.80863565882788,14.060281714348246,0.538379513376956,8.673330301188672
59.0,18.476635266393146,13.789428831622713,0.5375900047296445,8.644653089067836
60.0,19.11773870002534,13.597980893250613,0.5367871940541209,8.61615809279462
61.0,19.698839956731977,13.489232952147267,0.5359709707334585,8.587861863278752
62.0,20.1910558708792,13.463266774367682,0.5351412244742738,8.55978074992051
63.0,20.571260142717747,13.516855710244183,0.5342978457000781,8.531930887851656
64.0,20.823333279628766,13.643485919652178,0.533440725980897,8.50432818441809
65.0,20.93899379084731,13.833594674329117,0.5325697584891914,8.476988307245746
66.0,20.917999616618133,14.07498573535957,0.5316848384764696,8.449926671537082
67.0,20.767962392984746,14.353461419503724,0.5307858638106749,8.423158425800317
68.0,20.503477765577898,14.653621923413276,0.5298727355185813,8.396698440042236
69.0,20.144816642341567,14.959730629777045,0.528945358363197,8.370561293065093
70.0,19.716332688925263,15.256598054146083,0.5280036414667874,8.344761258241975
71.0,19.24463824276882,15.530400371678937,0.5270474989548087,8.319312291557882
72.0,18.756820035726058,15.769404294988766,0.5260768506471466,8.294228017248747
73.0,18.27875384545931,15.964518707913546,0.5250916227488713,8.269521716082874
74.0,17.833707753440937,16.109699679984598,0.5240917486183618,8.245206310449547
75.0,17.441237495576665,16.20210252922858,0.5230771695049097,8.221294353017656
76.0,17.116481913080573,16.242051272695328,0.5220478353826686,8.197798011565153
77.0,16.869784503600517,16.23274066335874,0.5210037057511409,8.17472905724406
78.0,16.706697148297607,16.17978770275418,0.5199447504904504,8.15209885085643
79.0,16.628184814655025,16.090643662197802,0.5188709507788963,8.129918328573346
80.0,16.631135833618128,15.97396337796667,0.5177822999457107,8.10819799003804
81.0,16.70891735520308,15.838979494300165,0.5166788044183497,8.086947884458406
82.0,16.852045120089432,15.694935906986206,0.5155604846332974,8.0661775984174
83.0,17.04889521913562,15.550603410019132,0.5144273760055754,8.045896242114022
84.0,17.286440910685496,15.413886356367332,0.5132795298687243,8.026112437565594
85.0,17.550988346806715,15.291519005362025,0.5121170144676194,8.006834305074245
86.0,17.82891938346683,15.188851486160518,0.510939915984537,7.988069449683264
87.0,18.10736869325964,15.10972566566683,0.509748339462129,7.969824950538862
88.0,18.374817044361,15.056425856986806,0.5085424097702018,7.952107349132864
89.0,18.62157186373983,15.02969934707465,0.5073222725819534,7.934922637360345
90.0,18.840142338111125,15.02884963364085,0.5060880954050176,7.918276244497547
91.0,19.025460334828537,15.051903313222473,0.5048400684985797,7.90217302720232
92.0,19.17491659359638,15.095821715907714,0.5035784058457325,7.886617257829664
93.0,19.288271798482292,15.156766983040544,0.5023033459147448,7.871612617924584
94.0,19.36740604316045,15.2303725656973,0.5010151526905603,7.857162184695424
95.0,19.415981374420344,15.312039757332695,0.49971411655008346,7.843268421416007
96.0,19.439025289536016,15.397218227200531,0.4984005549977531,7.8299331706070605
97.0,19.442481820133942,15.481659651948839,0.49707481344010823,7.817157646024117
98.0,19.432754440867352,15.561624447624737,0.49573726590971084,7.804942425331763
99.0,19.416272692375323,15.634038650814606,0.4943883157381663,7.793287443485188
100.0,19.39910949427625,15.696593874117886,0.49302839617357186,7.782191986866092
101.0,19.38666494876098,15.747789795176926,0.4916579709551296,7.771654687870277
102.0,19.383426609045042,15.786925043281112,0.4902775348973112,7.7616735188097445
103.0,19.392846977253836,15.814039920475539,0.4888876141215614,7.752245792525822
104.0,19.41725358180528,15.829819899819897,0.48748876659294715,7.743368156202468
105.0,19.457881107175975,15.835476425601106,0.4860815825892006,7.735036585870229
106.0,19.51490007472719,15.832580953223506,0.4846666833897304,7.727246417252095
107.0,19.58757186324562,15.82296797324964,0.4832447246378568,7.719992279158787
108.0,19.67447175580095,15.808569139988254,0.48181639283393035,7.713268167622002
109.0,19.773570184484143,15.791293458017657,0.48038240621522155,7.707067429645741
110.0,19.882482150163742,15.772918066144578,0.47894351704759874,7.701382716915149
111.0,19.99863660680458,15.755008820859185,0.47750050795266186,7.696206060650834
112.0,20.119436311632032,15.738868228464153,0.47605419246346303,7.691528860128412
113.0,20.24244465988695,15.725475397764763,0.4746054169610799,7.687341841142311
114.0,20.365434837022033,15.71549617553992,0.47315505682651854,7.683635132487197
115.0,20.486526900797077,15.709295472250108,0.47170401664465433,7.680398259735526
116.0,20.604248820586346,15.706936456301914,0.4702532315407561,7.677620113082014
117.0,20.717491258551888,15.708236420575716,0.46880366366323245,7.675289015499677
118.0,20.82557827421784,15.71282970108896,0.4673563008188298,7.673392748550068
119.0,20.928212776047232,15.720173551410143,0.4659121612067309,7.671918441179409
120.0,21.02543872357225,15.729670206163506,0.4644722823459474,7.670852805540016
121.0,21.11750894261133,15.740643593948764,0.4630377297601123,7.670181933851292
122.0,21.204924290954885,15.752437695422307,0.46160958778036565,7.66989149930578
123.0,21.288293924682932,15.764430315735229,0.46018896362594797,7.669966646187923
124.0,21.36829579535975,15.776063874520428,0.4587769824050483,7.670392101414105
125.0,21.445658239590195,15.786883775304316,0.4573747870464103,7.671152154343769
126.0,21.521009492646158,15.796519713373357,0.4559835366473764,7.672230690950317
127.0,21.59500384988012,15.804729486110245,0.4546044032995759,7.673611248271664
128.0,21.668087975934284,15.811351703726343,0.45323857251085414,7.675276993207033
129.0,21.740750477095006,15.816347562931236,0.4518872382134604,7.677210832269356
130.0,21.813142329865936,15.819736530599116,0.45055160548283724,7.679395294092705
131.0,21.885530448641045,15.821614756898816,0.44923288215325624,7.681812824306476
132.0,21.957968771831545,15.822158544834412,0.4479322824696323,7.6844454950418335
133.0,22.030249507761525,15.821507612888684,0.4466510219353363,7.687275248244369
134.0,22.10230853602657,15.819869452088032,0.4453903171820403,7.690283977760877
135.0,22.174060461393537,15.817495207201159,0.44415137982691666,7.6934533856385645
136.0,22.245169523717617,15.814552329562671,0.44293541641431355,7.696765130257346
137.0,22.315380672458403,15.811241538616738,0.4417436336571868,7.7002008498410435
138.0,22.384529533081626,15.8077669217411,0.4405772218542476,7.70374221320406
139.0,22.452300936203788,15.804242662694293,0.43943735735648765,7.70737096953711
140.0,22.518422516901236,15.800798288845105,0.4383252162667743,7.711068862775764
141.0,22.582748112331295,15.797559400437683,0.4372419492851237,7.714817861220466
142.0,22.64505095307808,15.79456992103725,0.43618868147305484,7.718600192492735
143.0,22.70512903362946,15.79188110583026,0.43516653724698817,7.72239808921294
144.0,22.76291089976141,15.78955436486698,0.43417660968649935,7.7261941584048275
145.0,22.818262808005144,15.787583112390877,0.43321995222615234,7.729971495837839
146.0,22.871066633633138,15.785965414598735,0.4322976179260506,7.733713200634651
147.0,22.92134498886322,15.78473909356456,0.43141062840526684,7.737402808838303
148.0,22.969024027410317,15.783877271546707,0.43055993989672453,7.741024758453518
149.0,23.01400836329605,15.783342620894695,0.4297465033124141,7.744563560649106
150.0,23.056349634344226,15.783159093676499,0.42897126898558924,7.748003748215634
151.0,23.096109715258304,15.783353876375724,0.4282350945593417,7.7513312500389056
152.0,23.133195485576636,15.783889014253402,0.42753878990989136,7.754532700393604
153.0,23.167513792464344,15.784726539021229,0.42688316490854783,7.7575947336254805
154.0,23.199139820130092,15.78590431876629,0.42626902370186726,7.760504103145793
155.0,23.228186156572693,15.78748851259498,0.4256970586840745,7.763249355955171
156.0,23.254549400643477,15.789454777248185,0.4251679039135397,7.765819936854648
157.0,23.27812543968741,15.791778460166377,0.42468219336432944,7.76820529187747
158.0,23.29896093654621,15.794505692156292,0.42424055554260537,7.770394996122064
159.0,23.317170761897945,15.797720709530337,0.42384349800506865,7.772380653119913
160.0,23.33264269664405,15.801405221327297,0.42349145704587016,7.774154993924259
161.0,23.345262341752452,15.805539932593005,0.4231848686604073,7.775710754004607
162.0,23.355044001370068,15.810167806589678,0.4229241639793451,7.77704079608346
163.0,23.362099617078847,15.815374909443674,0.42270964874547023,7.778140145908741
164.0,23.366319718928207,15.821137098688286,0.4225415455531646,7.779005164326165
165.0,23.367590637896818,15.827428172280682,0.4224200763200148,7.779632222217138
166.0,23.36590942898218,15.834275551109908,0.4223454588682674,7.780017807171993
167.0,23.361394046480434,15.841755932590889,0.4223177858739196,7.780160597130873
168.0,23.353944840748667,15.84983285897837,0.4223370569470537,7.780060769205516
169.0,23.343455361293213,15.858466465477104,0.4224032704732133,7.779718518572623
170.0,23.329918662749954,15.867663463369198,0.42251642153886326,7.7791341411206805
171.0,23.313471848025525,15.877488051501953,0.4226763847247186,7.778310044577288
172.0,23.294027017865208,15.887889876225787,0.4228829345397955,7.7772502357099915
173.0,23.27148584222829,15.898813507257298,0.4231358435772308,7.7759587491515
174.0,23.245843739396133,15.910244724880542,0.4234348818589617,7.7744397019031535
175.0,23.217269092632154,15.922237004039868,0.42377970748665594,7.772699148495825
176.0,23.185685249674503,15.934727547660906,0.42416987529142197,7.7707447606203885
177.0,23.15099978272293,15.947646381337007,0.4246049374187806,7.768584248057286
178.0,23.113211387954305,15.960960359057184,0.42508444404794354,7.766225384879363
179.0,23.072529834284335,15.974715255713404,0.425607845357284,7.763677630352327
180.0,23.028889912431556,15.988838497477758,0.42617448962560045,7.760951985378176
181.0,22.982202819442648,16.003247711687308,0.42678372170544715,7.758059497554633
182.0,22.93246913014027,16.017893397572433,0.42743488494385184,7.755011262854689
183.0,22.8799477920654,16.032816427789168,0.4281272371808802,7.751819755732224
184.0,22.824587223209384,16.04793769591037,0.42885994082671985,7.74849881891704
185.0,22.7663012631679,16.063165115871847,0.4296321543005444,7.745062346226886
186.0,22.705090563351515,16.078435631660557,0.43044303483673646,7.741524267167627
187.0,22.641268063695765,16.09378761064168,0.43129167033830346,7.737899555539115
188.0,22.574799714892308,16.109139301224744,0.43217706503358994,7.734204286954455
189.0,22.505602220099533,16.124392258038696,0.4330982189469366,7.730454585417336
190.0,22.433674599246466,16.13947320137251,0.4340541311199017,7.726666601444635
191.0,22.359384233944766,16.154420202876093,0.4350437481295849,7.722857195295633
192.0,22.282719205215166,16.16915349878392,0.4360659496702489,7.719043983241002
193.0,22.203599824677305,16.183572483851524,0.4371196115571758,7.715244617375341
194.0,22.12202175491482,16.197597796655923,0.4382036087376855,7.71147677028596
195.0,22.03840141286958,16.211269262668797,0.43931678022851756,7.707758513721228
196.0,21.952753112432962,16.224514254960813,0.44045791925396627,7.704108271962096
197.0,21.86500143219433,16.237234917632247,0.4416258161928052,7.700544480418334
198.0,21.775136894377738,16.24935070260893,0.4428192606189681,7.697085591354924
199.0,21.68361293499664,16.260904839772536,0.444037021407227,7.693750188677097
200.0,21.590472690240457,16.271836903852666,0.4452778458124335,7.69055677498402
201.0,21.495645334142168,16.282056917699776,0.446540480110008,7.687523825843957
202.0,21.399114704608873,16.291488376970424,0.4478236698156822,7.684669831494597
203.0,21.301353218459084,16.30017883610399,0.44912615286083596,7.682013201611594
204.0,21.20243320804587,16.308084262600932,0.4504466712051679,7.679571830307185
205.0,21.102288571259148,16.315127220179562,0.4517839685761091,7.677363532932406
206.0,21.000895699761035,16.32124017805634,0.4531367879955183,7.675406137912689
207.0,20.898723977594404,16.326474983732883,0.45450387533063025,7.673717241140512
208.0,20.795872758742917,16.330806597436457,0.455884005766999,7.6723135174911405
209.0,20.692280935083648,16.334173659153862,0.4572759598365175,7.671211499054197
210.0,20.587918000616646,16.3365215925069,0.45867851744493415,7.670427729364492
211.0,20.483227410281835,16.337905563177742,0.4600904688238015,7.6699784257990125
212.0,20.37833084730301,16.338320113932266,0.461510656607213,7.669878533438105
213.0,20.27317294183761,16.337721936192693,0.46293793302863473,7.670142780880547
214.0,20.167721263134545,16.336072575335322,0.46437114934786355,7.670785915699971
215.0,20.06243000410746,16.33344108456717,0.46580916435090974,7.6718224704511675
216.0,19.957437683556897,16.329841030290183,0.4672509204713246,7.6732651771931915
217.0,19.852668234182083,16.32524222484123,0.46869537951609935,7.675126365539664
218.0,19.748045588682228,16.31961448055719,0.4701415032922253,7.677418365104207
219.0,19.64363597327477,16.31295760184805,0.47158825208400323,7.680153526718029
220.0,19.53994609399161,16.30537109276303,0.47303464245864774,7.6833430279773065
221.0,19.43697601484583,16.29685638128374,0.4744797739020896,7.686996396868602
222.0,19.33466516237248,16.287402531771036,0.4759227502613231,7.691123076937737
223.0,19.232952963106637,16.276998608585785,0.47736267538334226,7.6957325117305375
224.0,19.132069018831665,16.265693047984783,0.4787986592270005,7.700834013901525
225.0,19.032300499794996,16.253556472523556,0.48022991327117126,7.706434910721298
226.0,18.933603348983805,16.240597556170748,0.48165569813933884,7.712541582593605
227.0,18.835933041489163,16.22682488122597,0.4830752744843189,7.719160409367776
228.0,18.73926909507657,16.21225147627387,0.4844879014726667,7.726297799286084
229.0,18.643911633368287,16.19695263268337,0.4858928668681809,7.733959605234268
230.0,18.549939931194057,16.180969294641613,0.487289577890946,7.742149378283691
231.0,18.45732404277228,16.164323002830656,0.4886774614632099,7.750870290703657
232.0,18.366034022321358,16.147035297932565,0.49005594450722045,7.760125514763466
233.0,18.276058075373903,16.1291310058707,0.4914244518652772,7.769918263970203
234.0,18.187606552852667,16.110676828842266,0.49278243522729515,7.780251234963728
235.0,18.100742953656454,16.091716424020458,0.4941294738096978,7.791124628641294
236.0,18.01546133787812,16.072281294099955,0.49546516773467425,7.802538235233439
237.0,17.93175576561051,16.05240294177544,0.49678911712441354,7.814491844970706
238.0,17.84962029694649,16.032112869741585,0.49810092210110485,7.826985248083636
239.0,17.76907705171117,16.01144769766817,0.4994001843696099,7.840018208439807
240.0,17.69020297936645,15.990455426453824,0.5006865912033892,7.853588754901528
241.0,17.61303041789169,15.969177162810299,0.5019599014045608,7.8676934468483415
242.0,17.53758952633091,15.947653639385193,0.5032198750415677,7.882328817350255
243.0,17.463910463728123,15.925925588826107,0.5044662721828528,7.897491399477278
244.0,17.392020469632854,15.904033154533831,0.5056988529456384,7.913177725249272
245.0,17.321861927754576,15.88199947236502,0.5069174079338306,7.9293836585818624
246.0,17.253437134191845,15.859860091499637,0.5081218051460943,7.946103365450439
247.0,17.186794181943785,15.837659856212877,0.5093119244688455,7.963330750781
248.0,17.12198116400951,15.815443610779935,0.5104876457884999,7.981059719499549
249.0,17.059004494190667,15.793248042495192,0.5116488491204667,7.999284170763719
