Time,J,A,S,tau
0.0,100.0,100.0,0.5607583025281428,37.03703703703704
1.0,101.85817101744482,98.60492925303353,0.5587715605670124,38.00610270154821
2.0,103.85183014465291,97.23779105685323,0.556797435648967,38.978681215012415
3.0,105.97333049114984,95.89822453068798,0.5548398294674183,39.953423488403885
4.0,108.21773502236756,94.58528164930809,0.552899310007086,40.93010384784345
5.0,110.57955482667059,93.29805689126958,0.5509762352575003,41.90852363183918
6.0,113.05295246125985,92.03567293596365,0.5490708205469378,42.88850305941524
7.0,115.63176987298678,90.7972895391971,0.5471831311948749,43.86988263155751
8.0,118.30965016495735,89.58209586167986,0.545313113584233,44.85251955749027
9.0,121.08011266947504,88.38931129281238,0.5434606149676903,45.83628529128725
10.0,123.93663330876767,87.21818596274987,0.541625384991438,46.82106597958881
11.0,125.13095737356448,51.91273829809602,0.5398071064306557,47.806758166625436
12.0,124.68703691962925,19.097342476847903,0.5380053944151083,48.79326938633168
13.0,124.2484627158864,7.025415745001455,0.536219810250924,49.78051636838182
14.0,123.81495997968638,2.5844679285976566,0.5344498700376148,50.76842398954596
15.0,123.38626149807159,0.9507584001783947,0.5326950522395978,51.756924327952014
16.0,122.9621072297607,0.34975938860575206,0.530954804280034,52.74595581730762
17.0,122.54224392266468,0.12866742045276067,0.5292285482499484,53.73546249393836
18.0,122.12642474614239,0.047333439191883216,0.5275156858439427,54.7253933256906
19.0,121.71440893723387,0.01741279048984355,0.5258156026219601,55.71570161280101
20.0,121.30596146017375,0.006405756192780131,0.5241276716855844,56.70634445183993
21.0,120.90085267850763,0.00235655411004246,0.522451256847576,57.697282254722474
22.0,120.4988580391739,0.0008669568061328221,0.520785715364482,58.68847831560053
23.0,120.09975776796163,0.0003189713647261747,0.5191304002942901,59.679898419183495
24.0,119.70333657576947,0.00011738082676196838,0.5174846625342032,60.67151048466827
25.0,119.30938337513653,4.3220022817204116e-05,0.5158478525875391,61.663284240029924
26.0,118.9176910065458,1.5937434960215076e-05,0.5142193221035155,62.65519092190991
27.0,118.5280559740194,5.900244693329446e-06,0.5125984252291743,63.647202996748426
28.0,118.14027818956995,2.207336139267646e-06,0.5109845198088631,64.63929389916129
29.0,117.75416072608373,8.484536759349173e-07,0.5093769684634815,65.63143778383925
30.0,117.36950957825319,3.483198665332388e-07,0.5077751395790787,66.62360928747539
31.0,116.9861334311586,1.6420997874166595e-07,0.5061784082321444,67.61578329739118
32.0,116.60384343621777,9.647344744419182e-08,0.5045861570775328,68.60793472365728
33.0,116.22245299411281,7.167375292447369e-08,0.5029977772233365,69.60003827156856
34.0,115.84177754309842,6.274777402076624e-08,0.5014126691066151,70.59206821220839
35.0,115.46163435713866,5.976368258151808e-08,0.4998302434173293,71.58399814660056
36.0,115.08184234317719,5.916613885599916e-08,0.4982499220119902,72.57580076771096
37.0,114.70222188668542,5.958567578521631e-08,0.4966711394512103,73.5674475474355
38.0,114.32259457746648,6.050120762204251e-08,0.4950933430736744,74.55890858617036
39.0,113.94278312062112,6.172932921417366e-08,0.49351599524678613,75.55015221905133
40.0,113.56261115654962,6.314198459730171e-08,0.4919385757130901,76.54114455313979
41.0,113.18190298133032,6.488587909982204e-08,0.49036057985343834,77.53184959764279
42.0,112.8004835463559,6.682410566235443e-08,0.4887815258659,78.52222812916519
43.0,112.41817814562913,6.907692124806417e-08,0.48720095006764724,79.51223827076844
44.0,112.03481238567404,7.157670285483597e-08,0.4856184180774495,80.50183370663153
45.0,111.65021195488981,7.44374191313167e-08,0.4840335166820728,81.4909648435671
46.0,111.26420250523248,7.761154256782345e-08,0.4824458704995346,82.47957611021111
47.0,110.87660955687875,8.118351356137364e-08,0.48085512929618757,83.46760790599885
48.0,110.48725824171667,8.516417974862303e-08,0.47926099169761754,84.45499270758643
49.0,110.09597331593281,8.973699340482557e-08,0.4776631900453125,85.44165746834113
50.0,109.70257899958848,1.2128519780604843e-07,0.4760615090148499,86.42752054627951
51.0,109.3068988422115,2.2198836444751208e-07,0.4744557869422517,87.41249142042511
52.0,108.90875559166648,3.277296503234792e-07,0.4728459222103356,88.3964696080783
53.0,108.50797102956709,4.39141800239315e-07,0.471231886659215,89.37934240508376
54.0,108.10436603980293,5.569213667822881e-07,0.46961372503431376,90.36098496066322
55.0,107.69776034549467,6.818444727072917e-07,0.467991571224111,91.34125754930302
56.0,107.28797247953554,8.147780742373899e-07,0.46636566294497445,92.32000310265803
57.0,106.8748198371035,9.566756289264651e-07,0.46473633587334356,93.29704817094624
58.0,106.45811826427956,1.1086162248538218e-06,0.46310406802814646,94.27219548284508
59.0,106.03768239089419,1.2717877500454472e-06,0.46146946262708394,95.24522677483016
60.0,105.61332532386474,1.447516998766074e-06,0.4598332812800086,96.2158972058301
61.0,105.18485859169594,1.637288358559314e-06,0.4581964665069568,97.1839315156306
62.0,104.75209221805285,1.8427495757886274e-06,0.45656014964275615,98.14902261310355
63.0,104.3148346521943,2.0657282934042223e-06,0.4549256698219484,99.1108283018874
64.0,103.87289260804296,2.3082666248071695e-06,0.45329461444827746,100.06896430702466
65.0,103.4260712566348,2.5726186705376244e-06,0.4516688194401711,101.02300403664441
66.0,102.97417409301623,2.861280338724381e-06,0.4500504037351133,101.9724725168231
67.0,102.51700297400735,3.177003264849544e-06,0.44844178745930163,102.91684299995661
68.0,102.0543581208367,3.5228125738687574e-06,0.4468457145106919,103.8555327291005
69.0,101.58603814820196,3.90202156755444e-06,0.4452652724925858,104.78789902056519
70.0,101.11184012397983,4.3182388117665435e-06,0.4437039042491943,105.71323666579622
71.0,100.63155961805691,4.775372520749832e-06,0.44216541648214885,106.6307756854645
72.0,100.1449907756141,5.277625984684857e-06,0.44065397843488313,107.53968066739606
73.0,99.65192639995281,5.829488715730133e-06,0.4391741177494055,108.43905029788502
74.0,99.15215805009608,6.435711188511797e-06,0.4377306961213726,109.32792028667903
75.0,98.64547616335312,7.101268347925606e-06,0.43632887384549923,110.20526797527297
76.0,98.13167019212283,7.83130798624344e-06,0.4349740572185892,111.07001973629984
77.0,97.61052875913687,8.631082939860013e-06,0.4336718277482964,111.9210613649927
78.0,97.08183983230133,9.505866591372663e-06,0.4324278524009175,112.75725163644132
79.0,96.54539092178989,1.0460852373712763e-05,0.4312477754599892,113.57743899794959
80.0,96.00096929659041,1.1501039397136031e-05,0.43013709395617944,114.38048111966978
81.0,95.4483622239237,1.2631107646349206e-05,0.42910102030591907,115.16526675995186
82.0,94.88735723783014,1.3855289555379723e-05,0.42814433960204734,115.93073881439138
83.0,94.31774241232739,1.5177236738396667e-05,0.42727125927884346,116.67591869735574
84.0,93.73930669392712,1.6599898999860054e-05,0.4264852711753928,117.39992918138555
85.0,93.15184024919753,1.8125434575526498e-05,0.42578904630268405,118.10201232743758
86.0,92.5551346907326,1.9755134602467477e-05,0.4251843395117725,118.78154554146289
87.0,91.94898384535965,2.1489258225383605e-05,0.4246718022654151,119.43807169453393
88.0,91.33318347428099,2.332727538253416e-05,0.42425123278344257,120.07126242872782
89.0,90.70753259891325,2.526754565013034e-05,0.4239212119011739,120.68097411025693
90.0,90.07183333469933,2.7307688621831163e-05,0.42367950717799185,121.2671870217585
91.0,89.42589153800395,2.944441542316991e-05,0.42352285124353983,121.83003832396707
92.0,88.76951767189126,3.167378937545804e-05,0.42344724384806387,122.36977614694518
93.0,88.10252682920267,3.399128524001358e-05,0.42344798953393675,122.8867526041875
94.0,87.42473984778361,3.639190037984817e-05,0.42351980801248845,123.3814055551888
95.0,86.73598380113451,3.8870323686557117e-05,0.4236570207739615,123.85422912899419
96.0,86.03609221077619,4.14210409989067e-05,0.42385365656786445,124.30575642495828
97.0,85.32490644866587,4.403844781263723e-05,0.42410356393170034,124.73654030126401
98.0,84.60227624102878,4.6716957015186754e-05,0.42440053663216565,125.14713359866457
99.0,83.86805984198507,4.945106966539447e-05,0.42473838685525145,125.53807714788117
100.0,83.12212570367738,5.2235461884193426e-05,0.42511103303416875,125.90988443916552
101.0,82.36435304284595,5.5065021110265454e-05,0.42551255084898715,126.2630339128546
102.0,81.59463193239777,5.7934873135632885e-05,0.42593720276370056,126.5979642338685
103.0,80.81286518864461,6.084043023211815e-05,0.42637948706987894,126.91506533124308
104.0,80.01896936642275,6.377738598523274e-05,0.4268341429921227,127.21467791302868
105.0,79.21287365686825,6.674169625580014e-05,0.42729613428827223,127.49709695750887
106.0,78.39452403216195,6.972962329872361e-05,0.4277606926622491,127.7625626819279
107.0,77.56388151332436,7.273765964427768e-05,0.4282232552968691,128.011272917813
108.0,76.72092399086416,7.576257121268175e-05,0.4286794959382801,128.243376273047
109.0,75.86564848812716,7.880132963361369e-05,0.4291252778546167,128.4589809709183
110.0,74.99806885806161,8.185112515087687e-05,0.42955665117330766,128.65815497918723
111.0,74.11822152195927,8.490931627590332e-05,0.4299698252077271,128.8409306602985
112.0,73.22616130146834,8.797344173092843e-05,0.4303611597589847,129.00730609180107
113.0,72.32196611018527,9.104114644004893e-05,0.4307271226403301,129.15725354585996
114.0,71.4057382369898,9.411023706256445e-05,0.43106431359086794,129.29071252518594
115.0,70.4775980219343,9.71785647552114e-05,0.4313693864823785,129.40760853037992
116.0,69.53770002445319,0.00010024410531517766,0.4316391019175326,129.50783716826663
117.0,68.58621139399644,0.00010330485887000228,0.4318702490680431,129.59128585863215
118.0,67.62334093448388,0.0001063588866846102,0.4320596837975898,129.65781978501556
119.0,66.64931140600723,0.00010940428452845532,0.43220428392650667,129.707295776125
120.0,65.66437800574329,0.00011243913740038505,0.43230095110341715,129.73956129167544
121.0,64.66883126084171,0.00011546155325510973,0.4323466047505711,129.75445261391621
122.0,63.66297383228019,0.00011846962654153398,0.43233816928814206,129.75180378816756
123.0,62.64715941854066,0.00012146140976970007,0.43227256998837826,129.7314425227625
124.0,61.62175765511822,0.00012443495542154205,0.43214672584516156,129.6931949501311
125.0,60.58716518348804,0.00012738826127940402,0.43195755672235503,129.63688642956808
126.0,59.543828478792484,0.00013031925867041242,0.43170196074515865,129.5623443337342
127.0,58.49220194280404,0.00013322586864091446,0.43137683138033694,129.46939665650856
128.0,57.43278334863747,0.00013610591059375884,0.4309790542968472,129.3578758428734
129.0,56.36610636004049,0.00013895714305417546,0.4305054920489162,129.2276217850685
130.0,44.3823489722777,12.807753778584388,0.5298081419392884,67.08968280538345
131.0,45.86570329022097,12.415820523573451,0.5548668401390152,54.16206036314171
132.0,47.348389040046314,12.031179837776731,0.5621521697417979,49.31639025288855
133.0,48.8316479578045,11.653864805901067,0.5646718599686426,46.32456166613069
134.0,50.31655858875449,11.283904612316192,0.5649742077253185,44.138698578895905
135.0,51.80401369307411,10.921323703732648,0.5640163819412869,42.395220563487726
136.0,53.29469581799569,10.566141556699717,0.5622641640879453,40.9273530221631
137.0,54.789051423650214,10.218372509102808,0.5599791264728186,39.64595710517839
138.0,56.287265261950296,9.878025678313334,0.5573220546920089,38.49855936520095
139.0,57.78923184882358,9.545104761417875,0.5543979051368657,37.45218092181652
140.0,59.29453191806993,9.219608109475624,0.5512781528747164,36.48508140504773
141.0,60.80240441521763,8.90152849835346,0.5480129256243378,35.582400707434175
142.0,62.3117223201051,8.590853129297125,0.5446380872031779,34.73369249202439
143.0,63.82097163901494,8.287563612217024,0.5411797009708972,33.931418275300345
144.0,65.32823396729633,7.991635998416004,0.5376568955448623,33.17001201369053
145.0,66.83117117672852,7.70304090411725,0.5340837696664217,32.44527881748405
146.0,68.32700768473585,7.421743270944326,0.5304707280617916,31.753986835386783
147.0,69.8125261893243,7.1477018286908045,0.5268254740354645,31.093578055456756
148.0,71.28410155525377,6.880870996228234,0.5231536892499117,30.46198812405551
149.0,72.73764464380541,6.621199904937708,0.5194593977937058,29.85753786581657
150.0,74.16867247209292,6.368630315189511,0.5157455424571912,29.278784722183808
151.0,75.5723238228032,6.123102326012565,0.5120141246095379,28.724506380293814
152.0,76.94333893843094,5.88454734576697,0.5082664244212071,28.193627347583224
153.0,78.2761826718341,5.6528933734239954,0.5045032374729259,27.68518307088056
154.0,79.56501097128672,5.428064889238398,0.5007249211902018,27.198311525395283
155.0,80.80377752546933,5.209978391216562,0.49693153088591246,26.732214376663354
156.0,81.29658803506922,5.659087759982782,0.4931229266531033,26.286158355146917
157.0,80.41672315941042,7.053421613391616,0.4892987697406867,25.859453486798003
158.0,79.00389337765398,8.403376171184105,0.4854586318242346,25.451452398847902
159.0,77.0699297687508,9.712099764150405,0.48160202881111247,25.061542315821086
160.0,74.67725237760372,10.982178999470285,0.47772845801383523,24.689139733820028
161.0,71.90565804758128,12.215650194893612,0.47383743221490143,24.33368691610741
162.0,68.83556207927869,13.414017275664577,0.46992851340553266,23.99464891300295
163.0,65.54069616241148,14.57827559024486,0.4660013384756713,23.671510860319177
164.0,62.0853607382932,15.708930741947514,0.4620556464433639,23.36377609161299
165.0,58.52417359740656,16.806030336998464,0.45809130066167825,23.07096420529416
166.0,54.902762233286865,17.869194996975267,0.4541083096861224,22.792609579206843
167.0,51.25891322245293,18.89765524218885,0.45010684779389354,22.528260059564243
168.0,47.62381104434793,19.890296180383736,0.4460872710160571,22.277475700128566
169.0,44.02313391170675,20.845704091664885,0.4420501334294063,22.039827756459573
170.0,40.478046039157825,21.762217884789468,0.4379962016481144,21.81489772920419
171.0,37.006023714265154,22.637985543328213,0.43392646568601556,21.602276464812956
172.0,33.6215087432647,23.471023276304294,0.42984214836929163,21.40156338003214
173.0,30.336431954088173,24.259271986394243,0.42574471527862506,21.212365791099227
174.0,27.16063252113528,25.000659183931948,0.4216358791606599,21.034298241983215
175.0,24.102177109692192,25.693157202017723,0.4175176041780191,20.866981936692255
176.0,21.167614714069657,26.334835123930738,0.41339210889551375,20.71004421842006
177.0,18.41941772448574,26.866938301641515,0.4092618652086747,20.56311808438215
178.0,16.047769869963123,27.104684820580697,0.4051295920471516,20.425841791278632
179.0,14.069401548287283,27.036979903962145,0.400998256625716,20.297858489511672
180.0,12.445403279108682,26.70701830130869,0.39687106557277124,20.178815898304094
181.0,11.123617747114249,26.170400758514017,0.3927514562953632,20.068366037522818
182.0,10.05427214332789,25.48007407451826,0.38864308697646194,19.96616499511929
183.0,9.1955946537743,24.681143594809292,0.3845498244291448,19.87187274027412
184.0,8.51501671253311,23.809948409417427,0.3804757305235929,19.78515297723999
185.0,7.988560755055779,22.89482594439843,0.37642504721285874,19.70567303637199
186.0,7.599592764443771,21.957406742357897,0.37240218022864824,19.633103801930712
187.0,7.337449413279728,21.013941712713084,0.36841168162760235,19.567119675544188
188.0,7.196154599468571,20.076465618049543,0.36445823205458344,19.507398577427843
189.0,7.1732376610594795,19.153775288308676,0.36054662112974123,19.453621971072497
190.0,7.268736390820149,18.252183279771852,0.3566817290110015,19.40547493933875
191.0,7.484289002507202,17.37612595232704,0.3528685062241917,19.362646271720315
192.0,7.822364676221638,16.52862202979147,0.3491119541700874,19.324828583132952
193.0,8.28557222860271,15.711619868595601,0.34541710524408303,19.291718480902432
194.0,8.876089106328697,14.926264475218684,0.3417890037314205,19.26301674203748
195.0,9.595181177522885,14.173098232225302,0.3382326869570432,19.23842852240215
196.0,10.442709459677669,13.45220751743203,0.3347531664283635,19.217663567914478
197.0,11.416315937870658,12.764266728804529,0.3313554124620422,19.20043660594621
198.0,12.510608107948798,12.11027110900803,0.32804433470616656,19.18646739744258
199.0,13.718137178245222,11.490886316040914,0.3248247674235992,19.17548126182145
200.0,15.029304258675296,10.906501616057831,0.321701455203413,19.167209302708766
201.0,16.432357810719715,10.35742319146983,0.31867903849630874,19.161388820110457
202.0,17.913492049105773,9.844011381497063,0.31576204118442575,19.1577636688503
203.0,19.457057451869115,9.36676381306652,0.31295485901327386,19.1560846542758
204.0,21.045878482567236,8.926359104465583,0.31026174898176123,19.15610995333605
205.0,22.66166923047076,8.523671176472988,0.3076868192699725,19.157605578137424
206.0,24.28554509729665,8.15975932769158,0.30523402064775834,19.160345826350557
207.0,25.89854103964397,7.8358355354968,0.30290713897084487,19.164113735702546
208.0,27.482142812836656,7.5532161541717375,0.30070978818415234,19.168701566043573
209.0,29.018779700403794,7.3132598917545675,0.298645403633891,19.173911314788175
210.0,30.492260795927326,7.117298481200798,0.2967172359694794,19.179555232985592
211.0,31.888034747175823,6.966559244891741,0.29492834660325645,19.185456293751976
212.0,33.193327114717334,6.862089057012843,0.29328160209197046,19.191448731746476
213.0,34.397064335415614,6.8046786115562155,0.2917796702521303,19.197378514043226
214.0,35.48971456208216,6.7947977972550975,0.2904250144093349,19.203103889355752
215.0,36.462989524251455,6.832541190615762,0.2892198887375659,19.208495873745527
216.0,37.30947836067646,6.917565145741757,0.28816633542138154,19.213438648049895
217.0,38.0225361320895,7.048986457630344,0.2872661760111558,19.21783017436911
218.0,38.596104441461485,7.225327969551287,0.28652100965135396,19.221582470879248
219.0,39.02477444714509,7.4445223807744405,0.28593220590475993,19.22462208000022
220.0,39.30396896193347,7.703942732904649,0.28550090068423084,19.226890305389585
221.0,39.43024771810245,8.000432461366081,0.2852279877423962,19.22834371636379
222.0,39.40176753404918,8.33037047063653,0.2851141128282222,19.22895430051051
223.0,39.21867864688616,8.689741021998117,0.28515966670026305,19.22870969388033
224.0,38.883456772977375,9.074222977057637,0.28536477784885456,19.227613328822372
225.0,38.40108533469399,9.479294240918453,0.2857293050320692,19.22568451508101
226.0,37.77905023540206,9.900347277995824,0.28625282974320904,19.222958449111918
227.0,37.027144137038434,10.332808528365627,0.28693464875457597,19.219486147103794
228.0,36.15710973598312,10.772251633311763,0.28777376690760875,19.215334297842897
229.0,35.18217598449345,11.214492185351691,0.28876889034235814,19.210585032327717
230.0,34.1165531091523,11.655651648776125,0.28991842037881294,19.205335607923956
231.0,32.97495093786463,12.09218052880154,0.29122044827792876,19.199698005834446
232.0,31.772172169995155,12.520835928155087,0.2926727511204985,19.193798441730006
233.0,30.522810590500857,12.93861669634844,0.29427278904648935,19.18777679052683
234.0,29.24106065687426,13.342667284796217,0.2960177040954861,19.181785927481986
235.0,27.94062226629849,13.730169447632106,0.2979043208799475,19.175990988985653
236.0,26.634665015495603,14.098248837596325,0.2999291493082744,19.1705685575974
237.0,25.335810601311035,14.443921906030358,0.30208838954997913,19.16570577711619
238.0,24.056098969433528,14.764098680876435,0.30437793937373253,19.161599405062475
239.0,22.80691899949065,15.055646846914653,0.3067934040545269,19.158454808820082
240.0,21.598896789062,15.315511942013805,0.3093301088725267,19.15648491571309
241.0,20.441750750216517,15.540877788391557,0.3119831142449178,19.155909126180344
242.0,19.344135920267725,15.729342274754442,0.3147472334739397,19.156952200038273
243.0,18.31350427704144,15.879081638609952,0.31761705303569765,19.15984312632572
