Time,J,A,S,tau
0.0,100.0,10.0,0.6865295972159488,22.526836642435498
1.0,98.39710645703924,14.760831987103689,0.6848398194474473,22.483354799148337
2.0,93.90527202651103,19.330345804614048,0.6831528955787656,22.440229221734924
3.0,88.14487427535926,23.715322880418,0.681469490602283,22.397471480916103
4.0,81.90477233478194,27.922341733717715,0.6797902741975612,22.35509294850975
5.0,75.52773163689702,31.957783234921866,0.6781159202845203,22.313104796309226
6.0,69.15738224180512,35.827835640960004,0.6764471065694354,22.271517994981632
7.0,62.85348647462985,39.53849773605528,0.6747845140828295,22.230343313257343
8.0,56.64098914258853,43.095587672696865,0.6731288266977172,22.189591317387116
9.0,50.530271143901054,46.50474273536475,0.6714807306652972,22.149272369530358
10.0,44.52557539010618,49.77143128907751,0.6698409140974457,22.10939662984372
11.0,38.628443779720826,52.900930778241566,0.668210066547338,22.069974053306602
12.0,32.83922262903973,55.89836262402299,0.6665888784278221,22.031014386496732
13.0,27.1577029268428,58.76870205815831,0.6649780404935296,21.99252717821089
14.0,21.58338575178133,61.516753566912875,0.6633782434421641,21.95452177467406
15.0,16.115615370201706,64.14715118835842,0.661790177283322,21.917007305450976
16.0,10.753639618372201,66.66442060402419,0.6602145308517476,21.879992708612917
17.0,5.496650241735445,69.07287951685603,0.6586519914195321,21.8434867137796
18.0,0.3437722327596524,71.37676627461204,0.6571032439553686,21.80749784932969
19.0,0.0,73.58016359074357,0.6555689707520445,21.77203444081048
20.0,0.0,75.68701531458714,0.6540498508963253,21.737104612440827
21.0,0.0,77.70112568167812,0.6525465596659658,21.70271628400431
22.0,0.0,79.44743960821272,0.6510597681914911,21.668877180185227
23.0,0.0,78.98158876220445,0.6495901427534302,21.63559482398768
24.0,0.0,76.99570332282967,0.6481383443726626,21.602876540561816
25.0,0.0,74.42222025345943,0.6467050282846065,21.570729457942104
26.0,0.0,71.6741019693084,0.6452908434387082,21.539160508176742
27.0,0.0,68.91955592429687,0.6438964320043618,21.508176428542225
28.0,0.0,66.22440176906144,0.6425224288792567,21.477783762723405
29.0,0.0,63.61318378500985,0.6411694612161151,21.447988862334075
30.0,0.0,61.09387786813335,0.6398381479267112,21.418797887750173
31.0,0.0,58.66781233982956,0.6385290992679078,21.39021681067186
32.0,0.0,56.33360742943702,0.637242916390789,21.36225141540342
33.0,0.0,54.08881046019504,0.6359801904752352,21.334907292891657
34.0,0.0,51.93055091516956,0.6347415034570184,21.308189863628424
35.0,0.0,49.855885966874624,0.6335274256503716,21.28210434333832
36.0,0.0,47.86179953878217,0.6323385174356273,21.256655783904673
37.0,0.0,45.945398347905616,0.6311753276450375,21.23184905046409
38.0,0.0,44.10380776798429,0.6300383927576202,21.207688821460543
39.0,0.0,42.334285762552355,0.6289282383180027,21.184179613523334
40.0,0.0,40.63414369557833,0.627845376477337,21.16132575496446
41.0,0.0,39.00078982787153,0.6267903068463676,21.13913140411022
42.0,0.0,37.43172916503985,0.6257635160330871,21.11760054874226
43.0,0.0,35.92454254748783,0.6247654769476205,21.096737003517163
44.0,0.0,34.4769028901916,0.6237966486228254,21.076544413387357
45.0,0.0,33.08655861675791,0.62285747602602,21.05702625673072
46.0,0.0,31.751340168763097,0.6219483896223784,21.03818584526384
47.0,0.0,30.469156570278216,0.6210698051243205,21.020026326080803
48.0,0.0,29.237990742905044,0.6202221232381749,21.0025506834579
49.0,0.0,28.05590268319858,0.6194057293923914,20.985761740258326
50.0,0.0,26.921028323476758,0.6186209935118062,20.969662159679753
51.0,0.0,25.831580046448305,0.6178682697378025,20.954254446302443
52.0,0.0,24.78585232464631,0.617147896275595,20.939540948241454
53.0,0.0,23.782227105703306,0.6164601951043814,20.925523857812998
54.0,0.0,22.819183122649065,0.6158054718895297,20.91220521396546
55.0,0.0,21.895310210745375,0.6151840157218476,20.899586902930512
56.0,0.0,21.009328249461003,0.6145960989818389,20.88767065989517
57.0,0.0,20.160111510482558,0.6140419772092282,20.87645807054573
58.0,0.0,19.34672046068679,0.61352188894229,20.86595057219934
59.0,0.0,18.568440017932392,0.6130360555997496,20.85614945516372
60.0,2.1376840233122,17.824824771086504,0.6125846813798311,20.847055864091523
61.0,4.620730086844081,17.115751104061452,0.6121679531595783,20.838670799189867
62.0,7.363809745243903,16.441475184797056,0.6117860404056974,20.830995117384667
63.0,10.37469636025358,15.802694886307318,0.6114390950994977,20.824029533459544
64.0,13.656800140849914,15.200611657369604,0.6111272517343623,20.81777462162841
65.0,17.20823518967129,14.63699901005006,0.6108506271438874,20.81223081563172
66.0,21.02080679510196,14.114258164228962,0.6106093205628356,20.80739841053781
67.0,25.078910650943314,13.635468389670645,0.6104034136038146,20.803277563726926
68.0,29.358685387811178,13.204427955073054,0.6102329702769058,20.799868296081254
69.0,33.82705954426368,12.825679669347332,0.6100980369648437,20.79717049268715
70.0,38.441155274891855,12.504524093833783,0.609998642364705,20.795183903167715
71.0,43.14789726834093,12.246998649918577,0.6099347976698469,20.79390814370439
72.0,47.883890335906074,12.059849473927333,0.6099064964388831,20.793342696548336
73.0,52.575828542730704,11.950463922877722,0.6099137148166932,20.79348691207329
74.0,57.141214188886366,11.926788915385597,0.6099564114642677,20.794340008492767
75.0,61.48977421796275,11.99721575063113,0.6100345277244491,20.795901073234816
76.0,65.52555114285136,12.170444545096325,0.6101479876573326,20.7981690632052
77.0,69.14981853005358,12.455316338160607,0.6102966981438966,20.80114280543694
78.0,72.26513734696636,12.86062208725873,0.610480549039617,20.80482099799687
79.0,74.78056540904032,13.39488332230233,0.6106994132342921,20.80920221005665
80.0,76.61772214337164,14.066097579945387,0.610953146818266,20.814284882645087
81.0,77.71726236497652,14.881460894158918,0.6112415892517805,20.82006732931284
82.0,78.04475978164537,15.847039709602818,0.61156456346487,20.826547736136302
83.0,77.59481577435893,16.96741312154057,0.6119218759794935,20.83372416176202
84.0,76.39177291409904,18.2452803397259,0.6123133172091807,20.841594538724895
85.0,74.48733760454574,19.681007357700715,0.6127386615421325,20.850156672948973
86.0,71.95471113773758,21.272174932299887,0.6131976676614085,20.85940824502024
87.0,68.88086115950598,23.013063317407248,0.6136900785625499,20.86934680890649
88.0,65.3581003372909,24.89420730714306,0.614215621936756,20.87996979351392
89.0,61.47706643853087,26.901915946626797,0.614774010279696,20.891274501894884
90.0,57.322022195621045,29.01792367987767,0.6153649411981077,20.903258111972367
91.0,52.96883581738182,31.219106646918153,0.6159880976280202,20.915917676419554
92.0,48.485226451382346,33.47735957161388,0.6166431480666882,20.929250122529982
93.0,43.932499857591296,35.75966482742473,0.6173297469000799,20.943252252823548
94.0,39.367777406011164,38.02832317067239,0.6180475345755497,20.957920744155064
95.0,34.84610077745965,40.24149002743714,0.618796137998137,20.973252148742976
96.0,30.421861251907153,42.35393372629706,0.6195751707105683,20.98924289309672
97.0,26.149365963325035,44.31821398892367,0.6203842332836416,21.005889278809928
98.0,22.08243591729253,46.08627208090371,0.6212229135653998,21.023187481907613
99.0,18.273015332199854,47.61159858098345,0.6220907870023162,21.041133552763814
100.0,14.768894517550953,48.851946282614136,0.6229874169938742,21.05972341628561
101.0,11.610710185866175,49.7725124992698,0.623912355193318,21.07895287143039
102.0,8.828634697496806,50.3492473800515,0.6248651418571493,21.098817591132384
103.0,6.43932675683539,50.57176757314879,0.6258453061972855,21.119313122177726
104.0,4.443789371790281,50.4452580672205,0.626852366700027,21.1404348845594
105.0,2.8269198557173203,49.990666811855725,0.6278858315409324,21.162178171923124
106.0,1.5588968299977772,49.24304179049465,0.6289451989147123,21.18453815087367
107.0,0.5984807102080991,48.248016324585784,0.6300299574151613,21.207509860800926
108.0,0.0,47.05709552317814,0.6311395864144992,21.23108821362165
109.0,0.0,45.72263215957583,0.6322735564472635,21.255267993498766
110.0,0.0,44.29341364369361,0.6334313295995295,21.2800438565541
111.0,0.0,42.81153702407725,0.6346123599031946,21.30541033057905
112.0,0.0,41.31083653537604,0.6358160937347599,21.331361814741985
113.0,0.0,39.81672659241182,0.6370419702180553,21.35789257929032
114.0,0.0,38.347059979690506,0.6382894216308105,21.384996765254638
115.0,0.0,36.91352005444243,0.6395578738151348,21.41266838416786
116.0,0.0,35.5231337641253,0.6408467465893382,21.440901317756477
117.0,0.0,34.17963863516778,0.6421554541642029,21.469689317678842
118.0,0.0,32.884575566165964,0.64348340555472,21.49902600506157
119.0,0.0,31.63809322924009,0.644830005009975,21.528904870557472
120.0,0.0,30.439496092163456,0.6461946524246049,21.55931927385681
121.0,0.0,29.2876045825355,0.6475767437635841,21.590262443537412
122.0,0.0,28.1809794698588,0.6489756714807711,21.6217274767611
123.0,0.0,27.11805911304487,0.6503908249407278,21.653707339088612
124.0,0.23697744973444745,26.097241584554677,0.6518215908384607,21.686194864271958
125.0,0.6522938121784563,25.116933865213937,0.6532673536181208,21.719182754076257
126.0,1.1492813785396963,24.175582224377496,0.6547274958900795,21.75266357810866
127.0,1.7399165362410445,23.271692361318753,0.6562013988457531,21.78662977368091
128.0,2.436979254773331,22.40384494408416,0.6576884426698901,21.82107364571116
129.0,3.253932034251471,21.5707100428425,0.6591880069495035,21.855987366626042
130.0,4.204767675138826,20.77106264478457,0.6606994710793177,21.891362976289166
131.0,5.303822744230972,20.003800517417044,0.6622222146628942,21.92719238204003
132.0,6.565552020576066,19.26796515184107,0.6637556179095425,21.9634673586056
133.0,8.004260940758812,18.562765616791587,0.6652990620260417,22.00017954820581
134.0,9.633788707608193,17.887605112880497,0.6668519296027581,22.037320460606352
135.0,11.46713822558994,17.24210975491476,0.6684136049929844,22.074881473272317
136.0,13.51605444067538,16.626159618536082,0.6699834746870875,22.112853831543323
137.0,15.790516501071817,16.03992164465811,0.6715609276825295,22.15122864857293
138.0,18.298207559051946,15.483883633009022,0.6731453558390447,22.189996905996807
139.0,21.043862424214737,14.958888494851045,0.6747361542255831,22.229149454089548
140.0,24.02856106714586,14.466163522023864,0.6763327214176342,22.268677013184487
141.0,27.24921644686101,14.007390272640372,0.6779344601023307,22.308570168091784
142.0,30.697510703550616,13.584677069810397,0.6795407769551894,22.348819378926358
143.0,34.35927468676699,13.200630553969766,0.6811510833006932,22.389414973203433
144.0,38.213815491074776,12.858359753684613,0.6827647952741734,22.430347150209727
145.0,42.2332411955122,12.561496407442585,0.6843813341714903,22.471605980230027
146.0,46.38198947334053,12.314201236569867,0.6860001267406712,22.513181405284115
147.0,50.61656093859094,12.121158795844705,0.6876206054471393,22.555063240180825
148.0,54.885437365291416,11.987559898749879,0.6892422087214642,22.597241173571465
149.0,59.129312653725364,11.919078310793983,0.6908643812553596,22.639704768064664
150.0,63.28180135098362,11.92183117204397,0.6924865742314047,22.68244346158778
151.0,67.27043295200457,12.002323012392582,0.694108245540322,22.7254465685261
152.0,71.01833258657041,12.16738343698526,0.6957288600538151,22.768703280048943
153.0,74.4464624415409,12.424081606853424,0.6973478897747715,22.81220266624153
154.0,77.47656586789553,12.779629093286326,0.6989648140960939,22.85593367631257
155.0,80.03488669411293,13.241265498816219,0.700579119958861,22.89988514047668
156.0,82.05626188345965,13.816119138770224,0.7021903020253663,22.944045771225714
157.0,83.48861718455456,14.511050115953697,0.7037978628816031,22.988404164311916
158.0,84.29688438768548,15.332467536977296,0.70540131315198,23.03294880081048
159.0,84.46598174834274,16.286117555974407,0.7070001716651665,23.077668048363897
160.0,84.0020393037933,17.376837525676383,0.7085939655842756,23.122550162788414
161.0,82.93147554982572,18.608288914222214,0.7101822305361937,23.167583289857262
162.0,81.29785054350863,19.982651378392404,0.7117645106991433,23.21275546727642
163.0,79.15712983849029,21.500283416783475,0.7133403589082571,23.258054626380247
164.0,76.57207282833821,23.159374442884726,0.7149093367384016,23.303468594316367
165.0,73.60690832210558,24.955570581365638,0.7164710145707842,23.34898509611769
166.0,70.32309187488114,26.881598596688995,0.7180249716850399,23.394591756542606
167.0,66.77675272337147,28.926909458543722,0.7195707963026142,23.440276102483082
168.0,63.01793655462531,31.07736870537497,0.7211080856072296,23.48602556550107
169.0,59.09125181407267,33.314999241230936,0.7226364457755109,23.531827484238175
170.0,55.03740072574165,35.61779914846592,0.7241554920220312,23.5776691066808
171.0,50.89506848110954,37.95968451539311,0.725664848611099,23.62353759282358
172.0,46.70267929413927,40.31058512002406,0.7271641488307278,23.66942001760954
173.0,42.49972617408202,42.63669879960093,0.728653034982451,23.715303373722186
174.0,38.32755869037282,44.90094336560086,0.7301311583874865,23.761174574263606
175.0,34.22956670887185,47.06367361917456,0.7315981793523442,23.807020455817756
176.0,30.25076686324648,49.08369052532402,0.7330537670930822,23.852827781856867
177.0,26.436828075870693,50.91958200003168,0.7344975997614097,23.898583245385336
178.0,22.83255111954851,52.53143665864508,0.7359293643077086,23.94427347283159
179.0,19.479866200895156,53.88290723715505,0.7373487564780845,23.989885027014004
180.0,16.415473915465792,54.94352747393975,0.7387554807226603,24.035404410783443
181.0,13.668366953926803,55.69106096447488,0.7401492501075532,24.080818070675836
182.0,11.257510317645306,56.113623358162144,0.7415297862378895,24.126112400542233
183.0,9.19004800894055,56.21122650056243,0.7428968191865913,24.17127374523036
184.0,7.4605692627796385,55.99623465826781,0.7442500873431033,24.216288404762157
185.0,6.051427952406453,55.49277192142597,0.7455893373582826,24.261142638041623
186.0,4.93446660959459,54.73475484772531,0.7469143239995161,24.30582266711573
187.0,4.073759079725779,53.76296312158498,0.7482248100507501,24.35031468129054
188.0,3.4290564288054783,52.62149141594093,0.7495205661820831,24.39460484144887
189.0,2.959334270311166,51.35418484351345,0.7508013708231266,24.438679284431792
190.0,2.6259089221354666,50.00158677931768,0.7520670100305807,24.482524127524044
191.0,2.3947165859090958,48.598787397364724,0.7533172773502549,24.52612547303903
192.0,2.2375826932059897,47.17432195448691,0.754551973675766,24.56946941299777
193.0,2.132539169438666,45.75003702692624,0.7557709071034349,24.61254203390442
194.0,2.0634128239208267,44.341681563286116,0.7569738927833493,24.65532942161671
195.0,2.0189789569275285,42.95991549839816,0.7581607527662455,24.697817666307078
196.0,1.991958272259153,41.6114519635446,0.7593313158514067,24.73999286752244
197.0,1.978054287963006,40.300135529007555,0.7604854174249526,24.781841139321312
198.0,1.9751525737185804,39.02783818630911,0.76162289930554,24.82334861552184
199.0,1.9827162646867766,37.79514506168199,0.7627436095800522,24.864501455038198
200.0,2.0013674244383046,36.60184118765109,0.763847402435522,24.905285847259357
201.0,2.0326238281503684,35.447236638389,0.7649341380056783,24.945688017612483
202.0,2.0787434691152735,34.33037583887325,0.7660036821953021,24.985694233080313
203.0,2.142648289549337,33.250166491777264,0.7670559065039549,25.025290807777957
204.0,2.2278972080531614,32.20545592925471,0.7680906878798205,25.064464108874354
205.0,2.3386834505423493,31.195076232891235,0.7691079085392667,25.10320056231497
206.0,2.4798467869901004,30.217869753605072,0.7701074557937705,25.141486658627894
207.0,2.656893163040735,29.27270358760497,0.7710892218933425,25.179308959053508
208.0,2.876009100221469,28.358477303170226,0.7720531038520577,25.21665410148552
209.0,3.144073017313061,27.474127682456622,0.7729990032754996,25.253508806479207
210.0,3.4686571749166575,26.61863129296438,0.7739268262019179,25.28985988352673
211.0,3.858020178408274,25.79100687467247,0.7748364829319407,25.32569423722395
212.0,4.321085806454519,24.99031755442656,0.7757278878641686,25.360998873543124
213.0,4.867408250417802,24.215673801825403,0.7766009593312556,25.395760906151335
214.0,5.507122100964084,23.466237468557246,0.7774556194375423,25.429967562779623
215.0,6.250875748953771,22.741227226588332,0.7782917938983412,25.46360619163656
216.0,7.109746782957069,22.039925624818473,0.7791094118808501,25.49666426785128
217.0,8.095138193876144,21.361687977266545,0.779908405848306,25.52912940001223
218.0,9.218653673425914,20.705953111715143,0.7806887114031779,25.56098933661248
219.0,10.491948506657039,20.072256039882046,0.781450267135237,25.59223197256974
220.0,11.926558069383512,19.460243302254245,0.7821930144747503,25.622845356091673
221.0,13.533688659420775,18.869689550689746,0.7829168975411067,25.65281769486625
222.0,15.323990741319854,18.300517836220905,0.7836218629977569,25.682137362900097
223.0,17.307277400956625,17.752820914264024,0.7843078599125866,25.71079290692768
224.0,19.49221540021664,17.226886712266438,0.7849748396224318,25.73877305363961
225.0,21.885974285806498,16.723223637507793,0.7856227555874611,25.766066715409885
226.0,24.493820504943283,16.242588559005892,0.7862515632650101,25.792662997184284
227.0,27.3186796685848,15.786014483056972,0.7868612199767194,25.818551202383183
228.0,30.360619999113226,15.354850397836877,0.7874516848039723,25.843720844534946
229.0,33.61632846893601,14.950773444762103,0.788022918434642,25.868161645999773
230.0,37.07879103496531,14.575831342469588,0.7885748830071442,25.89186354776925
231.0,40.736285190903736,14.232454009578015,0.7891075421144913,25.91481671757895
232.0,44.57219421362856,13.923487907691873,0.7896208605926299,25.937011555297296
233.0,48.56437880073772,13.652204979053202,0.7901148044474852,25.958438698073408
234.0,52.684774977274806,13.42232094698408,0.7905893407447762,25.979089028392075
235.0,56.899070627515904,13.237999842085223,0.7910444375107282,25.998953679714987
236.0,61.16653201239335,13.103853864552704,0.7914800636364475,26.018024042924985
237.0,65.44003049551293,13.024933247646596,0.791896188785687,26.03629177166038
238.0,69.66627298161868,13.006709488456451,0.7922927833112187,26.053748788740208
239.0,73.7863497634102,13.05505035056343,0.7926698181711619,26.070387292706176
240.0,77.7366838365913,13.17618482669358,0.7930272648459453,26.08619976372222
241.0,81.45036164048187,13.376654614951665,0.7933650952652416,26.10117896806245
242.0,84.85891911844621,13.663256915658328,0.7936832817428966,26.115317964738622
243.0,87.8947582823456,14.042976894350163,0.7939817969060016,26.128610111769067
244.0,90.49396851433877,14.522903690512544,0.794260613634466,26.141049069957752
245.0,92.59950298772621,15.110132782421516,0.7945197050096234,26.152628808560618
246.0,94.16461981627587,15.811653348565619,0.7947590442589327,26.163343612037245
247.0,95.15591212893995,16.634217794429834,0.7949786047075244,26.173188083160483
248.0,95.55570022190476,17.584188416189726,0.7951783597378002,26.182157148821997
249.0,95.36318542482024,18.667362476741353,0.7953582827553222,26.190246063838924
250.0,94.59419636602206,19.888770847001187,0.795518347152219,26.19745041654192
251.0,93.27923840703424,21.252447796891506,0.795658526276873,26.203766133115277
252.0,91.46015169745453,22.761168082178187,0.7957787934118582,26.209189481851546
253.0,89.18597323336148,24.416164514804706,0.7958791217713826,26.213717074584167
254.0,86.50865695213358,26.21679907939308,0.7959594844728957,26.21734587384554
255.0,83.47929675961218,28.160217399797126,0.7960198545314784,26.22007319532982
256.0,80.14552090032647,30.240984190049385,0.7960602048592135,26.221896710996685
257.0,76.55023536286897,32.45071617012804,0.7960805082679385,26.222814452233425
258.0,72.7316576245289,34.77771858916278,0.7960807374770439,26.22282481281126
259.0,68.72433222334742,37.20664974283448,0.7960608651268029,26.22192655161849
260.0,64.5607109320511,39.718232943539995,0.7960208637974873,26.220118795523128
