Time,J,A,S,tau
0.0,100.0,10.0,0.5282794379728744,17.65257883911408
1.0,98.82326144936002,14.744940997229678,0.5282356092006586,17.617211445938533
2.0,94.5562145580195,19.164744338025404,0.5281920909335973,17.58216436942058
3.0,88.44840722390784,23.280088579460994,0.5281488964322288,17.547446639324992
4.0,81.4050291029003,27.110387344798976,0.5281060388337965,17.51306711988488
5.0,73.9639682870698,30.67386516113659,0.5280635311481167,17.479034509323224
6.0,66.42495621180788,33.987627386711836,0.5280213862535593,17.445357339528027
7.0,58.95079252495413,37.067728170398844,0.5279796168930175,17.412043975740687
8.0,51.62858019945494,39.929232424186445,0.5279382356701633,17.379102616590124
9.0,44.50382478422575,42.5862752999272,0.5278972550451909,17.34654129356228
10.0,37.599186362078214,45.05211760255795,0.5278566873317931,17.314367871873316
11.0,30.92452829387895,47.339206549894755,0.5278165446929782,17.282590050043225
12.0,24.48251819811357,49.4591928750134,0.5277768391373224,17.25121535994669
13.0,18.27172969703502,51.42303299348241,0.5277375825161897,17.22025116798121
14.0,12.288398300518114,53.240950850305445,0.527698786518885,17.189704673940007
15.0,6.527414134624647,54.922583951839634,0.5276604626713791,17.159582913721646
16.0,0.982920572101291,56.476955575807395,0.5276226223313895,17.129892758164388
17.0,0.0,57.91252657661316,0.5275852766861817,17.100640914668553
18.0,0.0,58.37858449244939,0.5275484367487717,17.07183392724075
19.0,0.0,57.054945315812596,0.5275121133551988,17.043478177555933
20.0,0.0,54.6952343758195,0.5274763171615489,17.01557988576286
21.0,0.0,51.8492552771217,0.5274410586411111,16.988145111393163
22.0,0.0,48.8346444684265,0.5274063480815953,16.961179754303295
23.0,0.0,45.821279210834035,0.5273721955824463,16.934689555680723
24.0,0.0,42.89600182786374,0.5273386110522115,16.908680099070228
25.0,0.0,40.10085742245693,0.5273056042061023,16.883156811535066
26.0,0.0,37.45399568635426,0.5272731845635736,16.858124964800112
27.0,0.0,34.960872788712976,0.5272413614451529,16.833589675784385
28.0,0.0,32.620223340588325,0.527210143971573,16.809555908911214
29.0,0.0,30.427268270532124,0.5271795410606768,16.786028476625955
30.0,0.0,28.37547314865846,0.5271495614254297,16.76301204075167
31.0,0.0,26.457513660544592,0.5271202135718581,16.740511113748397
32.0,0.0,24.665810771257295,0.5270915057972275,16.71853006010333
33.0,0.0,22.992831144062112,0.5270634461880075,16.697073097527074
34.0,0.0,21.431253783777155,0.5270360426181312,16.676144298318714
35.0,1.921352851087095,19.974449409836218,0.5270093027472891,16.65574759070711
36.0,5.0175684388278805,18.616734755828872,0.5269832340192766,16.635886760183066
37.0,8.598989219707095,17.352859977294447,0.526957843660444,16.616565450851784
38.0,12.68578564421593,16.178447546966023,0.5269331386781881,16.597787166765837
39.0,17.284326313060266,15.09040319005664,0.5269091258596351,16.57955527333124
40.0,22.38487000732063,14.087333133690063,0.5268858117693938,16.561872998074897
41.0,27.95902450107659,13.169917444543355,0.5268632027504032,16.54474343329838
42.0,33.9579573913269,12.34135528093909,0.5268413049203499,16.52816953592856
43.0,40.31113475307791,11.607682326388904,0.526820124172404,16.512154129962738
44.0,46.92622437338325,10.97801418200727,0.5267996661732433,16.496699907203755
45.0,53.690332865953586,10.464586390089904,0.5267799363623301,16.48180942869847
46.0,60.47250362598801,10.082563588920054,0.5267609399509597,16.46748512598317
47.0,67.12681963608894,9.849581733196056,0.5267426819215448,16.453729302403232
48.0,73.49490830115184,9.785027465527756,0.5267251670268885,16.44054413436362
49.0,79.4068168636115,9.90908229660163,0.5267083997895258,16.427931672557474
50.0,84.68063541425413,10.241590604013131,0.5266923845011228,16.415893843164383
51.0,89.1235518543021,10.800825385137612,0.5266771252218747,16.404432448989212
52.0,92.53895596865152,11.602148420094265,0.5266626257801382,16.393549170664766
53.0,94.74352490106756,12.656682604207251,0.5266488897720847,16.383245567798678
54.0,95.59333247744682,13.970179421268334,0.5266359205614536,16.373523080111262
55.0,95.01232114337702,15.54200847141519,0.5266237212794583,16.36438302858101
56.0,93.01291950701878,17.364232995191724,0.5266122948234674,16.355826615892102
57.0,89.69779086137056,19.420866388771373,0.5266016438586758,16.347854928371678
58.0,85.24388150146426,21.6872655720802,0.526591770817009,16.34046893644332
59.0,79.87313149245308,24.129890619294734,0.5265826778974628,16.333669495718635
60.0,73.82082550843332,26.706499470336013,0.5265743670660658,16.32745734784873
61.0,67.3105699848227,29.366944850498683,0.5265668400561115,16.321833121446982
62.0,60.54008631897636,32.05454899886094,0.5265600983683919,16.316797332942066
63.0,53.677184458204636,34.7077478742336,0.5265541432714838,16.31235038739078
64.0,46.86283006347432,37.26140780502053,0.5265489758021091,16.30849257926072
65.0,40.217977701925555,39.64720449518138,0.5265445967655717,16.305224093183394
66.0,33.851457637235285,41.79302080671105,0.5265410067362413,16.302545004663177
67.0,27.86647686958116,43.62246706084781,0.5265382060580672,16.30045528073429
68.0,22.363151083267624,45.056757357280595,0.5265361948452653,16.298954780633842
69.0,17.43488675591605,46.021224111727214,0.526534972982951,16.298043256389875
70.0,13.158467146544316,46.45683116779969,0.526534540127859,16.297720353373865
71.0,9.580918299759375,46.3338785028881,0.5265348957091174,16.297985610824263
72.0,6.708799424936402,45.66254278410442,0.5265360389290052,16.29883846228238
73.0,4.505452878101613,44.49519151224299,0.5265379687640315,16.300278236140468
74.0,2.89838857604426,42.918696147902644,0.5265406839658837,16.30230415604644
75.0,1.794592267697392,41.03935092214957,0.5265441830623167,16.30491534121746
76.0,1.0985431351509143,38.96576269683825,0.5265484643582891,16.30811080681219
77.0,0.7275528571381964,36.79495955182686,0.5265535259370898,16.311889464235467
78.0,0.621310873038124,34.60450154164125,0.5265593656615085,16.316250121401914
79.0,0.745276672146931,32.45055606133463,0.5265659811750888,16.321191482978822
80.0,1.089432972433922,30.370099540484855,0.5265733699033807,16.326712150566298
81.0,1.664421213926015,28.385028984023737,0.5265815290552979,16.332810622868248
82.0,2.4966927745372813,26.506485444572824,0.5265904556245123,16.33948529582786
83.0,3.6236202490554645,24.73850353205096,0.5266001463909017,16.346734462723788
84.0,5.088939659972507,23.080721460510436,0.5266105979220193,16.354556314224055
85.0,6.938587708038609,21.530241768512653,0.5266218065746477,16.36294893842511
86.0,9.216917745831598,20.08285462500175,0.5266337684963608,16.371910320836903
87.0,11.963247010090752,18.73383737116138,0.5266464796272315,16.381438344390517
88.0,15.208743636192892,17.478505820326966,0.526659935701415,16.391530789327035
89.0,18.973635547402004,16.31264446892272,0.5266741322488928,16.40218533311652
90.0,23.26471854147094,15.232900231852982,0.5266890645976829,16.413399550574795
91.0,28.0733289708461,14.23723077926876,0.5267047278741089,16.425170912873785
92.0,33.373231360764926,13.325342650674855,0.5267211170066095,16.437496788428273
93.0,39.11899508144336,12.499180392648464,0.5267382267270336,16.450374442389133
94.0,45.24508536532046,11.763388112363637,0.5267560515718182,16.463801035983842
95.0,51.6655374135951,11.125602721188347,0.5267745858848912,16.477773626787897
96.0,58.27507630349942,10.596574629763559,0.5267938238193414,16.492289168253908
97.0,64.9513235625579,10.190024906602494,0.5268137593392788,16.50734450931424
98.0,71.55777970676229,9.922216515186696,0.5268343862221744,16.522936394207598
99.0,77.94661791210018,9.811271558114221,0.5268556980611053,16.539061462213805
100.0,83.96012039160644,9.876267589896015,0.5268776882667402,16.555716247201786
101.0,89.43039912379598,10.136151294538076,0.5269003500694733,16.572897177223865
102.0,94.17924556889012,10.608558878550618,0.5269236765219372,16.590600574299
103.0,98.02172922429043,11.30862252276701,0.5269476605012505,16.608822654010112
104.0,100.77746998113835,12.24781987523546,0.526972294711075,16.62755952494423
105.0,102.29077228678936,13.432937750404921,0.5269975716841809,16.646807188418407
106.0,102.45585680504843,14.865204955286389,0.5270234837851893,16.666561538305036
107.0,101.24011637528741,16.539571151292975,0.5270500232117495,16.686818359786766
108.0,98.69366333492121,18.444206946848166,0.5270771819984214,16.70757332987312
109.0,94.94347229381621,20.560057316810084,0.52710495201843,16.728822016507774
110.0,90.17311357990776,22.860714238368068,0.5271333249864648,16.750559878323653
111.0,84.59528852691037,25.31245460740509,0.5271622924608884,16.77278226398405
112.0,78.42577371084818,27.874683845954316,0.5271918458464492,16.795484411850975
113.0,71.86478003015318,30.50081075922867,0.5272219763968928,16.818661449570527
114.0,65.08741373042847,33.13950171442814,0.5272526752175701,16.84230839364149
115.0,58.24187633738823,35.73602636928232,0.527283933268069,16.866420148989818
116.0,51.4527996651185,38.23321134492941,0.5273157413648347,16.890991508519843
117.0,44.82725237309684,40.571569283671444,0.5273480901838417,16.916017152694454
118.0,38.46141904792793,42.688651620809146,0.5273809702633456,16.94149164917464
119.0,32.446109358335995,44.51852856830622,0.527414372006606,16.96740945243178
120.0,26.869196212797778,45.99307043480452,0.5274482856846282,16.993764903373226
121.0,21.813406449293506,47.04668231143411,0.5274827014389061,17.02055222896688
122.0,17.349228443318356,47.62489841322543,0.5275176092841676,17.04776554186409
123.0,13.524937480624907,47.69502523892919,0.5275529991112419,17.075398840138405
124.0,10.35755403924439,47.255234717783445,0.5275888606897917,17.103446006902583
125.0,7.828890302130507,46.33826676202168,0.5276251836712846,17.131900810166528
126.0,5.888782242039205,45.00798479933274,0.5276619575917232,17.16075690246858
127.0,4.464992680005539,43.34956437009213,0.5276991718745401,17.190007820678346
128.0,3.4766499727343563,41.456641149556866,0.5277368158334579,17.21964698578006
129.0,2.8473999594621953,39.419212579214886,0.5277748786753853,17.249667702708827
130.0,2.5153344392697927,37.31502815133937,0.5278133495033056,17.280063160198548
131.0,2.438467297651816,35.20540602478925,0.5278522173192042,17.310826430694135
132.0,2.596084986110747,33.13485785352844,0.527891471026992,17.34195047028636
133.0,2.9871747675153935,31.133146701330137,0.5279310994353321,17.373428118539543
134.0,3.6270862837935884,29.218417937026697,0.5279710912607458,17.405252098711696
135.0,4.5436016859035995,27.40034958668427,0.5280114351304491,17.43741501765686
136.0,5.772877762528824,25.682842782255417,0.5280521195853236,17.469909365932043
137.0,7.355591275208916,24.066073391965087,0.5280931330828785,17.50272751792759
138.0,9.333376032786473,22.5479534129327,0.5281344640002176,17.53586173204533
139.0,11.745588089249575,21.12513190166242,0.5281761006370009,17.569304150906508
140.0,14.626418586848084,19.793674427221188,0.5282180312184263,17.603046801632818
141.0,18.00235752805696,18.54953770843304,0.528260243898219,17.637081596191592
142.0,21.890001268708705,17.388932830983922,0.5283027267615171,17.671400331602765
143.0,26.294211136578728,16.308635219908737,0.5283454678281135,17.70599469085883
144.0,31.207014070196216,15.306338224088625,0.528388455054991,17.740856242425174
145.0,36.6057214667097,14.380949748857104,0.5284316763397005,17.77597644174203
146.0,42.45256686014015,13.533001285700859,0.5284751195232249,17.811346631420406
147.0,48.693932871327235,12.765001558389397,0.5285187723930724,17.846958042255476
148.0,55.26040601615844,12.08179227031013,0.5285626226859412,17.88280179315812
149.0,62.067549778123166,11.490745037566661,0.52860665809112,17.918868892908907
150.0,69.01732175730736,11.001839556442183,0.5286508662530821,17.955150240092145
151.0,76.0005267442934,10.627508410883436,0.5286952347748151,17.991636624859108
152.0,82.89918744611296,10.382294327658634,0.5287397512205002,18.028318729165182
153.0,89.58867947935927,10.282297991535092,0.5287844031187411,18.065187128470633
154.0,95.93801262277987,10.344449507416092,0.5288291779653351,18.102232292348926
155.0,101.80897389433899,10.585674666012572,0.5288740632264024,18.139444586082945
156.0,107.0541613851681,11.02195370634026,0.5289190463412353,18.176814271684464
157.0,111.51765713552003,11.667405955106982,0.5289641147253448,18.214331509370428
158.0,115.04000974231062,12.533369708014044,0.5290092557733653,18.251986359007052
159.0,117.47094400769514,13.627611366867473,0.529054456862041,18.289768781475924
160.0,118.68707178905957,14.953628446371038,0.5290997053531585,18.32766864056192
161.0,118.61209737472151,16.5101076061133,0.5291449885964734,18.36567570421505
162.0,117.23185944252603,18.29055681202025,0.5291902939327251,18.40377964657766
163.0,114.59916834766746,20.283046341338604,0.5292356086965285,18.44197004984258
164.0,110.82724861717338,22.47007067805599,0.5292809202192332,18.480236405908734
165.0,106.07373047377376,24.82863697397965,0.5293262158319378,18.518568118863055
166.0,100.52030391315033,27.330416320829514,0.5293714828683728,18.556954506508674
167.0,94.35319306199062,29.94218849243275,0.5294167086678072,18.595384802981286
168.0,87.74847134889515,32.626500699377154,0.5294618805779806,18.63384816079209
169.0,80.86341080233613,35.34259373474959,0.5295069859579881,18.67233365317285
170.0,73.83345127649099,38.04746019337691,0.5295520121811454,18.710830276727993
171.0,66.77305918336108,40.696747244569096,0.5295969466379412,18.7493269537186
172.0,59.77920513779183,43.24519030553324,0.5296417767388724,18.78781253480794
173.0,52.93608614920477,45.646288947749156,0.5296864899173007,18.82627580187013
174.0,46.32017424702263,47.85129623974773,0.5297310736324146,18.864705470569742
175.0,40.00466618471762,49.808174741448845,0.529775515371999,18.90309019345732
176.0,34.062066933214766,51.46157159304947,0.5298198026553181,18.941418562938857
177.0,28.563797421114565,52.75506835575808,0.5298639230360528,18.979679114212924
178.0,23.576294972665004,53.636305176898304,0.5299078641050189,19.017860328644645
179.0,19.15426414185225,54.064370693690734,0.5299516134930992,19.055950636933446
180.0,15.332951060011911,54.017747513044306,0.5299951588741074,19.093938422436615
181.0,12.122274038912423,53.50007690587252,0.5300384879674831,19.131812024753312
182.0,9.50474675720572,52.54192757942623,0.5300815885414246,19.169559743117212
183.0,7.438622439996666,51.19759775347386,0.5301244484153088,19.207169840188193
184.0,5.864974330662443,49.53802718029547,0.5301670554628083,19.244630545680945
185.0,4.71719186756786,47.64172845653586,0.5302093976146209,19.28193006022434
186.0,3.9304032394010346,45.58608535365548,0.5302514628613043,19.31905655926779
187.0,3.4490571632289946,43.44069260156711,0.5302932392560846,19.35599819708586
188.0,3.2317478916125535,41.26347427660161,0.5303347149176703,19.392743110870274
189.0,3.2532506624738136,39.09942743940587,0.5303758780330561,19.42927942490965
190.0,3.5043009137328287,36.98130591970464,0.5304167168603179,19.465595254856225
191.0,3.9898917771099907,34.93140307138534,0.5304572197315188,19.501678712083063
192.0,4.726660621179381,32.96375397862911,0.5304973750553508,19.537517908115674
193.0,5.740013228356481,31.086238572543675,0.5305371713200634,19.573100959159433
194.0,7.061176986752547,29.30238287214403,0.530576597096185,19.60841599069531
195.0,8.724392795024936,27.612761464770784,0.5306156410394076,19.643451142175827
196.0,10.764308520929157,26.016042033482833,0.5306542918933044,19.678194571772547
197.0,13.21360138076565,24.509728984467667,0.5306925384921798,19.71263446122489
198.0,16.100883952437226,23.09069240121259,0.5307303697638648,19.74675902075509
199.0,19.44886324534881,21.755545759313932,0.5307677747325258,19.78055649406163
200.0,23.272823333303254,20.500931441813876,0.5308047425212474,19.814015163277155
201.0,27.57928524937546,19.323753429411934,0.5308412623549698,19.847123354131554
202.0,32.36505628910637,18.221423136485082,0.5308773235646038,19.879869441855103
203.0,37.61689879184266,17.19207782819298,0.5309129155868638,19.9122418548886
204.0,43.310023031480604,16.23481988260508,0.5309480279698544,19.94422908167071
205.0,49.40845668419767,15.350017320943182,0.5309826503743107,19.97581967515396
206.0,55.8646146111139,14.539582932609054,0.5310167725768634,20.007002258478256
207.0,62.61949598149365,13.807258375461887,0.531050384473324,20.03776553077967
208.0,69.6032873070637,13.158811301411275,0.5310834760807203,20.068098272226685
209.0,76.73627345337816,12.602141414737474,0.5311160375402898,20.09798934969687
210.0,83.93042608609134,12.147276346188006,0.5311480591208954,20.12742772285349
211.0,91.09120892390042,11.806183311253218,0.5311795312209203,20.15640244912922
212.0,98.11904621674107,11.592444507168622,0.531210444371592,20.184902689796537
213.0,104.91030122145328,11.52080016977973,0.531240789239935,20.212917715827576
214.0,111.35667259487754,11.606542563337008,0.5312705566309286,20.24043691310076
215.0,117.34378989620632,11.86486152390719,0.531299737491083,20.267449788829108
216.0,122.74910376382664,12.310108029260052,0.5313283229106479,20.293945976838092
217.0,127.44152839105058,12.95507725189676,0.5313563041266824,20.319915243607223
218.0,131.28417175835511,13.810292203935264,0.5313836725259307,20.345347494160126
219.0,134.14234523358476,14.883391110604911,0.5314104196471469,20.370232777438936
220.0,135.89619509364869,16.178559682983256,0.5314365371847295,20.394561292936512
221.0,136.45582383528964,17.696135684438072,0.5314620169903218,20.418323395346192
222.0,135.77544522323223,19.43226262267325,0.5314868510767565,20.441509601515648
223.0,133.8623686806932,21.37872209657369,0.531511031620451,20.464110595909982
224.0,130.77737075167522,23.522832917116542,0.531534550963739,20.486117235888777
225.0,126.6277897148724,25.847454676474126,0.5315574016181035,20.50752055794824
226.0,121.55457346974971,28.33111364111502,0.5315795762662735,20.528311782718895
227.0,115.71702441930485,30.94819929115616,0.5316010677661588,20.548482321979
228.0,109.27821717346144,33.66934392547613,0.5316218691521714,20.568023782720044
229.0,102.3938160661192,36.46191871790634,0.5316419736392809,20.586927974250358
230.0,95.20514862019066,39.290745643073485,0.5316613746243543,20.605186912171114
231.0,87.83598034187048,42.118881865888056,0.5316800656902392,20.622792825473613
232.0,80.39257905410024,44.90839248246579,0.5316980406069781,20.639738160248022
233.0,72.9655580075693,47.62081279971665,0.5317152933359457,20.656015586784747
234.0,65.63323497746204,50.217091498931055,0.5317318180309375,20.671618002998585
235.0,58.46549158465746,52.65682584284544,0.5317476090423486,20.686538541502596
236.0,51.52791800053638,54.89702796770479,0.531762660918137,20.70077057273278
237.0,44.885309088352535,56.890899131216564,0.5317769684080289,20.71430771195979
238.0,38.60366494367154,58.5876789347115,0.5317905264644285,20.727143822192748
239.0,32.749753272036514,59.9343900074535,0.5318033302462992,20.739273020672535
240.0,27.387730003906167,60.8801327374308,0.531815375120723,20.75068968239993
241.0,22.57326870225081,61.38242820570147,0.5318266566655903,20.761388445027293
242.0,18.34652255321194,61.41439096851173,0.5318371706721644,20.771364213486535
243.0,14.72600418344984,60.97071199724577,0.5318469131474675,20.780612164299434
244.0,11.705402835242266,60.07050438748387,0.5318558803161628,20.789127749242358
245.0,9.254325212961703,58.75630174767231,0.53186406862334,20.796906699909773
246.0,7.32299519450959,57.08916323163009,0.5318714747363837,20.803945031158047
247.0,5.849600292224688,55.14139787546391,0.5318780955473752,20.81023904509317
248.0,4.768596849305608,52.988617198872475,0.5318839281751807,20.81578533454548
249.0,4.018249193311622,50.70278977772094,0.5318889699675027,20.820580786406786
250.0,3.546292809794253,48.347317576588644,0.5318932185029426,20.824622584876195
251.0,3.313301548577621,45.974426855863946,0.5318966715929851,20.827908214504696
252.0,3.293917402606671,43.62459018793885,0.5318993272838924,20.830435463012357
