Time,J,A,S,tau
0.0,100.0,10.0,0.6195788131142078,18.14412502678508
1.0,95.40682308078975,9.934446494462629,0.6125787982952327,17.76767640055463
2.0,90.8616973853131,9.866417419236011,0.6049680148267084,17.361436083928876
3.0,86.37807688567553,9.795719056015892,0.5967463070088147,16.925287446666125
4.0,81.96586119324756,9.722110059967527,0.5879101998594336,16.458802066271197
5.0,77.6345674660574,9.64534458410876,0.5784592591093938,15.961559413245592
6.0,73.39324802329226,9.565175090790104,0.5683962562859071,15.433147513666626
7.0,69.2504129297342,9.481355112121738,0.5577273954920382,14.873163840179364
8.0,65.21390363419488,9.393641085442676,0.5464626046088706,14.281216355078381
9.0,61.29080341333265,9.30179446302965,0.5346155985681514,13.656923997299826
10.0,57.48739618399386,9.205584848551887,0.5222039598151637,12.999917397567351
11.0,53.80915630405865,9.104793694927746,0.5092492642686743,12.309839922121357
12.0,50.27497537794347,8.984903298972226,0.4974275467688714,11.697211504163858
13.0,46.91250580167233,8.82080312200802,0.4907257605049374,11.432603300721599
14.0,43.67354814994661,8.662687052755341,0.48407159370908026,11.177312673565712
15.0,40.559585084601736,8.51083073659518,0.47746882520247674,10.931003682100407
16.0,37.57216014583274,8.365191763761857,0.47092313060010554,10.693284635751253
17.0,34.71348572427037,8.224417195367652,0.46428505511211304,10.469328238123238
18.0,31.987649183409467,8.084507485472411,0.457077147909117,10.275039695663585
19.0,29.395540736008698,7.94432168241807,0.4492876861229733,10.108834154611158
20.0,26.937668014388713,7.8026316728371565,0.4409128610628553,9.969160211440188
21.0,24.614105622780972,7.658177699195689,0.4319543497184987,9.8545843063149
22.0,22.424410355168288,7.50978422263466,0.42241955409190207,9.763780023353336
23.0,20.367485615156742,7.356502052078464,0.41232172909091785,9.695517588698607
24.0,18.442173425772474,7.1971810232300575,0.40168015383149075,9.64865677784729
25.0,16.646577110741987,7.030946308986281,0.3905200359703564,9.6221368795594
26.0,14.978222166895437,6.857173387602013,0.3788558144566587,9.615471454379517
27.0,13.431588400629312,6.677874640300379,0.3671235330925282,9.615471454379517
28.0,12.00225705686794,6.493986509938706,0.3555538144688828,9.615471454379517
29.0,10.68670122824835,6.3053954775751135,0.3441607605070116,9.615471454379517
30.0,9.480872818249171,6.112175492677876,0.33295774206064976,9.615471454379517
31.0,8.380347907201418,5.914574180615645,0.32195734873517234,9.615471454379517
32.0,7.380227431539274,5.712995294259828,0.3111713263472457,9.615471454379517
33.0,6.47534823512952,5.507979871779814,0.30061054171721324,9.615471454379517
34.0,5.660322187471994,5.300181202297405,0.2902849464363675,9.615471454379517
35.0,4.929532721207054,5.090341946997709,0.28020353706352213,9.615471454379517
36.0,4.277277160490696,4.879270813873435,0.2703743477538299,9.615471454379517
37.0,3.697776103727753,4.66783419087372,0.26080442865206904,9.615471454379517
38.0,3.1852571539305603,4.456927060412805,0.2514998415540643,9.615471454379517
39.0,2.734030665232802,4.247436029229977,0.24246566535644118,9.615471454379517
40.0,2.3385744089959606,4.040219101224943,0.23370601000331123,9.615471454379517
41.0,1.9935413345313555,3.836088648723064,0.22522402734825903,9.615471454379517
42.0,1.6938335256778165,3.635797700875595,0.21702194187764934,9.615471454379517
43.0,1.434630350283366,3.440029375924814,0.20910108104790845,9.615471454379517
44.0,1.211419034193713,3.249389406927873,0.2014619129266258,9.615471454379517
45.0,1.0199999121880197,3.064401461835663,0.19410408555832934,9.615471454379517
46.0,0.8565100596837141,2.8855053829518114,0.1870264765403586,9.615471454379517
47.0,0.7174220426841955,2.7130576334789067,0.18022724238918375,9.615471454379517
48.0,0.5995405762709526,2.547333714971207,0.17370387185335498,9.615471454379517
49.0,0.4999941174224985,2.3885321157845474,0.16745324173624218,9.615471454379517
50.0,0.41621991176330575,2.2367793834408585,0.16147167346899172,9.615471454379517
51.0,0.34594796178180853,2.092136169567411,0.15575499165978696,9.615471454379517
52.0,0.2871811414000374,1.9546037493801534,0.15029858240633626,9.615471454379517
53.0,0.2381745998749523,1.8241308376466816,0.1450974516157592,9.615471454379517
54.0,0.1974131213729843,1.700620442651274,0.14014628255220496,9.615471454379517
55.0,0.16358829768310557,1.5839364374130973,0.13543949135157357,9.615471454379517
56.0,0.1355776450341454,1.4739100042116535,0.1309712820668935,9.615471454379517
57.0,0.11242293256985122,1.3703455491413141,0.12673569882904057,9.615471454379517
58.0,0.09331030364110679,1.27302611861716,0.12272667561878374,9.615471454379517
59.0,0.07755236881048784,1.1817184492977106,0.11893808423120857,9.615471454379517
60.0,0.06457083417258462,1.0961773286991774,0.11536377857569718,9.615471454379517
61.0,0.0538814184728283,1.0161495049203568,0.11199763654597426,9.615471454379517
62.0,0.045080362298295276,0.941377156239459,0.10883359906742189,9.615471454379517
63.0,0.03783205895420662,0.8716007461490566,0.1058657055876889,9.615471454379517
64.0,0.03185868518246501,0.8065615702170267,0.10308812734415398,9.615471448519212
65.0,0.027445627555633335,0.7454671982123573,0.09025452465730782,10.093530993870736
66.0,0.024156600548523213,0.6882002887340564,0.07018953806533258,11.093530895624866
67.0,0.02126296772713948,0.6351299197732566,0.05448588137520293,12.09353079947103
68.0,0.018725525571750938,0.5859809126524729,0.04222492522082694,13.09353070331719
69.0,0.016506308067944488,0.5404922436819071,0.032673328444317085,14.093530607163354
70.0,0.014569449842730117,0.4984167512470385,0.025247911292583188,15.093530511009517
71.0,0.012881697055651781,0.4595207848115991,0.019486519855055614,16.093530414855678
72.0,0.011412670426096576,0.4235838228047574,0.015024147829974561,17.09353031870185
73.0,0.010134948344774566,0.39039806752235456,0.011573467488137444,18.09353022254802
74.0,0.009024015582396318,0.3597680032388748,0.008908964910101663,19.093530126394185
75.0,0.00805813113810191,0.33150994028252273,0.006854148539013366,20.093530030240355
76.0,0.007218144595891418,0.30545155001915286,0.0052712746239853454,21.093529934086526
77.0,0.006487279073041015,0.2814313798717811,0.004053098493026328,22.093529837932692
78.0,0.0058509053872658045,0.2592983677215443,0.0031163161570192527,23.093529741778863
79.0,0.005296317054996681,0.2389113581160644,0.0023963633189792396,24.093529645625033
80.0,0.004812511087586041,0.22013861166717807,0.0018432923244519896,25.0935295494712
81.0,0.004389984262299406,0.20285732351992544,0.001418532398116229,26.09352945331737
82.0,0.004020545937027779,0.18695315143086963,0.0010923477860505268,27.09352935716354
83.0,0.0036971471876295152,0.17231974657356772,0.0008418437819061529,28.093529261009706
84.0,0.0034137290433592393,0.15885829969566762,0.0006494150067253956,29.093529164855877
85.0,0.0031650880643751644,0.1464771018448326,0.0005015385071278517,30.093529068702047
86.0,0.00294675761381074,0.13509111412941055,0.0003878349776179413,31.093528972548214
87.0,0.0027549048089233435,0.12462155625053656,0.000300343771703684,32.09352887639438
88.0,0.0025862410397686267,0.11499551218211562,0.00023296282453702115,33.09352878024054
89.0,0.0024379444550215756,0.1061455485275908,0.00018101583174423273,34.093528684086714
90.0,0.002307489982081874,0.09800945809203794,0.00014291642282983854,35.03077350559706
91.0,0.002191682217693656,0.09053094411652332,0.00013965506245011558,35.03328595361823
92.0,0.002090436118898679,0.08365523911624254,0.00013726513711645333,35.03328595361823
93.0,0.0020020817831580737,0.07733347224007654,0.0001356321736779361,35.03328595361823
94.0,0.001925202699162856,0.07152058984526849,0.00013473310645430804,35.03328595361823
95.0,0.0018585951413108304,0.06617510555211473,0.0001345552464837251,35.03328595361823
96.0,0.0018012418990418168,0.06125880100960883,0.00013509608680633986,35.03328595361823
97.0,0.001752277310047351,0.05673654743702923,0.00013636325022092552,35.03328595361823
98.0,0.0017109660881310584,0.05257604117710885,0.00013837459489356247,35.03328595361823
99.0,0.0016766884678294375,0.04874757833131404,0.00014115859929876923,35.03328595363546
100.0,0.001421006164708758,0.04546748776555764,0.10286152056274993,9.615515840417586
101.0,0.0014058563733942073,0.04224946853425579,0.10562373999215388,9.615515832734488
102.0,0.001395208818368053,0.03928596683285652,0.10857573002078609,9.615515832734488
103.0,0.0013888706014852383,0.03655625627671219,0.11172330237302312,9.615515832734488
104.0,0.0013866911701286872,0.034041300089228586,0.11507240137166427,9.615515832734488
105.0,0.0013885572314030364,0.031723627197462155,0.11862907172233303,9.615515832734488
106.0,0.0013943881620991153,0.029587218825867602,0.12239942345236055,9.615515832734488
107.0,0.0014041312118628986,0.027617392650348255,0.12638959377267947,9.615515832734488
108.0,0.0014177598827973803,0.025800693992674407,0.13060570582659603,9.615515832734488
109.0,0.0014352736793743653,0.024124793966998164,0.13505382371483632,9.615515832734488
110.0,0.0014565039506342502,0.022578604835985266,0.13973990394490882,9.615515832734488
111.0,0.0014816602714472023,0.02115164213961498,0.14466974746674588,9.615515832734488
112.0,0.001510843699339099,0.01983441226395613,0.14984894729242065,9.615515832734488
113.0,0.0015441462408248474,0.01861825541304499,0.1552828341213559,9.615515832734488
114.0,0.0015816828693818324,0.017495249555343033,0.16097642053294897,9.615515832734488
115.0,0.0016235921816246943,0.016458149920731628,0.16693434331823662,9.615515832734488
116.0,0.0016700376565478873,0.015500333999385532,0.17316080392992927,9.615515832734488
117.0,0.001721205705118896,0.014615753397761232,0.17965951155596702,9.615515832734488
118.0,0.0017773046243593847,0.013798887735999557,0.18643362871252375,9.615515832734488
119.0,0.0018385709050367013,0.013044698870349786,0.193485708892706,9.615515832734488
120.0,0.0019052683596626396,0.012348594456645951,0.20081764275266245,9.615515832734488
121.0,0.00197769072623009,0.011706392289586589,0.20843060472663122,9.615515832734488
122.0,0.002056166102983067,0.011114286978773981,0.21632500101784435,9.615515832734488
123.0,0.002141054573788963,0.010568824767266359,0.22450042658088637,9.615515832734488
124.0,0.0022327569307601177,0.010066873524445505,0.23295561985307647,9.615515832734488
125.0,0.0023317179256004896,0.00960559993469843,0.24168842530237322,9.615515832734488
126.0,0.0024384312787834963,0.009182448034736253,0.250695762045064,9.615515832734488
127.0,0.002553448836197468,0.008795118502149642,0.25997359572058226,9.615515832734488
128.0,0.002677378461512563,0.008441555624764924,0.26951692733399635,9.615515832734488
129.0,0.0028109022073037992,0.00811992740442628,0.27931977431553684,9.615515832734488
130.0,0.002954782636442414,0.00782861357887113,0.28937516880331643,9.615515832734488
131.0,0.0031098736463489856,0.007566193857336206,0.2996751619767915,9.615515832734488
132.0,0.0032771329039793817,0.007331437816792018,0.31021083626119067,9.615515832734488
133.0,0.0034576358007655833,0.007123296486967672,0.3209723257359829,9.615515832734488
134.0,0.0036525910431780204,0.006940895569153993,0.3319488447167567,9.615515832734488
135.0,0.00386335792009812,0.006783530304709358,0.3431287243661987,9.615515832734488
136.0,0.004091465266733611,0.0066506620301851746,0.3544994570766391,9.615515832734488
137.0,0.004338632141863183,0.006541916447470729,0.3660477482562362,9.615515832734488
138.0,0.00460678954602848,0.006457084017216132,0.37775957502164487,9.615515832734486
139.0,0.004899290147379138,0.0063948744852429995,0.38938077458528636,9.620918222671762
140.0,0.005221557343525388,0.006351829396238839,0.4003209251488317,9.64473661213643
141.0,0.00557640728161686,0.006327114867404888,0.41057938193043264,9.68682090634227
142.0,0.005966790414649258,0.0063199652064032785,0.42016244149624105,9.747019525407737
143.0,0.0063957719350092685,0.0063296782854694875,0.42908275907412763,9.825170294617953
144.0,0.0068665054109844584,0.0063556125558571815,0.4373582885006911,9.92110278387951
145.0,0.007382204572298766,0.006397183905397272,0.4450113427968563,10.034638741211532
146.0,0.007946103211523343,0.006453863364946404,0.4520676987532098,10.16559253331693
147.0,0.008561414198625146,0.006525173731012023,0.4585557640762331,10.31377160996585
148.0,0.009231291195953615,0.006610685100014068,0.4645058328185528,10.478976942019818
149.0,0.00995866208850701,0.006710114306031299,0.46995888469586655,10.660767192219062
150.0,0.010743383975596767,0.006826536345704092,0.47524438960736665,10.851357922008262
151.0,0.011587046161826967,0.0069621234504793775,0.4805360310450936,11.046463821677527
152.0,0.012493080030867803,0.00711735691602686,0.4858319311132518,11.24611656857704
153.0,0.013464852861576594,0.007292742611191108,0.491129247778297,11.45037129998121
154.0,0.014505593696735306,0.0074888137384269415,0.49642517005173104,11.659281965301693
155.0,0.015618326707661159,0.007706122956155494,0.501716922642421,11.87290120603851
156.0,0.016805792619368487,0.00794523453936698,0.5070017712978907,12.091280264722696
157.0,0.018070359507753347,0.008206716491524242,0.5122770282773628,12.314468892172762
158.0,0.019413924310317427,0.008491131643959733,0.5175400575546909,12.54251521595268
159.0,0.020837845732995193,0.008799026139635928,0.5227882755315791,12.77546554403352
160.0,0.022342906390403355,0.009130924941069622,0.528019152221065,13.0133644645804
161.0,0.02392893518357246,0.0094873223751677,0.5332302407860343,13.25625466058361
162.0,0.02559522636914928,0.009868664747127442,0.5384191322220468,13.504176517541374
163.0,0.02733987711079651,0.010275365915608316,0.5435835162787545,13.757168718497725
164.0,0.029160094173501898,0.010707933493312593,0.5487211330146856,14.015267246428966
165.0,0.031051940567014404,0.011166968256581547,0.553829802927176,14.27850586664409
166.0,0.03301045474380051,0.011653053543661451,0.5589074263938736,14.546915972981758
167.0,0.03502959771146155,0.012166735187934473,0.563951990148648,14.820526416129459
168.0,0.03710242266997248,0.01270851149584111,0.5689615549412957,15.099363341544347
169.0,0.03922097594460793,0.013278827441050061,0.5739342686187736,15.383450211723504
170.0,0.041376376649884195,0.013878065842819377,0.5788683647990955,15.672807705893376
171.0,0.04355888736496842,0.014506539131656775,0.5837621638761775,15.967453636314566
172.0,0.045757999359628425,0.015164481710358741,0.5886140744041779,16.267402881882056
173.0,0.04796254421718709,0.015852042145573658,0.5934225937954236,16.572667307028553
174.0,0.0501608324760717,0.016569276364363023,0.5981863075400863,16.883255689274087
175.0,0.052340789997531105,0.017316142115447603,0.6029038898810286,17.19917367838664
176.0,0.05449011247490886,0.018092493575970706,0.6075741036729428,17.520423744611364
177.0,0.05659642819708147,0.018898077241916368,0.6121957999952254,17.847005131998152
178.0,0.05864746586664582,0.019732528777906475,0.6167679175423568,18.178913817187997
179.0,0.060631222971483996,0.02059537005900232,0.6212894824355057,18.516142480214132
180.0,0.06253613884840999,0.021486008676503788,0.6257596066064262,18.85868044949106
181.0,0.0643512534068551,0.022403737408067885,0.6301774861113767,19.206513683868966
182.0,0.06606635088538192,0.023347735976932883,0.6345424000369744,19.559624764057688
183.0,0.0676720903778373,0.0243170743887055,0.6388537087294468,19.917992879213006
184.0,0.06916012302389087,0.025310720263262816,0.6431108515490345,20.281593782978316
185.0,0.07052315757016384,0.02632754971849816,0.6473133463944131,20.65039991306783
186.0,0.07175508695260384,0.027366349880351443,0.6514607895891502,21.02438024637534
187.0,0.07285101778582606,0.02842582789762889,0.655552847785386,21.403500255520857
188.0,0.07380720039077605,0.02950462183623148,0.6595892551181413,21.787722255303475
189.0,0.07462126350091237,0.03060129682468042,0.6635698290502511,22.17700503882072
190.0,0.07529191708660883,0.03171436684544346,0.6674944334427814,22.571303991068955
191.0,0.0758191453557402,0.032842291686211784,0.671363018418151,22.970571527481212
192.0,0.07620401589477682,0.03398349219990438,0.6751755750761651,23.374756200973025
193.0,0.07644863025410477,0.03513635625296774,0.678932168703188,23.783804023874914
194.0,0.07655612932245164,0.036299247024323904,0.6826329111223014,24.197656950297006
195.0,0.07653041562857023,0.03747051323889729,0.6862779714811059,24.61625464208265
196.0,0.07637629491765217,0.03864849626801048,0.6898675719865113,25.039532757751
197.0,0.07609910105326742,0.039831538032878894,0.6934019753460414,25.46742461385989
198.0,0.07570484864791112,0.04101799134231561,0.6968815021395143,25.899859897364024
199.0,0.07519990443970342,0.042206223222922716,0.700306503418228,26.33676570950044
200.0,0.07459103201455632,0.043394625643570196,0.7036773784540974,26.778066016622258
201.0,0.07388522312711225,0.044581621796163144,0.7069945601171576,27.223681751720687
202.0,0.0730896187134669,0.04576566804498144,0.710258516274541,27.673531275066008
203.0,0.07221142945526128,0.046945265789683804,0.713469751505416,28.127529988360706
204.0,0.07125784531231498,0.0481189622090979,0.7166287955512527,28.58559048547916
205.0,0.0702359832719084,0.04928535284081019,0.7197362081759662,29.0476229082478
206.0,0.0691528012399275,0.05044309297180301,0.7227925754124492,29.513534491071958
207.0,0.06801507398935158,0.05159089217931175,0.7257985028464412,29.983229958790833
208.0,0.06682933859544188,0.0527275206704019,0.7287546201269556,30.456611624158057
209.0,0.06560184016179298,0.05385181568017711,0.7316615743704453,30.933579022788198
210.0,0.06433900061957984,0.054962222309851254,0.7345181895599902,31.414173940359735
211.0,0.06365329100349844,0.05544989489026966,0.7348745527345416,32.093748288964534
212.0,0.06390377553785574,0.054953800037374226,0.731326146718857,33.09217348877623
213.0,0.06410335161741908,0.05446619554130011,0.727889651671707,34.092173350909974
214.0,0.06425446132195502,0.053991422359838295,0.7245778830535339,35.092173121625045
215.0,0.06436357961380731,0.05352894409897372,0.7213842584161625,36.092172892340116
216.0,0.06443642034859669,0.05307824770886905,0.718302556029336,37.09217266305517
217.0,0.06447797387920078,0.052638843527122434,0.7153269131763899,38.09217243377024
218.0,0.06449261876527264,0.05221026303566671,0.7124517886624984,39.0921722044853
219.0,0.06448420817562218,0.05179205698885862,0.7096719303011341,40.09217197520038
220.0,0.0644560739407453,0.051383796725158234,0.7069823894375282,41.09217174591545
221.0,0.06441113503626165,0.05098507119986224,0.7043784758047226,42.09217151663052
222.0,0.06435194484341576,0.05059548589271505,0.7018557364730211,43.092171287345586
223.0,0.06428068513828164,0.05021466475134081,0.6994099824307063,44.09217105806064
224.0,0.06419929787912446,0.04984224430339939,0.6970372008555008,45.09217082877571
225.0,0.06410940846182339,0.04947787948144244,0.6947336353834603,46.09217059949077
226.0,0.06401246858537896,0.04912166395687243,0.6924956846754604,47.09217037020582
227.0,0.06382365190556713,0.04466198676588071,0.6903199375863307,48.09217014092089
228.0,0.06362794367036965,0.04012829399157117,0.688203157062982,49.09216991163593
229.0,0.06343740255722446,0.03605811233710048,0.68614226434098,50.09216968235096
230.0,0.0632517577621479,0.03240361438526977,0.6841343303926484,51.092169453066006
231.0,0.06307075150801518,0.029121958814574755,0.6821765670893316,52.09216922378104
232.0,0.06289413820560391,0.026174757440889686,0.6802663181272105,53.09216899449608
233.0,0.06272168373754591,0.02352764160135547,0.6784010512824936,54.09216876521111
234.0,0.0625531647517414,0.02114979987868753,0.6765783507689588,55.092168535926156
235.0,0.06238836797377354,0.01901361473236373,0.6747959098009992,56.09216830664119
236.0,0.06222708961604197,0.01709434565135905,0.6730515242027891,57.09216807735623
237.0,0.0620691347726498,0.01536979719892225,0.6713430858633558,58.09216784807126
238.0,0.06191431685543798,0.013820069653215502,0.6696685766367041,59.092167618786284
