Time,J,A,S,tau
0.0,100.0,10.0,0.9870519680714702,10.40796914238618
1.0,99.33402350535694,10.726598942454476,0.9871744778896488,11.258547075532983
2.0,98.69883199509624,11.419878321142384,0.9872914837022992,12.115229994776087
3.0,98.0919845038567,12.082177467842614,0.9874033608727972,12.977414956486092
4.0,97.51127508233182,12.715420184443541,0.9875104259478361,13.844765333189994
5.0,96.95468781643068,13.321434684172603,0.9876129817972578,14.716959682962438
6.0,96.4203777230115,13.901955607348532,0.9877113175554173,15.593691568996503
7.0,95.90664925496161,14.458629431951143,0.9878057091442369,16.474668798825807
8.0,95.41194180425416,14.993017443298202,0.9878964194945831,17.359613032525726
9.0,94.93481871693567,15.50659718340836,0.987983698559064,18.24825963115428
10.0,94.4739502494742,16.000769767804602,0.988067784302748,19.140356508200448
11.0,94.02810219448263,16.47686452943563,0.9881489033171522,20.035663412227137
12.0,93.59613045687186,16.936139602812066,0.9882272708014178,20.93395187613606
13.0,93.17697107477025,17.37978712195001,0.988303091330533,21.83500436446101
14.0,92.76962743261052,17.808941686287085,0.9883765601654126,22.73861288992534
15.0,92.37317173719985,18.224676896731655,0.9884478626367516,23.644579607558846
16.0,91.98673348396139,18.628014218766577,0.9885171755867578,24.55271531427682
17.0,91.60949159977874,19.019928961284474,0.9885846683144242,25.46283847119139
18.0,91.24067992972256,19.40134397216039,0.9886505015534227,26.374776220220323
19.0,90.87956790772517,19.7731476308132,0.9887148304264993,27.288361381594562
20.0,90.52547047445404,20.136183569934825,0.9887778027743754,28.203434134489342
21.0,90.17773429184722,20.491264168235368,0.9888395614092146,29.119839734562593
22.0,89.83574055394394,20.83916744430423,0.988900243607609,30.03742902102001
23.0,89.49889838829635,21.180644076568168,0.9889599823420027,30.956057173578102
24.0,89.1666433379134,21.516418841853003,0.9890189065044676,31.87558348474683
25.0,88.83843583477795,21.84719305580006,0.9890771414313196,32.795870833497
26.0,88.51375671573545,22.17364906747251,0.9891348095957181,33.71678498647302
27.0,88.19210675439935,22.496452045898877,0.9891920310573169,34.63819415020324
28.0,87.87300427549951,22.816252704855813,0.9892489238810279,35.55996854949185
29.0,87.55598293035551,23.133690827729435,0.9893056048462753,36.48197971884333
30.0,87.24059129881245,23.449396666149404,0.9893621896989487,37.404100251156486
31.0,86.92638978102757,23.76399494938704,0.9894187938907797,38.32620305754849
32.0,86.61295233961891,24.078106180213997,0.9894755329530014,39.24816100005616
33.0,86.29986053292802,24.39234991120875,0.9895325228405747,40.1698465371871
34.0,85.98670942707443,24.707348060630903,0.9895898810681127,41.09113060902382
35.0,85.67309911142107,25.023724281587025,0.9896477259561025,42.011883366860914
36.0,85.35864242275454,25.342112424761506,0.9897061790406477,42.93197179643153
37.0,85.04295669620878,25.66315090554211,0.989765363203415,43.8512615568827
38.0,84.72567109771391,25.98749469319983,0.989825405799425,44.76961388679445
39.0,84.40642056948867,26.315808784513756,0.9898864367336276,45.68688750201474
40.0,84.08485126439307,26.64877793886682,0.9899485909197604,46.602936157678
41.0,83.76061841813933,26.987106137701897,0.9900120078824295,47.51760903692094
42.0,83.43338811598417,27.331516906641518,0.9900768319486712,48.430750557874056
43.0,83.10284175586425,27.682765432596927,0.9901432148339445,49.34219779689424
44.0,82.76867125309916,28.041624261937713,0.9902113124451232,50.25178366378835
45.0,82.43059380426459,28.408910855780135,0.990281291030136,51.15933076636624
46.0,82.08833770549971,28.785459363642904,0.9903533207726446,52.064657790481085
47.0,81.74166944080301,29.172158588319398,0.9904275843789155,52.96757090496383
48.0,81.39037163114706,29.56991936824854,0.9905042695761282,53.86787125512099
49.0,81.03427780544708,29.979709492752963,0.9905835771526705,54.765346871316986
50.0,80.67325227003055,30.4025318106596,0.9906657157220344,55.65977790974957
51.0,80.3072197405113,30.83944135671585,0.9907509059140718,56.55093238408601
52.0,79.93616528894944,31.29154694186332,0.9908393802780896,57.438566218682084
53.0,79.56013823053809,31.760000230029284,0.9909313812939302,58.32242521746177
54.0,79.1792969026761,32.24602698373535,0.9910271678425204,59.20223836378113
55.0,78.79386347525119,32.750886606463865,0.9911270066245431,60.07772658460408
56.0,78.40423501879675,33.27592805941179,0.9912311841961382,60.94859012396447
57.0,78.01087958729758,33.822531409161556,0.9913399942012304,61.81452180981643
58.0,77.61450924991803,34.39216955365481,0.9914537509706943,62.67519244487219
59.0,77.21594492423313,34.98635481173955,0.991572777481995,63.53026355403309
60.0,76.8163036028296,35.606681412141846,0.9916974151076654,64.37937644384169
61.0,76.41690191564356,36.25479886122143,0.9918280170245288,65.22215925551727
62.0,76.01937467596227,36.932418729330735,0.9919649504858711,66.05822389560878
63.0,75.62571290076271,37.64132275786605,0.9921085974275017,66.88716485817257
64.0,75.23821492959515,38.38333340342944,0.9922593491296468,67.7085650299546
65.0,74.85975327308697,39.160347813406084,0.9924176120586106,68.52198725668227
66.0,74.49351060134366,39.974290101057186,0.9925837986430007,69.32698586525575
67.0,74.143379660348,40.827139838263776,0.9927583321484877,70.12309787178287
68.0,73.81373692980195,41.72090000494387,0.9929416403360648,70.90985125359393
69.0,73.50973268467006,42.657602857214876,0.9931341552667342,71.68676177791896
70.0,73.23717556893267,43.639287295347515,0.993336309192491,72.45333807566323
71.0,73.00267006615309,44.66799357061593,0.9935485321653642,73.20908191950909
72.0,72.81371488145217,45.74574294953843,0.9937712471410964,73.95349116645694
73.0,72.67861401292537,46.8745263317126,0.9940048674269236,74.6860625891545
74.0,72.60660523208269,48.056283979435406,0.9942497907896158,75.40629461720066
75.0,72.60780571595942,49.29288589405098,0.9945063951571778,76.11369076089129
76.0,72.69316308601744,50.58611401811542,0.99477503362827,76.8077628209814
77.0,72.87437132428579,51.93764226030265,0.995056029278322,77.4880342888405
78.0,73.16373123478533,53.34900874833365,0.9953496676664024,78.15404487554473
79.0,74.43527017317702,53.95359853039594,0.9954950848086409,77.68640258253156
80.0,76.52348332332811,53.89651472951185,0.9955170277862467,76.03390377375752
81.0,78.74019953291068,53.870569684098854,0.9955446064612518,73.95888863452704
82.0,81.09600862825786,53.873616354406316,0.995578828722766,71.37598779637412
83.0,83.60038697547964,53.904029192154574,0.995620543648322,68.20059578164715
84.0,86.26015200635894,53.96200923727261,0.9956700099338793,64.37782437754608
85.0,89.07722818042059,54.05159585169634,0.9957262144904929,59.93476227027743
86.0,92.04608598267944,54.18304843655836,0.9957862128579876,55.03662890988508
87.0,95.15185020633214,54.37457799412663,0.9958451595251565,49.9878503707475
88.0,98.37028224367155,54.652135724816446,0.9958974910735771,45.13445924445118
89.0,101.66942055161032,55.04732057969565,0.9959385798211937,40.7328016373424
90.0,105.0112751498774,55.59488519315317,0.9959656301262265,36.89395477147668
91.0,108.35207989252991,56.33122613510889,0.9959775263095612,33.61506568919373
92.0,111.64120945714542,57.293808238071,0.9959742127294344,30.836141515703115
93.0,114.81930099697567,58.52088009867962,0.9959561434110246,28.480388831828115
94.0,117.81587171764276,60.051292425453276,0.9959239269928131,26.474526618711636
95.0,120.54718982482505,61.92382523687978,0.9958781505637461,24.755707345125288
96.0,122.91476019644494,64.17603396286555,0.9958193041411729,23.2724702080361
97.0,124.80517247742526,66.8425303154301,0.9957477569580326,21.98346712299741
98.0,126.09232267314177,69.95265811813245,0.9956637572825595,20.85564723071954
99.0,126.65596015867195,73.51486558683816,0.9955674415706963,19.862552964460384
100.0,126.51874683112025,77.39028588621554,0.9954588461687292,18.98287575249338
101.0,125.6182108980196,81.53572132519541,0.9953379190210957,18.19934676555833
102.0,123.87518895634271,85.9434943601497,0.9952045298244612,17.49786455232472
103.0,121.24516582707584,90.59946469453872,0.9950584787335938,16.866805304773752
104.0,117.72416538262712,95.48430859220463,0.9948995032921136,16.296531862638997
105.0,113.34990969114791,100.57408427440052,0.9947272845202261,15.778986746967632
106.0,108.20039190004496,105.8377461247767,0.994541451749925,15.307386834677441
107.0,102.39065348399342,111.2315493617032,0.99434158548563,14.875984649996981
108.0,96.0685096104625,116.69147602094044,0.9941272214182892,14.47988670193576
109.0,89.41021207704198,122.12542182662176,0.9938978522975205,14.114899510055329
110.0,82.61747817215797,127.4066225938277,0.9936529302073148,13.777414665858847
111.0,75.91409060752704,132.37180139344056,0.9933918680706468,13.464313166288655
112.0,69.53817466043333,136.8282526732844,0.9931140409791417,13.172888202510071
113.0,63.721162271401674,140.5775564213197,0.9928187873876949,12.900782649144197
114.0,58.64985082782928,143.4574413272964,0.9925054100855956,12.645937423453944
115.0,54.44402677856931,145.36766293241902,0.9921731770734283,12.40654867276371
116.0,51.14165624875079,146.28707909486744,0.9918213224658785,12.181032746967666
117.0,48.69756815707561,146.27591135688493,0.9914490472888919,11.967995724626833
118.0,46.998096896822545,145.46112392184614,0.99105552031612,11.766208611455395
119.0,45.88844369207898,144.0087369700751,0.9906398789058964,11.574586054596804
120.0,45.2044462244418,142.0918087596881,0.990201230024821,11.392168139949858
121.0,44.7995895183589,139.86346991441414,0.9897386512639806,11.21810482957529
122.0,44.5607726393428,137.44149604417598,0.9892511919946442,11.051642565386322
123.0,44.41144977512029,134.90567254778242,0.9887378746452872,10.892112642666214
124.0,44.30574214911139,132.3041941231135,0.9881976961505361,10.73892130986539
125.0,44.21885654941387,129.66365843175538,0.9876296295792528,10.59154069539567
126.0,44.13850214681671,126.99792044443922,0.9870326258496557,10.449501576475559
127.0,44.058843513506645,124.31429779262498,0.9864056157268184,10.31238650084691
128.0,43.977114053028274,121.61703570725822,0.985747512034037,10.17982293977199
129.0,43.89197977352851,118.90898184162708,0.985057212720048,10.051480498121437
130.0,43.802676484860356,116.1924666871369,0.9843336010220172,9.927064255023513
131.0,43.70872768844493,113.46958475039425,0.9835755542377643,9.806310960578754
132.0,43.60976346394303,110.74238413465405,0.9827819377409783,9.688985694872596
133.0,43.505474612760715,108.01290996389906,0.9819516199791233,9.57488059833904
134.0,43.3955683529741,105.28323026093624,0.9810834618389088,9.46380534509632
135.0,43.27976430302512,102.555474609217,0.9801763388110085,9.355597631960991
136.0,43.15778317979198,99.83178362871227,0.9792291243805981,9.250102836175413
137.0,43.02934389485152,97.11436611960816,0.978240714364761,9.147191093246363
138.0,42.89416352906403,94.40545582892801,0.9772100180817412,9.046740477672401
139.0,42.75195594504507,91.70730754524321,0.9761359654821314,8.948643489465677
140.0,42.60243071887386,89.02223057901833,0.9750175267930691,8.85280493154174
141.0,42.44529648506992,86.35251324501738,0.973853684920379,8.759135529403652
142.0,42.280258064394836,83.70049005493534,0.9726434917653737,8.667559449642368
143.0,42.107019850109985,81.06848497930861,0.9713860155766771,8.578004013237763
144.0,41.92528649180997,78.45880095243325,0.9700804004652659,8.490406433716512
145.0,41.734762284890444,75.87377307736057,0.9687258403870053,8.404708555667906
146.0,41.535155233343595,73.31564980136717,0.9673215842628403,8.320857121857388
147.0,41.32617689869341,70.78671597004418,0.9658669853418709,8.238805205810984
148.0,41.10754247370514,68.28917063110913,0.9643614269539954,8.158507764126751
149.0,40.87897898194157,65.82517263262427,0.9628044357040487,8.079925649786237
150.0,40.64021719986172,63.39686960810892,0.9611955831914639,8.003021328953734
151.0,40.39100643837981,61.00624972261623,0.9595345680499333,7.9277609008566134
152.0,40.13110897243961,58.65534778165369,0.9578212008624919,7.854113075114362
153.0,39.86030456122977,56.34599905944557,0.9560553678233817,7.78204808611622
154.0,39.57841254129021,54.08003221425416,0.9542371436807628,7.711539220902972
155.0,39.28526441263953,51.8591658302076,0.9523666501083469,7.642560453184514
156.0,38.98077379232213,49.68494621083909,0.9504442183678405,7.57508815210633
157.0,38.66488964262746,47.55895240067955,0.9484702718510853,7.509099640107952
158.0,38.33767375837072,45.482460503881995,0.9464453867864339,7.444573480039329
159.0,37.99935360327935,43.456819974643935,0.9443703296668314,7.381489654320832
160.0,37.65024846088547,41.483110774735124,0.9422459448882925,7.319828609136477
161.0,37.29116111880547,39.562359411107394,0.9400733389232315,7.259572219048693
162.0,36.923077924013,37.69555232226926,0.9378536985584158,7.2007027477800065
163.0,36.54769916064481,35.88341134977158,0.9355884236869908,7.143203332252859
164.0,36.16735306969436,34.126653891066404,0.9332790615690526,7.087057677902195
165.0,35.78547361121504,32.42592151549519,0.9309273508377345,7.032250127176852
166.0,35.40671194861908,30.781820307069008,0.9285351947409123,6.978765515658003
167.0,35.03729340283114,29.19500083700976,0.9261046732337229,6.926589168713407
168.0,34.68531921141207,27.66626087409161,0.9236380429089884,6.875706861629599
169.0,34.360926575999194,26.196633738224428,0.9211377330868691,6.826104775808902
170.0,34.07637057346433,24.78758974493074,0.9186063456532485,6.7777694773198185
171.0,33.845830779561894,23.441252378077536,0.9160466524484041,6.730687891945937
172.0,33.68481061145788,22.16064363725232,0.913461590105348,6.684847281069593
173.0,33.60913848704871,20.95000657807981,0.9108542573836786,6.640235228121145
174.0,33.63335567358044,19.815118546859114,0.9082279093617326,6.596839622634065
175.0,33.76853255068629,18.763579591764145,0.9055859512575671,6.554648647799554
176.0,34.01960146836937,17.805017392955623,0.9029319316720109,6.513650770582455
177.0,34.382508816777815,16.951103879057445,0.9002695343329108,6.473834732296985
178.0,34.84159147976533,16.215312910165796,0.8976025698102498,6.43518954222223
179.0,35.36787444521085,15.612296427404273,0.8949349664968294,6.3977044726058265
180.0,35.91911126364132,15.15677993332939,0.8922707604891502,6.361369053789838
181.0,36.44187985322651,14.861909077391406,0.8896140843712893,6.326173069838789
182.0,36.87625523475206,14.737128120924261,0.886969156677057,6.29210655726425
183.0,37.16242288900539,14.78573651248469,0.8843402694388582,6.25915980184554
184.0,37.248613812285114,15.002506924744218,0.881731776139106,6.227323337675744
185.0,37.098774999467146,15.371851599368826,0.8791480787199573,6.1965879463041444
186.0,36.69858963712883,15.867196019367762,0.8765936144443298,6.166944655494835
187.0,36.05828750433951,16.45189888080411,0.8740728423280286,6.138384739641088
188.0,35.21151568164553,17.081980473279142,0.871590229433973,6.110899719377955
189.0,34.21032227142791,17.71032852036186,0.8691502369226414,6.084481361794318
190.0,33.117450273636365,18.291774439579026,0.8667573060218927,6.059121680738572
191.0,31.997645207944316,18.788172038197576,0.8644158439645112,6.034812937228021
192.0,30.909738830744757,19.172534395760522,0.8621302099624815,6.0115476399274135
193.0,29.900900739165635,19.431388104550326,0.8599047013265326,5.989318545612711
194.0,29.00365814621335,19.56493203930625,0.8577435395300176,5.968118660074599
195.0,28.2357607884522,19.585059074632735,0.8556508571023211,5.9479412377445575
196.0,27.601757729833704,19.51212867825673,0.8536306835684456,5.928779783616894
197.0,27.095772181040125,19.371244122002558,0.8516869337739847,5.910628051670447
198.0,26.704077200270742,19.18898739233222,0.8498233942867921,5.89348004759544
199.0,26.40744994597364,18.990874421215636,0.8480437122865703,5.877330027016701
200.0,26.18308766543691,18.79961345924023,0.8463513831118615,5.862172497420843
201.0,26.006284928581785,18.634042155149096,0.8447497403086562,5.848002216925225
202.0,25.8520118906394,18.50849137619509,0.8432419441728617,5.834814199818573
203.0,25.696463768008364,18.432497634948096,0.8418309469361461,5.822604713303564
204.0,25.51691539089526,18.412218727342765,0.8405443515538538,5.8103487876681505
205.0,25.29961422218765,18.44451687538877,0.8393314774356614,5.800242533807368
206.0,25.033486242191053,18.525010823721857,0.8381927966807541,5.792319796215096
207.0,24.712833952564342,18.646096868694187,0.8371338378018789,5.786407924351418
208.0,24.337540311815026,18.797580157116585,0.836160155223597,5.782336052895436
209.0,23.913303877052503,18.966962658680714,0.8352658709810392,5.780383144856424
210.0,23.449568469192744,19.142015122803464,0.8344574367214935,5.780335190955409
211.0,22.954658369824145,19.314244023357787,0.833783828308005,5.7803351983193085
212.0,22.44086937720204,19.473709567822716,0.8332479515750533,5.7803351983193085
213.0,21.92067851283577,19.612487162996963,0.832851142223974,5.7803351983193085
214.0,21.40548784645354,19.725159087963377,0.8325943900986162,5.7803351983193085
215.0,20.904670706799784,19.809024251845415,0.8324783359411662,5.7803351983193085
216.0,20.424979282062747,19.863974555082116,0.8325032687673464,5.7803351983193085
217.0,19.971007171868262,19.891536564623454,0.8326691250805545,5.7803351983193085
218.0,19.544925432663867,19.89477819389968,0.8329754858418138,5.7803351983193085
219.0,19.146664924861184,19.87788769664419,0.8334215837811244,5.7803351983193085
220.0,18.774295610685993,19.84564031332168,0.8340063033685697,5.7803351982874664
221.0,18.42450778982298,19.80289025068571,0.8347281846515431,5.780335195535233
222.0,18.094118558913454,19.753150176867294,0.8355686442335467,5.780971206807184
223.0,17.781551729249546,19.698034341787192,0.8364835423911556,5.783847517804758
224.0,17.482000836805398,19.64149436329672,0.8374827838416646,5.788517597083289
225.0,17.191685635363896,19.585758287436708,0.8385624838993359,5.7950544573805844
226.0,16.907559465946985,19.532020749723387,0.8397165656847511,5.803613584371073
227.0,16.627346529739462,19.480628367754576,0.8409390034297348,5.814349134752821
228.0,16.347900028002627,19.432822926907438,0.8422511074050357,5.826349438182993
229.0,16.066089703453418,19.389487024419164,0.843673517113381,5.838700173492051
230.0,15.781863748640875,19.34884172170248,0.8451880782061129,5.851989958504675
231.0,15.49513897817728,19.309645712018693,0.8467915458707868,5.866222988487236
232.0,15.206333992755754,19.27057084174686,0.8484805937283078,5.8814012891957
233.0,14.916252628545625,19.23035192678687,0.8502517403207773,5.897527097708021
234.0,14.626086043014604,19.187745195668363,0.8521013781488019,5.914602849591189
235.0,14.337508666270896,19.141404165727856,0.854025783828114,5.932631158957715
236.0,14.0521852165035,19.090357188633664,0.8560211170167293,5.951614843847665
237.0,13.77171691093814,19.033963456819578,0.8580834485132915,5.971556902766527
238.0,13.497540767233339,18.97188147680997,0.8602087651505628,5.99246050735944
239.0,13.230894848405033,18.90407890534148,0.8623929792518343,6.014329023015647
240.0,12.97282161538952,18.830759559236352,0.8646319500772239,6.0371659791779955
241.0,12.72406257085593,18.752374517321257,0.8669214898295015,6.060975073482948
242.0,12.485080643607835,18.669593358866916,0.8692573782543802,6.08576018862987
243.0,12.256121614884238,18.583201799926822,0.871635377189018,6.111525341944351
244.0,12.03717912056522,18.494081218542668,0.8740512430887398,6.1382747463720655
245.0,11.828131753209144,18.4031383275214,0.8765007351821137,6.166012732187043
246.0,11.628707758891764,18.311275174926983,0.8789796388305336,6.194743821435291
247.0,11.438573141800042,18.219365727535315,0.8814837599784959,6.22447265043031
248.0,11.257359871619759,18.128208271733516,0.8840089611261152,6.2552040342833415
249.0,11.084687650585543,18.038537311914034,0.8865511432860602,6.286942902778779
250.0,10.920234734600413,17.950986444432782,0.8891062909277937,6.319694352260509
251.0,10.763695919637353,17.866114486793418,0.8916704456484016,6.353463594966617
