Time,J,A,S,tau
0.0,100.0,10.0,0.5892311772907465,92.7557316411963
1.0,99.95188945930283,8.979741686942907,0.5889516031422699,93.75515003379611
2.0,99.9042143432537,8.063471911308037,0.5886743802942721,94.75490512666582
3.0,99.85689447221333,7.240852927519394,0.5883991589272155,95.75466607292142
4.0,99.80988928023041,6.502285412671048,0.5881257120287996,96.75443208590409
5.0,99.76315892446569,5.839163086572577,0.5878538161780129,97.75420242146133
6.0,99.7166641939173,5.243762228224157,0.5875832511088878,98.75397637134571
7.0,99.67036641854023,4.709150653009194,0.5873137992709375,99.75375325696893
8.0,99.62422738392496,4.22911240945648,0.5870452454132485,100.75353242372569
9.0,99.57820924559368,3.7980664374297706,0.5867773761633331,101.75331323549904
10.0,99.53227444495248,3.411004067376663,0.5865099796116066,102.75309506942196
11.0,99.4863856276938,3.0634329131342417,0.5862428449065455,103.75287731086019
12.0,99.4405055616015,2.7513182172733592,0.5859757618455852,104.75265934843304
13.0,99.39459705586505,2.471039482891765,0.5857085204731793,105.75244056912885
14.0,99.34862288014814,2.2193480709193767,0.5854409106780817,106.75222035335094
15.0,99.3025456839245,1.9933259139021948,0.5851727217926286,107.75199806992548
16.0,99.25632791559579,1.790354932817475,0.5849037421926838,108.75177307095502
17.0,99.2099317398866,1.6080846929728363,0.5846337588914388,109.75154468638135
18.0,99.16331895628251,1.444404117018602,0.5843625571411608,110.75131221841615
19.0,99.11645091440073,1.2974192190806222,0.5840899200238185,111.75107493547637
20.0,99.06928842776247,1.1654288824200323,0.583815628038546,112.75083206567811
21.0,99.0217916881735,1.0469054845376229,0.5835394586974059,113.75058278999653
22.0,98.97392017387295,0.9404783964036381,0.5832611860976228,114.75032623450248
23.0,98.92563255757877,0.8449162187853204,0.5829805805009965,115.75006146205237
24.0,98.87688661282667,0.7591134044316735,0.5826974079136967,116.74978746324716
25.0,98.82763911144256,0.6820778545348735,0.5824114296343822,117.74950314595827
26.0,98.77784572302073,0.6129181817019764,0.5821224018235609,118.74920732419028
27.0,98.72746090820783,0.5508343671827383,0.5818300750569788,119.74889870551259
28.0,98.67643780202603,0.4951083100383374,0.5815341938488602,120.74857587650126
29.0,98.62472810041793,0.44509494186216025,0.5812344962073526,121.74823728724813
30.0,98.57228193424913,0.4002155600079645,0.5809307131526722,122.74788123331965
31.0,98.51904773464314,0.3599506305201083,0.580622568220378,123.7475058351831
32.0,98.4649720998049,0.32383372147335404,0.5803097769965888,124.74710901600054
33.0,98.40999964231047,0.2914466078330351,0.5799920465976941,125.74668847526351
34.0,98.35407283083406,0.2624139205203515,0.5796690751614059,126.7462416593243
35.0,98.29713182772686,0.23639899180815555,0.5793405513570911,127.7457657288501
36.0,98.2391143000924,0.21310021734761947,0.5790061538312348,128.74525751988722
37.0,98.17995522925477,0.19224717290469037,0.5786655506971573,129.7447135011167
38.0,98.11958670552339,0.17359775789652232,0.5783183990200531,130.74412972534208
39.0,98.0579376906377,0.15693546654065682,0.5779643442440218,131.7435017716674
40.0,97.99493378117889,0.14206665414962621,0.5776030196948889,132.74282468266898
41.0,97.93049694093317,0.12881857039440117,0.5772340460482359,133.74209289112292
42.0,97.86454519811784,0.11703730474069758,0.5768570307709859,134.7413001339601
43.0,97.79699234022624,0.1065859486941424,0.5764715676564431,135.74043935851304
44.0,97.72774755730852,0.09734322298737026,0.5760772363049872,136.73950261111375
45.0,97.65671504528251,0.08920199311082078,0.5756736016200988,137.7384809078287
46.0,97.58379360768572,0.08206812990741912,0.5752602134369738,138.73736409494092
47.0,97.50887614446826,0.07585952390592639,0.574836606006308,139.73614067250955
48.0,97.43184917863255,0.07050505416246342,0.5744022977559814,140.73479761354506
49.0,97.35259221416396,0.06594406249076037,0.5739567908436413,141.7333201274809
50.0,97.27097715809593,0.062125578138409104,0.5734995710791836,142.73169142341987
51.0,97.18686752080124,0.059007883240223255,0.5730301076271871,143.72989239596512
52.0,97.10011765327948,0.05655823605649906,0.572547853068196,144.72790130007837
53.0,97.01057182604504,0.05475252889356526,0.5720522434673022,145.72569335816257
54.0,96.91806321394995,0.05357515291427919,0.5715426986230939,146.7232403136443
55.0,96.82241258580264,0.05301968693179204,0.5710186223137341,147.72050986002097
56.0,96.72342725120531,0.05308788732355739,0.5704794032570073,148.71746512332027
57.0,96.62089938434656,0.05379080265495086,0.5699244157636423,149.7140639041993
58.0,96.51460434475042,0.05514924420300667,0.569353020968461,150.71025787357863
59.0,96.40429893140563,0.05719379394801678,0.5687645684687451,151.70599170672412
60.0,96.28971894954122,0.05996628143142391,0.5681583981323894,152.70120191210944
61.0,96.17057689457295,0.06352058272930697,0.5675338426175761,153.69581565204268
62.0,96.04655915616718,0.06792360862456459,0.5668902303392266,154.68974932136175
63.0,95.91732257999519,0.07325714622350261,0.5662268890974561,155.6829067982485
64.0,95.78249105462142,0.07961940014620027,0.5655431504490988,156.67517764169983
65.0,95.64165105289672,0.08712713942019913,0.5648383549993437,157.66643476487704
66.0,95.4943470670139,0.09591793556491955,0.5641118585788978,158.65653198424263
67.0,95.34007592425905,0.10615329021538562,0.5633630397059857,159.64530097924876
68.0,95.17828061539338,0.11802164410434705,0.5625913082718913,160.63254793096354
69.0,95.00834323836968,0.13174219688020763,0.561796115664752,161.6180496509334
70.0,94.82957668686547,0.14756942583160126,0.5609769668040507,162.60154899711253
71.0,94.64121548739426,0.1657977612351425,0.5601334339207995,163.5827497548684
72.0,94.44240540377103,0.1867673113161797,0.5592651724196335,164.56131078778378
73.0,94.23219125073449,0.21087057806747742,0.5583719395666809,165.53683914600066
74.0,94.00950352951418,0.2385593030561235,0.557453615531815,166.5088824203568
75.0,93.77314339510455,0.27035274210269183,0.5565102272890851,167.4769200821298
76.0,93.52176518172459,0.3068472638644691,0.5555419764651008,168.44035336368395
77.0,93.25385744506538,0.34872589572710033,0.5545492701233986,169.39849415664622
78.0,92.96772193738605,0.3967696925326926,0.5535327551326276,170.35055260919123
79.0,92.66144951101138,0.4518706893703887,0.5524933575851059,171.29562282907025
80.0,92.33289448561125,0.5150442351164468,0.5514323253173138,172.2326674935367
81.0,91.97964688306851,0.5874433727140971,0.5503512741894961,173.16050103629138
82.0,91.59900136542662,0.6703747032627608,0.5492522398555117,174.07777070274918
83.0,91.18792535657097,0.7653122395706808,0.5481377315066736,174.98293682486846
84.0,90.74302593737447,0.8739129653572965,0.5470107879246179,175.8742520957329
85.0,90.2605144328502,0.9980328516188183,0.5458750374397934,176.74973915841278
86.0,89.7361726252157,1.1397379361488342,0.5447347558405822,177.60716873746125
87.0,89.16532069526266,1.3013155776975092,0.5435949216973912,178.4440384149838
88.0,88.542786361408,1.4852833903386387,0.5424612697900363,179.25755167360683
89.0,87.86288106415957,1.6943880029443221,0.5413403334485646,180.04460064173455
90.0,87.11938408228409,1.931600755502953,0.5402394739452054,180.8017531623687
91.0,86.30553511615481,2.2001060041392577,0.539166895868637,181.52524444644723
92.0,85.41404286055904,2.5032718027738774,0.5381316364337755,182.21097789052644
93.0,84.4371108308355,2.8446133565995284,0.5371435262226874,182.85453598884806
94.0,83.36648193073474,3.227743024019357,0.5362131187468216,183.45120218562903
95.0,82.19350879515936,3.6562959747105097,0.5353515775440869,183.9959981392352
96.0,80.90924955341454,4.13384597874888,0.5345705210546385,184.48373639887296
97.0,79.98767159727304,4.799318297845445,0.5338818238153424,184.90908870427722
98.0,80.32764049725557,5.87404474837793,0.533297372382025,185.2666717144278
99.0,80.91856604528029,7.060132565360907,0.532828782387836,185.55114631148572
100.0,81.75444626612067,8.364617334577105,0.5324870823220786,185.75732977947325
101.0,82.8093489066139,9.793954949773486,0.5322823845480494,185.88031303044943
102.0,84.03362164330133,11.353825898667193,0.5322235379324657,185.9155838200073
103.0,85.352284652062,13.048960074330429,0.5323178099070736,185.8591398456049
104.0,86.6660762244262,14.882980903319126,0.5325706009993687,185.70758960255327
105.0,87.8559278419332,16.85827031676051,0.5329851863942578,185.45824167478912
106.0,88.79134578045627,18.975890414164105,0.533562555086448,185.10915898529726
107.0,89.34172848292707,21.235532257952546,0.5343012906895233,184.6591956098819
108.0,89.38920657397955,23.635527313666287,0.5351975613573865,184.10799420249472
109.0,88.84103438979666,26.172889213713486,0.5362451586534696,183.45596372686595
110.0,87.63869040210716,28.84341009389448,0.5374356356915444,182.70422219716875
111.0,85.76277983105506,31.641770979683486,0.5387584655515001,181.85453001777068
112.0,83.23140808361259,34.56169731516352,0.5402012865674218,180.9091948808108
113.0,80.09384900887325,37.59611490568029,0.5417501527606087,179.87097494819992
114.0,76.42073023271617,40.73731171404933,0.5433897969345629,178.7429787526161
115.0,72.2928967145997,43.9770974300993,0.5451038954891771,177.52856633953292
116.0,67.79130014378225,47.30695535414815,0.5468753274629393,176.231255484977
117.0,62.989667129318335,50.718176920206005,0.5486864101757412,174.85463863182852
118.0,57.95035043611016,54.20197774747967,0.5505191074464978,173.40231133893548
119.0,52.723154295191115,57.749596789220625,0.5523552134152451,171.87781203757018
120.0,47.346419148273036,61.35237460237019,0.554176507886428,170.28457487379194
121.0,41.84917648993371,65.00181320374404,0.5559648835463148,168.62589393644527
122.0,36.25359893857496,68.6896212433356,0.5577024511850763,166.9048968768212
123.0,30.577260685212384,72.40774395498035,0.5593716231038313,165.1245285442386
124.0,24.83487537025724,76.14837993577618,0.5609551776694519,163.2875425983601
125.0,19.039495787361567,79.90398913765848,0.5624363113626036,161.39649852102315
126.0,13.203280818758339,83.66729331126328,0.5637986803425103,159.4537635534784
127.0,7.337944804237261,87.43127132137997,0.5650264345068097,157.46151831557887
128.0,1.4550022514567416,91.18914764366008,0.5661042434549041,155.42176611454101
129.0,0.0,94.93438047293488,0.5670173224120967,153.3363429149568
130.0,0.0,98.66064855669524,0.5677514562750886,151.20692866701916
131.0,0.0,102.36183662032659,0.5682930226776853,149.03505948786156
132.0,0.0,106.03202184170085,0.5686290176778811,146.82213961611515
133.0,0.0,109.66545890228302,0.5687470781569699,144.569454132299
134.0,0.0,113.25656941171565,0.5686355140793202,142.27817980794092
135.0,0.0,116.7999305440517,0.5682833347652412,139.9493967656177
136.0,0.0,120.29026726856857,0.567680284879465,137.58409847095535
137.0,0.0,120.26097710949662,0.6175331218671909,47.54705585479819
138.0,0.0,118.24969468028713,0.6247863167746041,40.35496358754966
139.0,0.0,122.4947758342634,0.6247163671860781,37.11703021539326
140.0,0.0,126.60834434676508,0.6219825409607657,35.055592931263284
141.0,0.0,129.1378015264974,0.6178014880000361,33.56374391862343
142.0,0.0,129.7976832505048,0.612698298310924,32.406174144281245
143.0,0.0,128.87992896407593,0.6069553271384054,31.46688561747336
144.0,0.0,126.85979882420644,0.6007456964972885,30.680201138584724
145.0,0.0,124.1763630480575,0.5941853728692996,30.00543988968077
146.0,0.0,121.14982104678225,0.5873572724029456,29.415741699998556
147.0,0.0,117.98007252263395,0.5803237261182567,28.892511539837777
148.0,0.0,114.77757083485136,0.5731334757056603,28.42240371936803
149.0,0.0,111.59731686774154,0.5658258662979601,27.995565369798967
150.0,0.0,108.4643569437535,0.5584335178803318,27.604544996120445
151.0,0.0,105.3890940436388,0.5509840302974865,27.243610626122308
152.0,0.0,102.37549968204318,0.543501202138612,26.908274394930846
153.0,0.0,99.42489203628729,0.5360058504100642,26.594977607686115
154.0,0.0,96.53756048469145,0.5285163773866693,26.30087201564394
155.0,0.0,93.71340385523128,0.5210492251025963,26.02364914428141
156.0,0.0,90.95215485970382,0.5136192540976046,25.761410145563904
157.0,0.0,88.25347344101743,0.5062399085230794,25.51260375111877
158.0,0.0,85.61694798407765,0.4989233996651593,25.27594217225221
159.0,0.0,83.04213381448474,0.4916810194379106,25.05033192814227
160.0,0.0,80.52853885876316,0.48452296549393725,24.834880593263048
161.0,0.0,78.07562712648964,0.4774587875296559,24.628803081770467
162.0,0.0,75.68283434121034,0.4704971264030302,24.431456214562456
163.0,0.0,73.34953808753602,0.46364605410386717,24.242269064305933
164.0,0.0,71.0751096340238,0.45691292894103486,24.060764595357977
165.0,0.0,68.85885069015329,0.450304562260533,23.886519442739562
166.0,0.0,66.7000699415417,0.44382721014631005,23.71917083706707
167.0,0.0,64.59799962605376,0.43748658305130034,23.558398247202067
168.0,0.0,62.55190316575244,0.43128795283089766,23.403921665708364
169.0,0.0,60.56095302987561,0.42523609447973937,23.255490691811303
170.0,0.0,58.62435792230683,0.4193353771949813,23.11288532973226
171.0,0.0,56.741234438635196,0.4135897445883627,22.975905791301805
172.0,0.0,54.910761506769205,0.40800272428193274,22.844377993041444
173.0,0.0,53.13202077187928,0.4025775984558691,22.718136459960537
174.0,0.0,51.40411270252722,0.3973170893266946,22.59704099863738
175.0,0.0,49.72617995407569,0.39222381482364993,22.48095722160517
176.0,0.0,48.09721995341525,0.38729998103560487,22.36976275108579
177.0,0.0,46.51633327759399,0.3825474337037999,22.263349971340492
178.0,0.0,44.982596489188005,0.37796792571321003,22.16161398345688
179.0,0.0,43.4950065526773,0.37356279247034924,22.064461526371442
180.0,0.0,42.05261927393584,0.3693332254271187,21.97180451447316
181.0,0.0,40.6544422137234,0.3652801378599267,21.883562097426342
182.0,0.0,39.29952968928476,0.3614042843951644,21.79965819084317
183.0,0.0,37.986889964174374,0.3577062040695186,21.720022090307
184.0,0.0,36.71554583314875,0.35418627948149606,21.644587324402227
185.0,0.0,35.484530090568555,0.350844721301027,21.57329188045533
186.0,0.0,34.29286680782127,0.34768160542724097,21.506077286104997
187.0,0.0,33.139586893930954,0.34469687673774047,21.442888566728946
188.0,0.0,32.02373013825594,0.34189036157691877,21.383673969318284
189.0,0.0,30.944341362107444,0.3392617800353037,21.328384754129093
190.0,0.0,29.90047153966698,0.33681076281742545,21.276974865397317
191.0,0.0,28.89118123765184,0.33453685733926697,21.229400871776893
192.0,0.0,27.915541981723294,0.33243953966898293,21.18562176086727
193.0,0.0,26.972637150006147,0.33051822397085273,21.14559880678922
194.0,0.0,26.061564415292082,0.3287722707842617,21.109295443719066
195.0,0.0,25.181434502445217,0.32720099665415364,21.076677162088668
196.0,0.0,24.33137593546394,0.32580367993024784,21.04771140259561
197.0,0.0,23.510536113808417,0.3245795677406792,21.022367469768987
198.0,0.0,22.718083849205968,0.3235278815468876,21.00061645407655
199.0,0.0,21.95321162207382,0.3226478223582101,20.98243115457156
200.0,0.0,21.215138455548868,0.3219385749659414,20.967786020129477
201.0,0.0,20.50311341431152,0.32139931121696996,20.956657090550923
202.0,0.0,19.816419758677856,0.3210291922105568,20.949021945719153
203.0,0.0,19.154378011510982,0.32082737074377354,20.94485964860292
204.0,0.0,18.516350184344198,0.32079299266213795,20.9441507146823
205.0,0.0,17.901744798077353,0.32092519648073803,20.946877064646586
206.0,0.0,17.31002037726013,0.3212231141072125,20.9530219946851
207.0,0.07535248834654051,16.74069033089301,0.3216858693861714,20.962570143273563
208.0,0.7923232915312578,16.193326827621217,0.322312576903786,20.975507465446146
209.0,1.546240678806649,15.667564880647348,0.3231023396663822,20.991821209224774
210.0,2.3389709222396577,15.16310588024818,0.32405424633285546,21.01149989620237
211.0,3.1720161217334972,14.679720143794203,0.3251673681461356,21.03453330204517
212.0,4.04647640046757,14.217249595206432,0.32644075497298275,21.060912450274213
213.0,4.9630174402415905,13.77560891241113,0.32787343109387684,21.090629596898516
214.0,5.921831675942254,13.354786302824483,0.32946439051578547,21.12367823166238
215.0,6.92251973631972,12.954837310800057,0.3312125960716757,21.16005306891059
216.0,7.9644759282339175,12.575910456182642,0.33311695394922175,21.19975008524319
217.0,9.046256855252379,12.218202910429742,0.335176338709107,21.24276644814742
218.0,10.165913437675583,11.881984170762681,0.33738956814529325,21.289100608625894
219.0,11.321007073199919,11.567591181942415,0.33975539704734875,21.338752302338712
220.0,12.508466862315442,11.275414939480651,0.34227251640576734,21.391722563527413
221.0,13.724706296604388,11.005900795126763,0.3449395424770865,21.448013764280375
222.0,14.965619460230979,10.75954067414732,0.3477550106763086,21.507629654725015
223.0,16.22661274900284,10.53686612380778,0.3507173682765344,21.570575414462432
224.0,17.502647404394196,10.338440750985958,0.3538249669998607,21.636857713167394
225.0,18.788290393381367,10.164852084963298,0.35707605553199695,21.706484782365322
226.0,20.077775838605582,10.016703019371764,0.3604687718769802,21.779466501001462
227.0,21.36506522967534,9.8946023789852,0.3640011356739251,21.855814497238573
228.0,22.643911206322798,9.799154946403938,0.3676710408106704,21.935542261037437
229.0,23.907931367395122,9.730951336154469,0.3714762478666593,22.018665276750802
230.0,25.150679438082488,9.690557234983254,0.37541437661501015,22.10520117672994
231.0,26.365717206761634,9.678502178872169,0.3794828985679328,22.195169918010297
232.0,27.54668716205856,9.695267897815093,0.3836791295679313,22.288593985059727
233.0,28.68738617376576,9.74127630188467,0.3880002224206253,22.385498621959695
234.0,29.781842161344063,9.816877222725845,0.3924431595355424,22.485912098799343
235.0,30.82439494035291,9.922335854381926,0.3970047453255262,22.589866022794535
236.0,31.80976004874369,10.057820116004887,0.40168159924596264,22.697395670328948
237.0,32.73314257635592,10.223388391506976,0.40647014707092755,22.80854042537111
238.0,33.59028664719777,10.418978614207466,0.4113666154788814,22.9233441681413
239.0,34.377560988298384,10.644395358639567,0.4163670225178214,23.041855820808568
240.0,35.09207011297926,10.899305941430516,0.4214671760846893,23.164129780076742
241.0,35.731758375881654,11.183219062876507,0.4266626484956811,23.29022708473765
242.0,36.295275650346284,11.49549007008545,0.4319487875033855,23.42021541550883
243.0,36.782392056727254,11.835315700964845,0.43732070221806063,23.55417052132317
244.0,37.19359262917309,12.201713071453565,0.44277323298211524,23.692177236237686
245.0,37.53041943428324,12.593551517375602,0.44830098621672065,23.834329603451526
246.0,37.79525247622895,13.009515109491518,0.45389826553939605,23.980733622022825
247.0,37.991336569519476,13.448135385614503,0.45955910397587185,24.131507172077644
248.0,38.12279077147937,13.907786338205442,0.46527723604453447,24.28678220587897
249.0,38.19449543527269,14.386684880006541,0.47104606500060003,24.44670717866202
250.0,38.21198105759624,14.882913919541389,0.476858675639739,24.61144747825925
251.0,38.181423424055374,15.394425626376103,0.4827078037902832,24.781188506533923
252.0,38.1095040518221,15.91905168632272,0.48858580712675187,24.956138151698624
253.0,38.003360649862856,16.45452026737792,0.49448465490103777,25.136529138440952
254.0,37.87051214625457,16.998469186355365,0.5003959042001528,25.322621882665217
255.0,37.718799420067235,17.548460128988633,0.5063106763417936,25.51470759291854
256.0,37.55633716850746,18.101993288876447,0.512219628759355,25.713111973607617
257.0,37.39147360018369,18.656523228939964,0.5181129268120599,25.91819906558257
258.0,37.23276264271489,19.20947556753534,0.5239802229472459,26.13037482395521
259.0,37.088947212532155,19.75826332431949,0.5298106332462678,26.35009113337298
260.0,36.96894980091698,20.300303665523906,0.5355927157616474,26.57784993401602
261.0,36.88186883230869,20.83303535220579,0.5413144489445515,26.814207819662766
262.0,36.83698075190587,21.353937592334105,0.5469632158912572,27.05978050665481
