Time,J,A,S,tau
0.0,100.0,10.0,0.8897001149109326,16.46160375133715
1.0,97.37533794005516,13.880480598762029,0.8862847383151499,16.273449829934126
2.0,93.64190232843983,17.72299775948329,0.8824126062056098,16.065315517987795
3.0,89.09000523713249,21.52328528785194,0.8780624262593965,15.837004007740104
4.0,84.02842650494024,25.277275344103735,0.8732127147643132,15.588299863786762
5.0,78.68167360518319,28.98075701576506,0.867842366030266,15.318991729674428
6.0,73.18767290677957,32.62937944329956,0.8619308252407404,15.028872935624813
7.0,67.62437873830707,36.218657124169766,0.8554582741360967,14.717742067505533
8.0,62.03534486258225,39.74397543311741,0.8484058360425158,14.385403519692296
9.0,56.44677699542103,43.20060020307056,0.840755788234566,14.031668013626497
10.0,50.87700652627489,46.58368786944273,0.8324917894418546,13.656353095896751
11.0,45.34118026345041,49.88829721799964,0.8235991170649147,13.259283609955702
12.0,39.8533978207697,53.1094038969437,0.81406491564012,12.840292173720357
13.0,35.095977289729696,55.57399534320575,0.8053994173811742,12.49236852997198
14.0,32.26012410841219,56.10402565086474,0.7985824524994952,12.273426615125448
15.0,30.45549048422392,55.59898261286564,0.7916279263228839,12.060560885767854
16.0,29.221500552230978,54.524460176855094,0.7845399880180305,11.853617559095454
17.0,28.247219953938224,53.19434133368995,0.777323188049507,11.652448677985364
18.0,27.372914990380657,51.77045137714835,0.7699824780009423,11.456911346146141
19.0,26.528904474183488,50.32433898752601,0.7625232069570724,11.266867147248618
20.0,25.68845647384452,48.88463165848299,0.7549511167497445,11.082181729132754
21.0,24.842740258771272,47.462168687825766,0.747272330973215,10.902724450395215
22.0,23.989842930074165,46.06101616343961,0.7394933420879886,10.728368118049175
23.0,23.130454257488836,44.68280521689644,0.7316210152953454,10.5589890138335
24.0,22.266300150157097,43.32834465160748,0.7236625715212821,10.39446666132449
25.0,21.399637834380645,41.99813663263595,0.7156255218308936,10.234683328899878
26.0,20.533219181831754,40.6925310394999,0.7075177339123914,10.0795247203022
27.0,19.670243681776284,39.411826420330726,0.6993473211062066,9.9288790967886
28.0,18.814481368419088,38.15629639565387,0.6911226708807954,9.78263770606444
29.0,17.970410070331017,36.92619912014314,0.6828524110479924,9.640694636527343
30.0,17.143401437598804,35.72178584418332,0.67454537576086,9.502946736120983
31.0,16.33990749707284,34.543320433023574,0.6662105861282159,9.369293624607977
32.0,15.56763087641834,33.39110194811962,0.657857212377623,9.239637600627352
33.0,14.835667106516013,32.26550470264978,0.6494945509841563,9.113883652305407
34.0,14.15453652106196,31.167032164779013,0.6411319910917069,8.99193939464571
35.0,13.536081512901577,30.096394257482967,0.6327789825783338,8.873715031117749
36.0,12.993169422194573,29.05461270505346,0.6244450058571026,8.759123325197486
37.0,12.539159014551604,28.043157816480463,0.6161395419637017,8.648079571450179
38.0,12.18709504127122,27.0641073610336,0.6078720407996454,8.540501538664
39.0,11.948645361971401,26.1203274205664,0.5996518896294353,8.436309433281888
40.0,11.832849132395769,25.215659996382282,0.5914883852213575,8.335425875060789
41.0,11.844775241894794,24.355068660337665,0.5833907040999793,8.237775833441656
42.0,11.984272069164744,23.544741895185886,0.5753678780301971,8.143286613329977
43.0,12.244937955298631,22.792068063669756,0.5674287648706894,8.051887789458364
44.0,12.613575457198424,22.105480232388167,0.5595820235241254,7.963511178319119
45.0,13.070425134700987,21.494117061080605,0.551836094292008,7.878090785747818
46.0,13.590070249891781,20.96730140309253,0.544199175751767,7.795562779557242
47.0,14.143199119830355,20.533838576826405,0.5366792066917911,7.715865438646097
48.0,14.698882461434355,20.20127353653117,0.5292904810271809,7.638767851986736
49.0,15.228427868012274,19.973826207714385,0.5219668200114131,7.566071641341494
50.0,15.71182177562237,19.848130543872237,0.5144256337446743,7.504743622682665
51.0,16.132511260260266,19.819863835498808,0.5066640963988803,7.454475071857615
52.0,16.480902670363527,19.881092840985623,0.4986893588317214,7.41478246160986
53.0,16.754434403539285,20.02062511495318,0.4905107362793252,7.3852044412415845
54.0,16.9567526922899,20.224771498329435,0.48213963108804503,7.365300338098326
55.0,17.096351712801788,20.47834287539342,0.4735894765838632,7.354648023696432
56.0,17.18498495178648,20.765644657182122,0.4648730410110075,7.352900709422294
57.0,17.226924462045663,21.080342763263335,0.4563078822074576,7.352900709422294
58.0,17.23144253810053,21.412331676625442,0.447980164679005,7.352900709422294
59.0,17.20925756898457,21.751076803218115,0.4398990729368356,7.352900709422294
60.0,17.169839521632724,22.087892714583383,0.4320730706166365,7.352900709422294
61.0,17.12096058393472,22.41604323517537,0.4245099114048641,7.352900709422294
62.0,17.068550814119856,22.730663980087154,0.4172166510702784,7.352900709422294
63.0,17.01675070175671,23.028574980861226,0.41019966593728036,7.352900709422294
64.0,16.968218282521654,23.30791515732512,0.4034646744198476,7.352900709422294
65.0,16.924657311370733,23.567609599934258,0.3970167600400293,7.352900709422294
66.0,16.886892373450994,23.807341950874537,0.3908604185549485,7.352900709422294
67.0,16.854951519324946,24.02741994631137,0.3849995772335786,7.352900709422294
68.0,16.828440173864134,24.228610376795373,0.379437605077024,7.352900709422294
69.0,16.806630925259395,24.411877515104273,0.3741774370428284,7.352900709422294
70.0,16.78874002578514,24.57840799673316,0.36922149376927565,7.352900709422294
71.0,16.773926203068147,24.729382671678284,0.36457184842882095,7.352900709422294
72.0,16.76146102114385,24.866049247805726,0.36023014246203,7.352900709422294
73.0,16.75067103216251,24.98959331731601,0.35619774975021906,7.352900709422294
74.0,16.741040273322493,25.101205274467546,0.35247569815776175,7.352900709422294
75.0,16.73213157603284,25.202010323865665,0.3490648205378536,7.352900709422294
76.0,16.72364646161466,25.293111244836762,0.34596568787741333,7.352900709422294
77.0,16.71534045997016,25.375568574020978,0.3431787417012622,7.352900707973762
78.0,16.707054415907,25.45041234810058,0.3407042370314714,7.352900708752965
79.0,16.698681942080885,25.518608105889378,0.3385413489742816,7.352920977020424
80.0,16.723099807329042,25.547861010106857,0.33539961489845627,7.379453308084298
81.0,17.3976403465193,24.90676098767343,0.3074163068120885,7.945695608094276
82.0,18.42109856832696,23.86292124645147,0.26743260343547515,8.871058102892684
83.0,19.270707234164725,22.93756499912109,0.23582254209893178,9.70367393921072
84.0,19.527818815847272,22.576214464350436,0.22836192523277515,9.897034236200557
85.0,19.61753549661575,22.384842351139532,0.22770199487362108,9.89801253601354
86.0,19.703352601357253,22.204118918660406,0.22736174738688905,9.898012548781272
87.0,19.786920038836485,22.033641252442646,0.2273081040232081,9.898012568213156
88.0,19.868928937845144,21.873809317136242,0.22754102408539828,9.898012570532233
89.0,19.94997684119438,21.725036425742005,0.22806239999900396,9.897962916723836
90.0,19.97945586315921,21.639145763264658,0.2309024051465299,9.839019135913013
91.0,17.312464409055888,24.347780039824396,0.3364421822348492,7.363666532129248
92.0,17.198227131600483,24.553280837252366,0.3388871704569646,7.352922270431004
93.0,17.08903040587679,24.748040029814593,0.3411025166144309,7.352917108754431
94.0,16.968170448893062,24.946648204099233,0.3436301428303306,7.3529171073499775
95.0,16.83251992486563,25.149941700040635,0.3464701209702121,7.35291710734997
96.0,16.678755270026087,25.35869968093226,0.3496221449883384,7.35291710734997
97.0,16.503366656411774,25.573645963763802,0.3530857607985314,7.35291710734997
98.0,16.31476023281804,25.783343939222725,0.3568603294421363,7.35291710734997
99.0,16.13537466539732,25.962276154058056,0.3609450010317994,7.35291710734997
100.0,15.93195400609463,26.140896086089946,0.3653386676794122,7.35291710734997
101.0,15.702005737040997,26.31892235086159,0.37003992476515096,7.35291710734997
102.0,15.443759320050907,26.49539489947125,0.37504703073770923,7.35291710734997
103.0,15.155862412734605,26.669083028651887,0.38035786974886876,7.35291710734997
104.0,14.8374469140783,26.838479819988997,0.38596991821085036,7.35291710734997
105.0,14.488185871513775,27.001784643749865,0.39188017932272506,7.35291710734997
106.0,14.10786975119395,27.15759772485662,0.39808515642283526,7.35291710734997
107.0,13.696312319881647,27.30476774842478,0.4045808554087576,7.35291710734997
108.0,13.25489307303599,27.4411763695656,0.4113626518253545,7.35291710734997
109.0,12.785727701142292,27.56455395037412,0.4184253689412927,7.35291710734997
110.0,12.29167777141579,27.672529811757755,0.42576317257072605,7.35291710734997
111.0,11.776205897207207,27.76269062619071,0.43336956921171144,7.35291710734997
112.0,11.243419659091424,27.832655550366386,0.4412373833315528,7.35291710734997
113.0,10.697874166609658,27.880137621822087,0.44935873979061275,7.35291710734997
114.0,10.14450071871587,27.902982417485457,0.4577250520685477,7.35291710734997
115.0,9.588455685322904,27.899232977096112,0.4663270158879957,7.35291710734997
116.0,9.038022905003935,27.864185515183223,0.4750060613186701,7.355745705764229
117.0,8.505057680539915,27.790150692416777,0.48342531358491225,7.367679455347211
118.0,7.993635875019779,27.67737181030019,0.4915944430016755,7.388474429544752
119.0,7.507500250436884,27.526341087094863,0.4995048433507422,7.418275376392281
120.0,7.049606243293302,27.33818929402225,0.5071504619887198,7.457219586685758
121.0,6.622110903063313,27.11462099665587,0.5145277083779947,7.505436863256569
122.0,6.226414993911415,26.85783521063098,0.52163532591278,7.56304951478365
123.0,5.863191318974815,26.570460117830905,0.5284760814692963,7.630135086652763
124.0,5.528500886814146,26.259384144793728,0.5353178492040493,7.701357000091977
125.0,5.2204053214581165,25.929018357696226,0.5422596743912604,7.774617815710119
126.0,4.938424692675571,25.58206249071711,0.5492864420551341,7.850108787832318
127.0,4.68173182795326,25.221333495757772,0.5563910165737328,7.927858068954168
128.0,4.449344098495062,24.849591761425245,0.5635661459287431,8.007894323682939
129.0,4.240189077385876,24.46949590987065,0.5708044805676684,8.090246698003032
130.0,4.053157944818166,24.083572278380842,0.5780985938070936,8.174944783855421
131.0,3.8871516376535875,23.69418935283876,0.5854410008619906,8.26201860725682
132.0,3.7411549436750207,23.30350971959861,0.592824180210566,8.351498596304518
133.0,3.614384377954515,22.91337118978572,0.6002405936556111,8.443415552786036
134.0,3.5061816587722303,22.52542164950908,0.6076827064340813,8.53780062103857
135.0,3.415997555797266,22.141161339676813,0.6151430112809927,8.634685263044306
136.0,3.3434089151004818,21.761944810086753,0.6226140447784051,8.734101217411224
137.0,3.288141489774561,21.38898766704196,0.6300884141637373,8.836080480291422
138.0,3.250071169174279,21.023377714811524,0.6375588075649756,8.940655239053543
139.0,3.229272821412545,20.66609168406966,0.6450180438825837,9.047857929119901
140.0,3.2259836983052685,20.317996690282904,0.6524590483626695,9.157721066136757
141.0,3.2406472006603724,19.979870973417167,0.6598748974111448,9.270277287138873
142.0,3.273930878681182,19.65241737682407,0.6672588382933669,9.385559324610764
143.0,3.3267228624397913,19.336276136155636,0.6746042943449954,9.503599920006073
144.0,3.400164604366818,19.03203943836071,0.6819048904709815,9.624431823470239
145.0,3.495670097445903,18.7402620541562,0.6891544668224139,9.748087750452004
146.0,3.614937568757817,18.461471708314164,0.696347086719474,9.874600327014331
147.0,3.759981624006632,18.19618075032814,0.7034770552170517,10.004002070320992
148.0,3.933151620029451,17.9448965135205,0.7105389280317153,10.136325347506812
149.0,4.137152548749485,17.708132184235865,0.7175275216906282,10.271602342546208
150.0,4.375060142923981,17.486416544530993,0.7244379203143538,10.409865022706612
151.0,4.650333197710376,17.280304310828377,0.7312654826927728,10.551145107209887
152.0,4.966822414963876,17.09038645333523,0.7380058493014866,10.695474045115104
153.0,5.328766292138527,16.917299921598982,0.744654945347723,10.8428829982451
154.0,5.740772875023276,16.761736902466325,0.7512089819604476,10.993402824291305
155.0,6.20779076203129,16.624454413715036,0.7576644586153856,11.14706406875117
156.0,6.7350638856622504,16.506283605199346,0.764018163147331,11.303896976556459
157.0,7.328061485780863,16.408137897383924,0.7702671683341994,11.463931506141384
158.0,7.9923891267348095,16.331021285490078,0.7764088296085967,11.627197357168424
159.0,8.73368310366651,16.276036311005218,0.7824407820621544,11.793724030061645
160.0,9.557479485798044,16.244389855727338,0.7883609330964066,11.96354089820503
161.0,10.469064708010936,16.237398246574642,0.7941674557089787,12.136677303662497
162.0,11.47331662732256,16.256491821426074,0.7998587825635668,12.313162702019838
163.0,12.5745399863089,16.303215939914413,0.8054335953574857,12.493026839142106
164.0,13.776295903709814,16.379230676183116,0.8108908154029962,12.676299976653782
165.0,15.081245608950391,16.48630758019575,0.8162295926617815,12.863013181710652
166.0,16.4910040617363,16.6263240193037,0.8214492950597271,13.05319870076418
167.0,18.006012372652624,16.801252557276705,0.8265494948794854,13.246890421424183
168.0,19.62549385776988,17.013146247903236,0.8315299516090245,13.444124360476025
169.0,21.34735402309129,17.26412486005517,0.8363906054582778,13.644939470705435
170.0,23.168150609625254,17.556347826697476,0.8411315558949181,13.8493784678267
171.0,25.083170118403704,17.891988421750128,0.8457530422507937,14.057488697652587
172.0,27.086427927174935,18.27320372111678,0.8502554316589039,14.269323551014137
173.0,29.170762618183552,18.70209927112476,0.8546391989182258,14.484943913488475
174.0,31.32792160932525,19.18068941039679,0.8589049070375697,14.704420005966927
175.0,33.54866063946038,19.710853412811385,0.8630531861882373,14.927833621039564
176.0,35.82285359014438,20.29428931002078,0.8670847109692316,15.155280725082013
177.0,38.1395981275593,20.932465836476737,0.8710001772092798,15.386874608936695
178.0,40.48731457460873,21.626572491579353,0.8748002771022736,15.622749623307636
179.0,42.85383851841958,22.377468668909827,0.8784856728359006,15.863065594770928
180.0,45.22650862032456,23.18563235203951,0.8820569686718442,16.10801301824489
181.0,47.59225246636112,24.051108660636178,0.8855146814599199,16.35781916988554
182.0,49.93767701375154,24.973457336170927,0.8888592090647575,16.61275538351532
183.0,52.249175928566295,25.951703076923373,0.8920907977805936,16.873145134942035
184.0,54.51305016949151,26.984287161672736,0.8952095094975006,17.139373346695713
185.0,56.71565487975917,28.069018733218247,0.8982151883538168,17.411896861671448
186.0,58.84357594533666,29.20302766397971,0.9011074280589547,17.69125602203412
187.0,60.88384031782825,30.382717894526923,0.9038855411919087,17.978087213179673
188.0,62.82415886905456,31.60372309537728,0.9065485321939268,18.273136144138174
189.0,64.6532042214696,32.86086263859393,0.9090950757808929,18.57727179754592
190.0,66.36090719367368,34.14810770416523,0.9115235057421868,18.89149920887718
191.0,67.9387569580739,35.45855763579626,0.9138318178542083,19.216970606249888
192.0,69.38009493532634,36.784430680680586,0.9160176899397088,19.554993671074158
193.0,70.68038156996556,38.117077715913126,0.9180785244709486,19.907034998772602
194.0,71.83741531048352,39.447027323986504,0.9200115186030142,20.27471671321313
195.0,72.85148203074624,40.76407220853198,0.9218137660636293,20.659803974665707
196.0,73.72541981946782,42.057406103984455,0.9234823960909321,21.064181020967123
197.0,74.46456461333418,43.31582443598741,0.9250147476158681,21.48981289733511
198.0,75.07657049042629,44.5279877108222,0.9264085750200721,21.938692546492284
199.0,75.57111497142434,45.68274301108346,0.9276622764785061,22.412774189842718
200.0,75.95949522949645,46.76949186096515,0.9287751303426521,22.913895144232555
201.0,76.25413673141246,47.778584024665804,0.9297475208348629,23.443690596344386
202.0,76.46804840631242,48.701706796270884,0.930581130796551,24.00350783047827
203.0,76.61426325226667,49.5322383314734,0.9312790816702343,24.594327013576766
204.0,76.70531235870843,50.26552262404296,0.9318459918983573,25.216698444019933
205.0,76.75278946258265,50.89901760645487,0.9322879342980154,25.870707367598126
206.0,76.76700688943511,51.43234664085034,0.9326123246607004,26.555960339828587
207.0,76.75682410687979,51.86716113040868,0.9328276900125454,27.271614558332566
208.0,76.72957291857679,52.20694088799661,0.9329434112375864,28.016422168264455
209.0,76.69104672533133,52.45672883035272,0.9329694360136493,28.788790335528688
210.0,76.64567278671251,52.622727009361306,0.9329159166804007,29.58687461756664
211.0,76.59671961795642,52.711917978248216,0.9327929446916353,30.408665861694473
212.0,76.5464516744006,52.731747888390146,0.9326102966855215,31.25206503258029
213.0,76.49634559592859,52.689785646011984,0.9323771900680539,32.1149639383456
214.0,76.44731666443523,52.5934664934746,0.9321021724158401,32.99530458038775
215.0,76.3998594404922,52.44991415435236,0.9317930322140973,33.89112135855068
216.0,76.3541748870704,52.26576719648174,0.9314567017569052,34.80058308719417
217.0,76.31028991296925,52.04711430761115,0.9310992914023333,35.72200696878473
218.0,76.26812605611775,51.799468154658896,0.9307261303823297,36.65386395307446
219.0,76.22754918176986,51.5277280517607,0.9303417762908556,37.59478767100455
220.0,76.18840763873001,51.23619913181128,0.9299500820755134,38.543568739776674
221.0,76.15055218928761,50.92864841816972,0.9295542905079958,39.49913982279862
222.0,76.11384638738434,50.60834237190135,0.9291570958117953,40.46056582526973
223.0,76.07817496895616,50.27805014140285,0.9287606670248361,41.42704313438972
224.0,76.04344018330912,49.94018253772469,0.9283668049765732,42.397863035861945
225.0,76.00956575254374,49.596739448457576,0.9279768996669073,43.3724260977683
226.0,75.97649000500512,49.24944018859051,0.927592069269328,44.35020757601762
227.0,75.94416612423947,48.89970643696544,0.9272131493943253,45.330762537058185
228.0,75.91255693626186,48.54874210468368,0.9268407763749968,46.313704483185795
229.0,75.87125656343292,47.2986491555571,0.9264753792150248,47.29870974310404
230.0,75.78987204478973,42.48917242891809,0.9261172702836371,48.285491410457645
231.0,75.71518534083044,38.171161564224164,0.9257666191867749,49.27380906185932
232.0,75.64637982356074,34.29419183638708,0.9254234983966588,50.26345576872167
233.0,75.58274964145235,30.81298374503568,0.9250878989419455,51.25425406683144
234.0,75.52368399647739,27.686956105774474,0.9247597461566778,52.24605169863437
235.0,75.46865350605981,24.879697448479842,0.9244389129700077,53.23871792618611
236.0,75.41719824157629,22.358538290374216,0.9241252311136761,54.23214030521815
237.0,75.3689179784471,20.09419473940453,0.9238185001326032,55.22622205746287
238.0,75.32346352590937,18.060376834908343,0.9235184950180684,56.22087974043342
239.0,75.28052942267452,16.233505082172833,0.9232249724043254,57.21604128836628
240.0,75.23984787244538,14.592431110864515,0.9229376755851643,58.211644387678426
241.0,75.20118331215649,13.118165745810808,0.9226563386762985,59.20763502786508
242.0,75.16432797630674,11.79368217140874,0.9223806899069922,60.20396631996413
243.0,75.12909806666207,10.603695750225485,0.9221104542847752,61.200597479396485
244.0,75.09533039279754,9.534486002841227,0.9218453557069272,62.19749293804657
245.0,75.06287963685794,8.573748171246239,0.9215851186101393,63.19462162250875
246.0,75.03161590518891,7.7104299469616535,0.9213294692477962,64.19195631176284
247.0,75.00142265308847,6.934613454384714,0.9210781366435244,65.18947309518252
248.0,74.97219495068761,6.237398740255982,0.9208308533079669,66.18715092109153
249.0,74.9438379075159,5.610790381779867,0.9205873557144103,67.18497119002073
250.0,74.91626537315757,5.047615469855958,0.9203473846193221,68.1829174206005
