Time,J,A,S,tau
0.0,100.0,10.0,0.9700621990585158,10.034405603513928
1.0,98.34904408686468,12.455662547458493,0.9705005258188195,9.767819441250543
2.0,96.19714687576536,14.852005992742868,0.970954934033963,9.488779957736876
3.0,93.67234818190005,17.187953165413557,0.971423961597815,9.19781660294518
4.0,90.88445177487979,19.46281541802771,0.9719061965350287,8.895422769492223
5.0,87.91599696271832,21.675967251040507,0.9724002074622514,8.582100250852214
6.0,84.82511137514281,23.82684949653163,0.9729045487387681,8.25835743604555
7.0,81.65118198107429,25.914974600343136,0.97341776552336,7.924707561890892
8.0,78.81274082706899,27.55036875485995,0.973794004674373,7.668874449917487
9.0,77.20884540154819,27.897522251699144,0.973846165298079,7.605369600688141
10.0,76.07722714670251,27.758497023447653,0.9738872279055137,7.546097953881494
11.0,75.27815877481292,27.29236162708718,0.9739175494529138,7.490886542399276
12.0,74.70306247092641,26.621077191435333,0.9739374839728385,7.439567926091354
13.0,74.27676682569262,25.829282890675138,0.9739473827301914,7.39197998871341
14.0,73.95064414010938,24.97263252311888,0.9739475943708535,7.347965740987395
15.0,73.69476955344275,24.086645738774553,0.9739384650715203,7.307373133419679
16.0,73.48345923742733,23.201648971205078,0.9739203386764707,7.270054865998009
17.0,73.30028225750395,22.33767161979838,0.9738935568346943,7.23586821174585
18.0,73.142313425251,21.500914016798454,0.9738584591267927,7.204674837698083
19.0,73.00891118994625,20.69524545878357,0.9738153831918374,7.176340640423167
20.0,72.90033301958637,19.923576914644013,0.9737646648339119,7.15073559621051
21.0,72.81706042886033,19.188440809019884,0.9737066380934669,7.127733622412405
22.0,72.759380408166,18.492267695468758,0.973641635359533,7.107212362783386
23.0,72.72713352018796,17.837474085492378,0.9735699874504702,7.08905307246529
24.0,72.71972488974765,17.226268124614403,0.9734920236641268,7.073140532513962
25.0,72.73576946161764,16.66079269843978,0.9734080717914501,7.059362902003553
26.0,72.77285940007536,16.143186084908045,0.9733184581971327,7.04761155349043
27.0,72.82746460759293,15.675521437973945,0.9732235078450654,7.03778095926998
28.0,72.89491533631839,15.259709694011992,0.9731235443049469,7.029768604333875
29.0,72.96944866466247,14.89735427476653,0.9730188897121642,7.023474904833653
30.0,73.04440970125249,14.589588562355829,0.9729098647560267,7.018803101765181
31.0,73.11252777615546,14.336949298575224,0.9727967887089698,7.01565906506664
32.0,73.16629321901432,14.139226050913596,0.9726799793367314,7.013951308745098
33.0,73.19836090912834,13.995275167096064,0.9725597527712294,7.013590954635895
34.0,73.20198015897128,13.902982453450798,0.9724364235614091,7.0144914874935
35.0,73.17148303857357,13.859155917412574,0.9723103044996276,7.01656880982473
36.0,73.10268548420001,13.859545023760944,0.9721817065469376,7.019741130339879
37.0,72.99311882841876,13.898911969599387,0.9720510021035503,7.02391251047459
38.0,72.84161924690487,13.971744837227268,0.9719214790054432,7.028237820295255
39.0,72.64903397127391,14.071686489817022,0.9717950353236695,7.032242739917165
40.0,72.41820224635856,14.191764532865934,0.9716723229147362,7.035779054348101
41.0,72.15348399200252,14.324913347100045,0.971553985660349,7.038702664435389
42.0,71.86039936811964,14.464287957769681,0.9714406337996878,7.040879913587484
43.0,71.54520183269571,14.603570210096688,0.9713328437762944,7.042187313717746
44.0,71.21443706144485,14.737230340259439,0.9712311309815046,7.042518234015855
45.0,70.87515079244113,14.860153495461145,0.9711333408097946,7.0424360368844505
46.0,70.53401016285125,14.968399353870499,0.9710375563888978,7.0424360368844505
47.0,70.19640745032734,15.05973710031059,0.9709441525227854,7.0424360368844505
48.0,69.86685625971398,15.13304595616452,0.9708531758766011,7.0424360368844505
49.0,69.54882498724834,15.188274542119988,0.9707646721243726,7.0424360368844505
50.0,69.2446132037209,15.226371375876347,0.9706786857725608,7.0424360368844505
51.0,68.95563926190987,15.248928949466773,0.9705952603841363,7.0424360368844505
52.0,68.68232384890462,15.258171268455417,0.9705144383058395,7.0424360368844505
53.0,68.42420164785656,15.256744535771086,0.9704362607202388,7.0424360368844505
54.0,68.18012839832477,15.247468902892477,0.9703607676161824,7.0424360368844505
55.0,67.94843574654831,15.233164947508056,0.970287997753905,7.0424360368844505
56.0,67.72706649072471,15.216517374226367,0.9702179886026472,7.0424360368844505
57.0,67.51371795367747,15.199964981846371,0.9701507763121818,7.0424360368844505
58.0,67.30596497444888,15.185627565147957,0.9700863957041583,7.0424360368844505
59.0,67.10136399838875,15.175258408941877,0.9700248802422947,7.0424360368844505
60.0,66.89756552475353,15.170200295591908,0.9699662619881133,7.0424360368844505
61.0,66.69242110478248,15.171356009970724,0.9699105715271584,7.0424360368844505
62.0,66.48402657823492,15.179222029594271,0.9698578380337086,7.0424360368844505
63.0,66.2708032813059,15.193914095283517,0.9698080892424672,7.0424360368844505
64.0,66.05153980542707,15.21515375857622,0.9697613512058173,7.0424360368844505
65.0,65.82543360411775,15.242393025767921,0.9697176485398605,7.0424360368844505
66.0,65.59197514371401,15.274830943142947,0.9696770043818337,7.0424360368844505
67.0,65.35105891003333,15.311469081705388,0.9696394402371177,7.0424360368844505
68.0,65.1029039498479,15.351183426093712,0.9696049759098025,7.0424360368844505
69.0,64.84798565869761,15.392795658197482,0.969573629811749,7.0424360368844505
70.0,64.5870286888541,15.435128151829677,0.9695454184372861,7.0424360368844505
71.0,64.32089888887621,15.477051569545138,0.9695203569099494,7.0424360368844505
72.0,64.05056717942495,15.517545529571352,0.9694984584781384,7.0424360368844505
73.0,63.77704866955005,15.555720835624063,0.9694797348175479,7.0424360368844505
74.0,63.501340994713296,15.59083917223146,0.969464195949252,7.0424360368844505
75.0,63.2243799752091,15.622355998071903,0.9694518500409238,7.0424360368844505
76.0,62.94703078465141,15.649872949630188,0.9694427038822314,7.0424360368844505
77.0,62.669981975852544,15.673208679864297,0.9694367620184768,7.0424360368844505
78.0,62.39387244689746,15.692277680556359,0.9694340281491398,7.0424360368844505
79.0,62.11910579506507,15.707207041683763,0.9694345031670618,7.0424360368844505
80.0,61.845918310397565,15.718188780801368,0.969438186637427,7.0424360368844505
81.0,61.574538447153216,15.725491423827947,0.9694450772412901,7.0424360368844505
82.0,61.304978629819765,15.729489718830301,0.9694551706444328,7.0424360368844505
83.0,61.03717926923044,15.730563788882687,0.9694684617793758,7.0424360368844505
84.0,60.77102056671979,15.729123002783185,0.9694849434418409,7.0424360368844505
85.0,60.50628034096085,15.725555289839502,0.9695046065500416,7.0424360368844505
86.0,60.242740534106815,15.720242693355136,0.969527441070015,7.0424360368844505
87.0,59.98015114186886,15.713501835820574,0.9695534342248968,7.0424360368844505
88.0,59.718255690639246,15.705629648525996,0.9695825725809798,7.0424360368844505
89.0,59.45683715185145,15.69685542039503,0.9696148403926866,7.0424360368844505
90.0,59.19569359511972,15.68735234802177,0.9696502203869635,7.0424360368844505
91.0,58.93465960679665,15.67726342780928,0.9696886942823495,7.0424360368844505
92.0,58.67364851967831,15.666642332946418,0.9697302408693907,7.0424360368844505
93.0,58.41258322235019,15.655529827856666,0.9697748386112675,7.0424360368844505
94.0,58.15144034367711,15.643941105977907,0.9698224650362799,7.0424360368844505
95.0,57.89030094362075,15.631826626978192,0.9698730933932167,7.0424360368844505
96.0,57.62925650762383,15.619129387014365,0.9699266963397444,7.0424360368844505
97.0,57.36839863241795,15.605792357490953,0.9699832465348578,7.0424360368844505
98.0,57.10787905777808,15.591752801018059,0.9700427159681355,7.0424360368844505
99.0,56.847908915627755,15.576962320388681,0.9701050723537298,7.0424360368844505
100.0,56.5886807122894,15.561382829174828,0.9701702820675338,7.0424360368844505
101.0,56.33038695408543,15.544976240948502,0.9702383114854407,7.0424360368844505
102.0,56.0732407874549,15.527709745144215,0.9703091268675132,7.0424360368844505
103.0,55.81748407730244,15.509607347373318,0.9703826914892747,7.0424360368844505
104.0,55.56329437431969,15.49072759810335,0.9704589660776883,7.0424360368844505
105.0,55.31084540175568,15.471129531569973,0.9705379112977597,7.0424360368844505
106.0,55.06031302577394,15.450873888686344,0.9706194877713107,7.0424360368844505
107.0,54.8118784318884,15.430063135799227,0.9707036542998864,7.0424360368844505
108.0,54.56567123627554,15.408834646622317,0.97079036725236,7.0424360368844505
109.0,54.321810470270854,15.387325709947806,0.9708795828296714,7.042436036884434
110.0,54.080409868081205,15.36568182262456,0.970971256826769,7.0424360368513215
111.0,53.84155498636537,15.344070415555915,0.9710653427144096,7.042436036810471
112.0,53.605322800343714,15.3226619552294,0.9711617932279182,7.042436036844334
113.0,53.37167462627221,15.301733255201,0.9712611721747714,7.0422861716961425
114.0,53.14026826229238,15.281799718025072,0.9713654634500252,7.041484086622216
115.0,52.91102976949556,15.263085942563492,0.9714750335629206,7.039919497776192
116.0,52.683912428958514,15.24578653329328,0.9715900825032622,7.037522792983812
117.0,52.45896442702748,15.229972661372276,0.9717101316467854,7.034391577055989
118.0,52.23631015237028,15.215684581845041,0.9718344559172928,7.03068601182182
119.0,52.01610649564672,15.202937531176103,0.9719621703795527,7.026607504728484
120.0,51.79835411388098,15.191906421499436,0.9720933548848153,7.022117269836111
121.0,51.583826797951666,15.182041150554939,0.9722239400381065,7.018224265211274
122.0,51.373008658708194,15.173175046300265,0.9723521081400706,7.015381162178701
123.0,51.16615014103395,15.16539917065754,0.9724775455056637,7.013665736031685
124.0,50.96351381701958,15.15880873750758,0.9725999389435589,7.013156809773187
125.0,50.76533744743121,15.153503445888397,0.9727189761424838,7.013934275253548
126.0,50.57186191664103,15.149609017621062,0.9728343478366238,7.016080292224346
127.0,50.38333086985458,15.147253272103795,0.9729457451604248,7.019677322480011
128.0,50.19993209161402,15.146585812001112,0.9730528615259426,7.0248092981328965
129.0,50.02179518942117,15.14783643450019,0.9731553952785125,7.031562047713239
130.0,49.8490382975063,15.15124209087274,0.973253045184144,7.0400216093370025
131.0,49.68172919211811,15.157028210194051,0.9733455138016543,7.0502756388570695
132.0,49.51995887739306,15.165431095598443,0.9734325100755047,7.062413235703227
133.0,49.36380878544177,15.176684652374945,0.9735137433170938,7.076523707713864
134.0,49.213312296315316,15.19100454243281,0.9735889283860736,7.092698042075453
135.0,49.0685507089673,15.20861414552959,0.9736577875240853,7.11102820022642
136.0,48.929587884767564,15.229730000366919,0.9737200432505276,7.131606408256336
137.0,48.79646272683992,15.254535050849558,0.9737754255917076,7.154526510785179
138.0,48.66928946851756,15.283213861669449,0.9738236724826901,7.179882871569553
139.0,48.54815525433793,15.315939731026456,0.9738645220725723,7.207770219931799
140.0,48.433141963603816,15.352854294729072,0.9738977221385569,7.238284685462064
141.0,48.32441403530114,15.39410659431719,0.9739230284254878,7.271522510781725
142.0,48.222097153670575,15.43983053315353,0.9739401969197878,7.307580426609993
143.0,48.12633268659332,15.490136367878602,0.9739489954665596,7.346556161998293
144.0,48.037343317552654,15.545145924070463,0.9739491994854679,7.388547237349369
145.0,47.955300069291575,15.604962693234008,0.9739405848347432,7.433651768865449
146.0,47.88041000838237,15.669679621710317,0.9739229414897843,7.481968277665108
147.0,47.81295226164785,15.73940332572722,0.973896066168651,7.5335948733375195
148.0,47.75314194601838,15.814219930919538,0.9738597565821183,7.588630284690659
149.0,47.70125094459087,15.89421700603858,0.9738138265770404,7.647172908473748
150.0,47.65761041616068,15.979494705757524,0.9737580956110835,7.7093206506572916
151.0,47.622478196873814,16.070131597732377,0.9736923852232481,7.7751718882971455
152.0,47.59618790649892,16.166216074616514,0.9736165345423036,7.844823883603131
153.0,47.579119017891884,16.267846510388782,0.9735303871035763,7.918373417174301
154.0,47.57157137968061,16.375099002329847,0.9734337901509321,7.9959173641526595
155.0,47.57393871502472,16.48806398621024,0.973326609283907,8.077550738889999
156.0,47.58664657363841,16.606838475985967,0.973208713352221,8.163368138015308
157.0,47.610038436351374,16.731496494038545,0.9730799770550931,8.253463606976362
158.0,47.64456792942246,16.862128271389576,0.9729402934413626,8.34792870323611
159.0,47.69070551154665,16.998826999143972,0.972789557831834,8.446854637784549
160.0,47.7488416371925,17.14166197291137,0.9726276739532919,8.550331145316166
161.0,47.81948965237599,17.29071930695873,0.9724545630756064,8.658445034823593
162.0,47.90316368678972,17.44608440580316,0.9722701480732462,8.77128278875291
163.0,48.00030459157413,17.60781781697222,0.9720743630199805,8.888928237660599
164.0,48.111483656566676,17.775997171709246,0.9718671579682665,9.011462086964759
165.0,48.23725598910807,17.950695655971582,0.9716484843412306,9.13896461876464
166.0,48.37811400944864,18.13196121574106,0.9714183075373285,9.271512109653196
167.0,48.53468206812295,18.31985883388514,0.9711766067334492,9.409177767720763
168.0,48.70755060439933,18.514445288857324,0.9709233627740876,9.552034098654865
169.0,48.89726044892343,18.71575303009845,0.9706585729268606,9.700148185867311
170.0,49.1044796690978,18.92383080467403,0.9703822456004728,9.853584338077871
171.0,49.32982393758595,19.1387155578093,0.9700943917564604,10.012405641842536
172.0,49.573873646294054,19.36042229873714,0.9697950405624948,10.176668431468174
173.0,49.837325786896194,19.588980704708757,0.969484229513548,10.346426740977146
174.0,50.12080554801678,19.82440548841774,0.9691620001366041,10.52173257815649
175.0,50.42491737039606,20.066693165123354,0.9688284129608552,10.702630127240282
176.0,50.75036617443865,20.315852498341314,0.9684835341495508,10.889161836857872
177.0,51.09776486208446,20.571874530083022,0.9681274359171341,11.081367019719076
178.0,51.467719351444046,20.834737017569903,0.9677602090270045,11.279276526722562
179.0,51.86091411005644,21.10442721527829,0.9673819476299093,11.482919998793003
180.0,52.277924581042186,21.38091233424576,0.9669927542630613,11.692322593185088
181.0,52.71932624847748,21.6641514835778,0.966592748314009,11.907500863369716
182.0,53.18575001046261,21.954111051521267,0.9661820509663107,12.128470551267702
183.0,53.67770364710395,22.25073574976707,0.9657607940770111,12.35524145295875
184.0,54.195694322697285,22.553966823560433,0.965329123718822,12.587815075645183
185.0,54.7402637139408,22.86375074964025,0.964887186831633,12.826192350808
186.0,55.31181652306424,23.18001271543704,0.9644351429578932,13.07036680957895
187.0,55.910751629424524,23.502678083702836,0.9639731626459428,13.32032439869513
188.0,56.53748394677362,23.831675011432797,0.9635014169840017,13.576050571244659
189.0,57.19227128000015,24.166911352839243,0.9630200912070885,13.837522070226031
190.0,57.8753585736624,24.50829938328576,0.962529378885918,14.104708214365814
191.0,58.587009541195364,24.855754829332557,0.9620294731275068,14.377578222212543
192.0,59.32735393649595,25.209176102066273,0.9615205781378636,14.656095045515148
193.0,60.09639050945838,25.568458604327233,0.9610029116610768,14.940209419391733
194.0,60.894152118552704,25.933507746202103,0.9604766896942699,15.22987122698075
195.0,61.72066865389998,26.304228436271497,0.9599421285223724,15.525030230704862
196.0,62.57578113474216,26.680504544751187,0.9593994610098067,15.82562630632729
197.0,63.45919070262829,27.06222719923896,0.958848928659027,16.131587373903468
198.0,64.37062848882022,27.449297906160094,0.9582907692179345,16.442841495348794
199.0,65.30982562457974,27.841618171939874,0.9577252204344305,16.75931673257868
200.0,66.27640475245573,28.2390803041691,0.9571525294949091,17.080934965963294
201.0,67.26975078584039,28.64157356763001,0.9565729591828069,17.407602516962548
202.0,68.28929321400605,29.049002846877695,0.9559867648853139,17.73922685398534
203.0,69.33445073858105,29.461271803755448,0.9553942031763921,18.075714801925606
204.0,70.40447530076636,29.878278227306044,0.9547955439821109,18.416962270601942
205.0,71.49855255862818,30.29993628974821,0.9541910557696431,18.762859267474894
206.0,72.61587701032045,30.72616336577111,0.9535810052532586,19.11329613705887
207.0,73.75557238092668,31.156873733950906,0.9529656657998649,19.468158236694773
208.0,74.91663430871834,31.59199234553725,0.9523453171836131,19.827320293608683
209.0,76.09807224982836,32.031453584251565,0.9517202348245778,20.190657138626037
210.0,77.2988489149791,32.47519048107305,0.9510906990692071,20.55803987509764
211.0,78.51784123767273,32.92314968427817,0.950456994606362,20.92933037570924
212.0,79.75393377781108,33.37528667421588,0.9498194028090207,21.304389842388225
213.0,81.00597407007419,33.83155659909414,0.9491782094562867,21.68307597160856
214.0,82.27275546111966,34.29193138755723,0.9485337038011751,22.065237592115494
215.0,83.55308387871476,34.756392181390034,0.9478861720317217,22.450722754033663
216.0,84.84573781656071,35.22492076838296,0.9472359042324672,22.839376236840472
217.0,86.14947332047747,35.69751793141338,0.9465831934616493,23.23103420920343
218.0,87.46306437264319,36.17419362076623,0.9459283301184879,23.625531896291967
219.0,88.78526666990211,36.654959164726485,0.9452716080216188,24.022701487103465
220.0,90.11484113128141,37.13984737395279,0.9446133238669352,24.422366673020548
221.0,91.45057049299454,37.628900607105095,0.9439537722421304,24.82434997684615
222.0,92.79122713099022,38.122163326748996,0.9432932507272452,25.228471108062006
223.0,94.13561089694468,38.6197030920471,0.9426320601127434,25.634541214212266
224.0,95.48254601703924,39.12159696513613,0.9419704997667033,26.04236998615172
225.0,96.83085296278493,39.62792457834382,0.9413088716864554,26.451764502665124
226.0,98.17939385458041,40.138790422045886,0.9406474818608228,26.86252300872327
227.0,99.52705519070398,40.65430879346086,0.9399866356681715,27.274441938867376
228.0,100.87272438394298,41.174597109314874,0.939326640827689,27.68731528657904
229.0,102.21533593667702,41.69979925283221,0.9386678102921387,28.100927705437446
230.0,103.55384650592252,42.23006906620022,0.9380104573342667,28.51506161670858
231.0,104.8872167153443,42.765563708690266,0.9373548973622815,28.92949713386979
232.0,106.21445075163075,43.30646829243276,0.9367014527303192,29.344004266641143
233.0,107.5345701084125,43.85297831732772,0.9360504471560057,29.758350299706002
234.0,108.8466011721915,44.40529292991529,0.9354022063762443,30.172300299226336
235.0,110.14960139792042,44.963640780408454,0.9347570652640114,30.585608184990168
236.0,111.442638581018,45.52826123686071,0.9341153612084482,30.99802458573829
237.0,112.72478471139331,46.09939631725356,0.9334774331810384,31.40929836502111
238.0,113.99512141558304,46.67732100413421,0.9328436326424089,31.819165226895887
239.0,115.25273115527419,47.26232338499241,0.9322143155115287,32.22735626355553
240.0,116.49669850675191,47.85469228941479,0.9315898381996977,32.63360193810479
241.0,117.7260923038374,48.4547453270286,0.9309705705683274,33.03761988903132
242.0,118.93995976515919,49.06282374472674,0.9303568930240481,33.4391182501762
243.0,120.13734923507451,49.67926887411156,0.9297491859719728,33.83780506169644
244.0,121.31727838637886,50.30444200491527,0.929147840654323,34.23337862902715
245.0,122.47869711760129,50.938739376687465,0.928553267265039,34.62552152356036
246.0,123.62055049843882,51.58255961599862,0.9279658772636193,35.01391529170627
247.0,124.74175604357319,52.23631138126501,0.927386088296386,35.39823601091956
248.0,125.84110032253834,52.900446354473,0.9268143450477969,35.77813850165513
249.0,126.91734390854566,53.575424490241865,0.926251097433572,36.153273637819964
250.0,127.9692330012207,54.26170866215048,0.9256967973710748,36.52329038523341
