Time,J,A,S,tau
0.0,100.0,10.0,0.9586549551313899,10.3426999637961
1.0,99.44641579488706,10.79120714626708,0.9593156178251763,11.08831874125081
2.0,98.92940331404027,11.544799570487063,0.9599533393353753,11.842263145742924
3.0,98.4456533637902,12.262781229867672,0.9605690590898016,12.603820187862885
4.0,97.99183833064443,12.94691365149172,0.9611636947247382,13.37264207833578
5.0,97.56501916319552,13.59891408865775,0.961738174787226,14.148383508749625
6.0,97.16259666855018,14.22045329869204,0.9622934335032789,14.930702715738967
7.0,96.78227239277217,14.813152602350687,0.9628304058309624,15.719262540951103
8.0,96.42200324616879,15.378584269461037,0.9633500231864605,16.51373111752893
9.0,96.0799688502943,15.918270976125465,0.9638532100656193,17.313782435916586
10.0,95.75454561393956,16.433685320639505,0.9643408811171098,18.119096851678847
11.0,95.44429015492192,16.92624707635125,0.9648139377921613,18.929361857746166
12.0,95.14790710063346,17.397327464119737,0.9652732672229336,19.744271886398383
13.0,94.86423243036758,17.84824995555548,0.9657197411110434,20.56352835923691
14.0,94.59222983465783,18.28028598815378,0.9661542126780179,21.386840542467272
15.0,94.33096394455141,18.694662261099573,0.9665775179141538,22.21392469197697
16.0,94.07959163125663,19.092561078867938,0.9669904752076293,23.044503995422573
17.0,93.83736073181429,19.475117472479994,0.9673938831913025,23.878309180075778
18.0,93.60358924104207,19.843427657656374,0.9677885237647147,24.715077221569647
19.0,93.37766562968555,20.198546423469967,0.9681751608710398,25.55455168935406
20.0,93.15904232772878,20.541489639556183,0.9685545410700054,26.396482442179188
21.0,92.94722178027311,20.873241481471723,0.9689273969163871,27.240624357359152
22.0,92.74176789633815,21.194746453271026,0.9692944434635398,28.086738527601003
23.0,92.54228179143438,21.50692491816331,0.9696563852307769,28.934589773118766
24.0,92.34841852620728,21.810662343435062,0.9700139119950972,29.783948115066856
25.0,92.15986752177778,22.106822756964814,0.9703677048259367,30.634586660596884
26.0,91.97636273833302,22.39624300304148,0.970718434345484,31.486282226959972
27.0,91.7976737944578,22.67974011598157,0.9710667643647315,32.338814104749424
28.0,91.62360850611763,22.95811088173795,0.971413352361274,33.19196391140321
29.0,91.45400998010729,23.232136132545744,0.9717588520913372,34.04551474189933
30.0,91.28875792039676,23.5025815621036,0.9721039145458493,34.89925086286509
31.0,91.1277683006516,23.770201037847613,0.9724491904430658,35.752956922806234
32.0,90.97099353596498,24.03573829308518,0.9727953313429739,36.6064175902971
33.0,90.8184252719106,24.29992933499191,0.9731429921665312,37.45941677567467
34.0,90.67009272630222,24.563504661296445,0.9734928320768326,38.311737330497344
35.0,90.52606990301517,24.82719108617319,0.9738455174661442,39.16316014334172
36.0,90.38647380332246,25.091714362031123,0.9742017227750778,40.01346385638668
37.0,90.25146688917766,25.35780006864997,0.974562131937898,40.862424403478705
38.0,90.12126942317775,25.62617741389054,0.974927442380121,41.709813803589874
39.0,89.9961461965664,25.89757776853625,0.9752983618724241,42.55540104831973
40.0,89.87643915675986,26.172741332574923,0.9756756176344353,43.3989493582499
41.0,89.7625346936455,26.452411831687172,0.9760599474095433,44.24021881987375
42.0,89.65491999519752,26.737346659377135,0.9764521139572543,45.07896196455972
43.0,89.55412909507214,27.028307948485512,0.9768528908322015,45.914928055599376
44.0,89.46082299517886,27.326074830668798,0.9772630806064383,46.7478574360501
45.0,89.37571805058994,27.631433110615035,0.9776834978645871,47.57748673950419
46.0,89.29968285590985,27.945186407019403,0.9781149875513827,48.40354306798615
47.0,89.23366004688198,28.26814783358214,0.978558409041005,49.225748951332584
48.0,89.17876607932438,28.60114658573795,0.979014650516031,50.0438176126458
49.0,89.13622338455264,28.94502435813904,0.9794846175574385,50.857456563733926
50.0,89.10744376825141,29.30063509633435,0.9799692404915926,51.6663649756428
51.0,89.09399240987773,29.668847309070255,0.9804694693531638,52.47023519276403
52.0,89.09763144345558,30.05053662184543,0.9809862731400207,53.26875271400321
53.0,89.12033954533652,30.446592884828053,0.9815206406110429,54.061595530560346
54.0,89.16429154007162,30.857907674901924,0.9820735730384553,54.848436516231516
55.0,89.23195408608234,31.28538250922074,0.9826460875543012,55.62894124388332
56.0,89.32598318068429,31.729915952773908,0.983239207641936,56.40277183303609
57.0,89.44940528342647,32.19240714423298,0.9838539634979476,57.16958455920883
58.0,89.76195236138966,32.51683464702316,0.9843001124972621,57.72215596339273
59.0,90.4734700796863,32.490829964074926,0.9842988944470664,57.73631163847445
60.0,91.2047571745934,32.495087669230216,0.9843033072997948,57.685028817456754
61.0,91.9592158972376,32.530263162440555,0.9843139145490314,57.561701592641796
62.0,92.74054664217897,32.59699030740145,0.984331329281302,57.35905719178399
63.0,93.55276489701386,32.69588016917999,0.9843562154848684,57.06910066761786
64.0,94.40020948228627,32.82751480175634,0.9843892831111769,56.68311643561235
65.0,95.28752165509418,32.99245198952047,0.9844312739597821,56.19176240173093
66.0,96.21961563743164,33.19124021115355,0.9844829410154725,55.58521783066624
67.0,97.20163052223282,33.42444868475108,0.9845450149970237,54.8534396092257
68.0,98.2388504552042,33.69270709551519,0.9846181438379796,53.98668946390167
69.0,99.33657857015709,33.99677286466093,0.9847028115657257,52.976296717523745
70.0,100.49998203350316,34.33762296035168,0.9847992370789012,51.815632991919145
71.0,101.73388620818845,34.716578276685325,0.9849072400937765,50.501437984205246
72.0,103.04242080110754,35.135524607103314,0.9850260249363347,49.035990569489186
73.0,104.42884810605138,35.59698977081553,0.9851541365695494,47.4277034336455
74.0,105.89506102314354,36.10444567147708,0.9852892422091895,45.69330870177375
75.0,107.44123770801457,36.66247046919134,0.985428150981117,43.857702537875156
76.0,109.06541394865567,37.27691814229694,0.9855668985135411,41.952993654255884
77.0,110.76308026269058,37.9550102152491,0.9857009845071125,40.01592554835673
78.0,112.52675977142783,38.70535491542702,0.9858257093923851,38.084287762998436
79.0,114.34556456015792,39.53788255911345,0.9859365471567906,36.19309107536025
80.0,116.20471076598997,40.463711354084076,0.9860294612992635,34.37154314931844
81.0,118.08493922878976,41.4949722061465,0.9861011086933724,32.64136386271001
82.0,119.96182391290851,42.64459888331279,0.9861489180310654,31.016478788063893
83.0,121.8049622575098,43.92611406909829,0.986171055253373,29.503836288070506
84.0,123.57719577264011,45.35336589424659,0.9861663177148307,28.10481350000496
85.0,125.23733221991588,46.936762429504796,0.9861340028951678,26.816719068112466
86.0,126.78329905792627,48.63959432465905,0.9860737739476543,25.634179695137284
87.0,128.1805289480444,50.45045544800226,0.9859855417250925,24.550252985921627
88.0,129.36186406162005,52.38412028167788,0.9858693694183635,23.557250099032327
89.0,130.25557266890678,54.45442363068408,0.9857254000819546,22.647302579899065
90.0,130.7874878647795,56.67377635237375,0.9855538041738287,21.81272755469796
91.0,130.88400816016,59.052686316879054,0.9853547431782924,21.046245319741196
92.0,130.47598793447995,61.599240241032675,0.9851283454528661,20.34109469577525
93.0,129.50331700549694,64.31855923742069,0.9848746910016388,19.691080823255852
94.0,127.91982900486279,67.2121893214869,0.9845938025664662,19.090580347964245
95.0,125.69798884181432,70.27734532271717,0.984285640938408,18.534520038498442
96.0,122.83302280481705,73.50581597824794,0.983950103681393,18.01834627609142
97.0,119.34561488280029,76.88240630862968,0.9835870252969434,17.53798147455053
98.0,115.28289892402049,80.38290846220329,0.9831961783296117,17.089778466244812
99.0,110.7182099329676,83.97143212137469,0.9827772760318227,16.670483388997486
100.0,105.7489154664763,87.59772197811606,0.9823299741464547,16.277192395501018
101.0,100.49344863008528,91.19463218028271,0.9818538747875745,15.907317382487955
102.0,95.08736886746466,94.67697363927216,0.9813485286207119,15.55854946373527
103.0,89.67566942859683,97.94544085150198,0.9808134378505512,15.228831159714812
104.0,84.4037724117737,100.89371777124904,0.9802480589243029,14.916327657657234
105.0,79.41117356481595,103.4147209941965,0.9796518054115098,14.619403195494032
106.0,74.82390761463114,105.4092934427855,0.9790240502880665,14.336599509539894
107.0,70.7456561943618,106.79670503842422,0.9783641287888093,14.066616139771838
108.0,67.24810179031951,107.52568060399858,0.9776713406211084,13.808294100225474
109.0,64.36333239868387,107.58285440031433,0.9769449525214001,13.560599868662598
110.0,62.07998372987496,106.99683305536594,0.9761842009336346,13.322612860680143
111.0,60.34632031820706,105.83493853947573,0.975388294008382,13.09351268741473
112.0,59.07982594521253,104.19322990513511,0.974556414203281,12.87256818047956
113.0,58.181399276530826,102.18195092121802,0.9736877207512018,12.659128562027757
114.0,57.551147089111204,99.90964578910673,0.972781352232953,12.452614331637491
115.0,57.10112333097772,97.47058563304675,0.9718364292472417,12.25250973653202
116.0,56.76261190190538,94.93787002037732,0.9708520569571804,12.05835595868049
117.0,56.48721145553133,92.3628305300368,0.9698273279630758,11.869744708677501
118.0,56.243853000218024,89.77846564254875,0.9687613251906954,11.686313020116595
119.0,56.01392949491192,87.20468190385414,0.9676531249378656,11.507737997226585
120.0,55.78687344632443,84.65296626102273,0.9665017999569047,11.333732454629132
121.0,55.55684491042108,82.12985556531326,0.9653064228844466,11.164041108302232
122.0,55.32057896590195,79.63917802449255,0.9640660691230554,10.998436825889264
123.0,55.076168682087214,77.18332396820416,0.9627798202458747,10.836716194632105
124.0,54.822471274587016,74.76386193799159,0.9614467722140263,10.678701370853249
125.0,54.558632371815804,72.38202161488492,0.9600660258209275,10.524228078259421
126.0,54.28405308950668,70.0387422416321,0.9586367138285523,10.373156858483561
127.0,53.99819524288868,67.73490235515989,0.9571579838833532,10.225356897827298
128.0,53.700591726932025,65.47118767120955,0.9556290002525406,10.080712671051975
129.0,53.39081644034402,63.248326529974015,0.9540489919008801,9.939124626080076
130.0,53.06845065628515,61.066953292712725,0.9524171812674402,9.800495438407395
131.0,52.73311233439534,58.92758031736823,0.9507328547652519,9.664742984549616
132.0,52.38443136902181,56.830815857162406,0.9489953580333479,9.531792246773326
133.0,52.02204756748806,54.777078634795295,0.9472040286349059,9.401570488241969
134.0,51.64564892865921,52.76678921991249,0.9453583298457434,9.27401700577266
135.0,51.25493451465377,50.80044529623493,0.9434577681582357,9.149074005249636
136.0,50.849618542791724,48.878309360044895,0.9415018493088259,9.026685212067607
137.0,50.429510954318054,47.000656536730474,0.939490238737481,8.90680261992067
138.0,49.99444476513225,45.16785834701691,0.9374226519112062,8.789380208427923
139.0,49.54426491169278,43.380008318467496,0.9352988005468315,8.674372426387627
140.0,49.07904438502074,41.63724313042297,0.9331186039344955,8.561739560431365
141.0,48.59892361261065,39.93982669636469,0.9308820487082101,8.451443556454382
142.0,48.10406831147152,38.2878400004546,0.9285891277966518,8.343446403845247
143.0,47.59501725107976,36.68120693953906,0.9262400088190066,8.237712862222317
144.0,47.07250912780894,35.120054993905356,0.9238349626859291,8.134209417858726
145.0,46.537497606717295,33.60430672486104,0.921374316980965,8.032902866609525
146.0,45.99152127055132,32.133979059892766,0.9188585703688128,7.933761810039655
147.0,45.43643301503675,30.709039687471968,0.9162882909847462,7.836755291115442
148.0,44.87484389116083,29.329538329599178,0.9136641992244007,7.741853446570188
149.0,44.30998146476847,27.99554163700518,0.9109871174927658,7.649026902672759
150.0,43.74599692117329,26.70729903372663,0.9082580105150714,7.558247104973571
151.0,43.18790727962435,25.465173416253563,0.9054779615318962,7.469485899376539
152.0,42.641700780750796,24.269785409157667,0.9026481862111334,7.382715662908208
153.0,42.114337963766346,23.1221032708429,0.8997700349430675,7.29790924524006
154.0,41.61362937618298,22.023567284398933,0.896844996770999,7.215039917005951
155.0,41.14786399728784,20.976178163776453,0.8938746913419037,7.134081310727914
156.0,40.72539107587857,19.9826775520856,0.8908608768642573,7.055007433455116
157.0,40.3539001165751,19.046685471981792,0.8878054482274511,6.977792642752712
158.0,40.03949843835657,18.172847577557896,0.8847104380576538,6.902411641561279
159.0,39.78547308726548,17.366901039554293,0.881578013500273,6.828839451586107
160.0,39.59108487529443,16.63571213009583,0.8784104768387221,6.757051425789153
161.0,39.45035090219016,15.98717201196795,0.875210263655863,6.687023244603579
162.0,39.35103795545796,15.429897390214872,0.8719799388887103,6.618730906377766
163.0,39.27437249054543,14.972761397565487,0.868722195851943,6.55215074074909
164.0,39.195522189832566,14.624136856709114,0.8654398520928214,6.487259407809573
165.0,39.08512087877664,14.390899142863331,0.8621358455281365,6.4240339027338305
166.0,38.91182132134192,14.277233433018345,0.858813230078593,6.362451561203014
167.0,38.645648171509485,14.283366140565036,0.8554751707723156,6.302490065169908
168.0,38.26175229632207,14.404414164407251,0.8521249386753132,6.244127450401422
169.0,37.74387660812634,14.629648207100976,0.848765905029277,6.187342113155774
170.0,37.0867786440566,14.942395947419497,0.8454015344197744,6.132112814126574
171.0,36.29734035621438,15.320744969912786,0.8420353787623753,6.0784186880023
172.0,35.3937979324939,15.739119013890239,0.838671069930227,6.026239248580915
173.0,34.403391986350236,16.170518225921896,0.835312312604753,5.975554396447762
174.0,33.35879246289694,16.589118597679228,0.8319628762591705,5.926344423804782
175.0,32.29409190457057,16.97277513541574,0.8286265872595371,5.878590020725026
176.0,31.241028138760147,17.305042028853848,0.8253073206389403,5.8322722816890575
177.0,30.226115311202847,17.57629478468801,0.8220089912839429,5.787372708435079
178.0,29.268863323034182,17.78393398632424,0.8187355455900233,5.7438732177868355
179.0,28.38130188935245,17.931595746704566,0.8154909522746522,5.7017561431673505
180.0,27.56833470159544,18.027782019469228,0.8122791939115583,5.66100424166967
181.0,26.828895723073003,18.08415690787862,0.8091042570601036,5.621600694257919
182.0,26.157200680487062,18.1138710843417,0.8059701238087211,5.583529112296051
183.0,25.54418232982157,18.130104773384456,0.8028807625085922,5.5467735384609025
184.0,24.978811825070053,18.14493743164418,0.799840118764508,5.511318449252716
185.0,24.44929802733622,18.168537148285008,0.79685210638988,5.477148758102316
186.0,23.9441527035969,18.20865665107145,0.7939205985566916,5.444249817587142
187.0,23.453075522014178,18.27040866230904,0.7910494190800702,5.412607420249884
188.0,22.96761578808441,18.35627514527175,0.7882423340322775,5.382207798761914
189.0,22.481617836576245,18.466300263222553,0.7855030432303908,5.353037628283566
190.0,21.99139926448413,18.598458289269754,0.7828351722672031,5.325084026257669
191.0,21.495702025714944,18.749129106732983,0.7802422634978475,5.298334557279221
192.0,20.995327830399837,18.91367427355365,0.7777277700236856,5.272777228917745
193.0,20.49200029204587,19.08769217059352,0.7753120846244608,5.247925867213498
194.0,19.991003001629263,19.264145520227757,0.772953385542089,5.225027208789326
195.0,19.502041382480826,19.433664522795794,0.7705408072504564,5.207114359861888
196.0,19.02995856862568,19.592710991662315,0.7680803796068575,5.193940134704942
197.0,18.578988106672465,19.738738372844107,0.7655789060462432,5.185259627962788
198.0,18.152889201182635,19.869810680056037,0.7630344009902237,5.181078335777078
199.0,17.754033712385624,19.98554808466962,0.7604631308918858,5.180940945611554
200.0,17.376911524593208,20.09242040389925,0.7580180518487871,5.180940945611554
201.0,17.020221901423128,20.19168077126147,0.7557088862989626,5.180940945611554
202.0,16.682367260009215,20.284648890871082,0.753539828423194,5.180940945611554
203.0,16.36124606390753,20.37274773258206,0.7515148302676131,5.180940945611554
204.0,16.05430779054036,20.45754453382638,0.7496375797839455,5.180940945611554
205.0,15.759315802168027,20.540003519282063,0.7479115018744655,5.180940945611554
206.0,15.474588574847528,20.620424165859063,0.7463397477201075,5.180940945611554
207.0,15.198636482450382,20.698888884712737,0.7449251948768445,5.180940945611554
208.0,14.930203315553634,20.775266674354732,0.743670428935206,5.180940945611554
209.0,14.668308370854481,20.849223066695714,0.7425777382126859,5.180940945611554
210.0,14.412241181435459,20.920267745837496,0.7416491363049862,5.180940945611554
211.0,14.161455759537978,20.98781903547247,0.7408863127290607,5.180940945611554
212.0,13.915576576376482,21.051327962816682,0.7402906639431942,5.180940945611554
213.0,13.674242218766958,21.110230843793584,0.7398632884503886,5.180940945611554
214.0,13.437244840165215,21.1640662542287,0.7396049541457866,5.180940945611554
215.0,13.20426100960254,21.212375549447174,0.7395161401291751,5.180940945611554
216.0,12.975139149021555,21.25485425937412,0.7395970060424722,5.180940945611554
217.0,12.74952195582528,21.291200496612365,0.739847396394507,5.180940945611554
218.0,12.52724089759244,21.321257681157658,0.7402668609952109,5.180940945611554
219.0,12.307890298851289,21.344854672194145,0.7408546118685114,5.180940945611554
220.0,12.091275907090484,21.36194394042478,0.7416095918251518,5.180940945611554
221.0,11.876968812892068,21.372442456885572,0.7425303875656841,5.180940945611554
222.0,11.664768531306015,21.37636547282085,0.7436153420124899,5.180940945611554
223.0,11.45426865750074,21.373674391690347,0.7448624292879669,5.180940945611554
224.0,11.245293500786662,21.364408685600626,0.7462694040711527,5.180940945611554
225.0,11.037502326627123,21.348546254841786,0.7478336463650084,5.180940945611554
226.0,10.830772169205755,21.326127876603362,0.7495523391371728,5.180940945611554
227.0,10.62485972308914,21.297137035311383,0.7514222926066957,5.180940945611554
228.0,10.41971259731879,21.26160832616479,0.7534401398681193,5.180940945611554
229.0,10.215202076702019,21.21953428918263,0.7556021519666221,5.180940945611554
230.0,10.011370850696077,21.17095414041863,0.7579044473891817,5.180940945611554
231.0,9.808205090886219,21.115880325006756,0.7603427778828206,5.180940945611554
232.0,9.606011001607651,21.053989920414086,0.7629035285475744,5.181165442233492
233.0,9.410763158476843,20.980098623481155,0.7654319313269456,5.185299273313086
234.0,9.223786139988862,20.89419607747327,0.7679143300340577,5.193660034894282
235.0,9.045940652482807,20.79661160061405,0.7703461792884265,5.206358529187183
236.0,8.878125830571545,20.687636101955036,0.7727210592506485,5.223567312589639
237.0,8.721161386759034,20.56760175362906,0.7750330846453941,5.245461548843032
238.0,8.57196216525612,20.44056867748013,0.7773784660780853,5.2696016657377935
239.0,8.427442893476515,20.30971114725127,0.779818545022301,5.294348805925885
240.0,8.287446722365011,20.175248024282986,0.7823307992385384,5.32019744686658
241.0,8.15115562766055,20.03802845741205,0.7849117828992737,5.347154523574065
242.0,8.01773826531859,19.89887583107628,0.787557989488053,5.375227249910293
243.0,7.886353522985762,19.758578128180382,0.7902658576696168,5.404423114119944
244.0,7.756723246742116,19.617376918850084,0.7930317795824542,5.434749861016501
245.0,7.6288408452579475,19.47535598971048,0.7958521035656309,5.466215544430581
246.0,7.502758849875847,19.332580927625617,0.7987231475539279,5.498828492417361
247.0,7.378599752210082,19.189116429288934,0.8016412171639622,5.532597140870716
248.0,7.256689751894819,19.044998951701857,0.804602589786497,5.567530318952041
249.0,7.137404259312438,18.90024628833299,0.8076035399391711,5.603637001306615
250.0,7.021174563766464,18.754924591565125,0.8106403443872011,5.640926446483215
251.0,6.908435582292966,18.60914431446258,0.8137092844421749,5.679408069815541
