Time,J,A,S,tau
0.0,100.0,10.0,0.5360353654792245,17.327481028024454
1.0,97.74545266813318,12.64568173002698,0.5359846762345993,17.287308920069652
2.0,93.87296004663307,15.113107626732805,0.5359321173819003,17.24568580039063
3.0,89.02945579035105,17.413843793670207,0.5358777093012121,17.202629432574003
4.0,83.65333418922643,19.55900696567697,0.5358214641662401,17.158151019125707
5.0,78.02221733632801,21.55898350279649,0.5357633948428918,17.112262227851154
6.0,72.3071927494571,23.423477972905452,0.5357035148885444,17.064975189706715
7.0,66.61246475141563,25.16155355419245,0.5356418385507963,17.016302496383393
8.0,61.0010046630322,26.781678579754704,0.5355783807663285,16.966257198015963
9.0,55.510457846984465,28.29175784191832,0.5355131571575026,16.914852799485548
10.0,50.162800828127835,29.699180075862447,0.5354461840299017,16.862103257393553
11.0,44.97022597774153,31.010842452198418,0.5353774783717064,16.808022978339388
12.0,39.938797239693905,32.2331825008197,0.535307057847481,16.75262681358312
13.0,35.0706790738256,33.37220128821659,0.5352349407965923,16.695930056835643
14.0,30.365544293746012,34.4335166322919,0.5351611462265355,16.637948438730202
15.0,25.821466891428102,35.4223585932651,0.5350856938151158,16.57869812723104
16.0,21.435506327871156,36.34361077512069,0.5350086039006147,16.518195720197415
17.0,17.491101429197823,36.91716329938535,0.5349563557557646,16.477472977346117
18.0,14.766252777768502,36.39461282818475,0.5349287282416438,16.456333718422847
19.0,12.902392377764572,35.16709291901808,0.5349014368221148,16.435481926452713
20.0,11.598824175525973,33.553988768645965,0.5348744897222014,16.414922685252
21.0,10.66495750310236,31.757356842034998,0.5348478950502118,16.394660974223022
22.0,9.987805121590048,29.89925541058188,0.5348216607952417,16.374701668204303
23.0,9.505588648151889,28.0514922026814,0.5347957948247243,16.355049537354
24.0,9.190396018216088,26.255252285204808,0.5347703048820232,16.335709247062685
25.0,9.037502288664061,24.533249985802737,0.5347451985841591,16.316685357967827
26.0,9.058837384528765,22.897061864680413,0.5347204834192311,16.297982325709878
27.0,9.278550793874023,21.35156491331305,0.5346961667446888,16.27960450137359
28.0,9.729830290286758,19.89759379825117,0.5346722557848919,16.2615561313252
29.0,10.452074445651675,18.533570014866722,0.5346487576290044,16.243841357317436
30.0,11.488163190270615,17.256502438165622,0.5346256792289991,16.226464216660666
31.0,12.881703824624667,16.06260651311373,0.5346030273976291,16.20942864235406
32.0,14.674277686945855,14.947691897550033,0.5345808088065147,16.19273846328611
33.0,16.90270605599879,13.907472637998723,0.5345590299843179,16.176397404481712
34.0,19.594465664725195,12.939409750333489,0.5345376973149396,16.160409087344377
35.0,22.764910256537092,12.041996197394113,0.5345168170357067,16.144777029876373
36.0,26.416189136417987,11.213777598372431,0.5344963952354731,16.129504646817562
37.0,30.534401332431813,10.45442684551449,0.5344764378533771,16.114595250218834
38.0,35.08688551606431,9.76539921101484,0.5344569506770037,16.10005204959048
39.0,40.02084057052308,9.15045652700348,0.5344379393411998,16.085878152450253
40.0,45.262011379679095,8.616069827972428,0.5344194093261243,16.072076564356998
41.0,50.71497788607597,8.171670536628978,0.5344013659563567,16.05865018960651
42.0,56.2645628896043,7.829711213524285,0.5343838143991038,16.045601831316215
43.0,61.77816689861929,7.605445519446129,0.5343667596630959,16.03293419193778
44.0,67.10829747639357,7.516433703104087,0.5343502065975543,16.02064987377264
45.0,72.09354170435398,7.581755036833603,0.5343341598907921,16.008751379238642
46.0,76.55838920580172,7.820984877748868,0.5343186240691772,15.997241111330005
47.0,80.31368288250978,8.252990958807175,0.5343036034960855,15.98612137404469
48.0,83.16290321684846,8.894654881454322,0.5342891023709149,15.97539437281769
49.0,84.91932267533159,9.759621242175623,0.534275124728152,15.965062214956696
50.0,85.43461815870832,10.856916845258867,0.5342616744366067,15.955126910145484
51.0,84.63220582892399,12.189267119935135,0.5342487551983613,15.945590370751273
52.0,82.5303555379475,13.752181120812608,0.5342363705478982,15.936454412190974
53.0,79.24223115111145,15.533184488774543,0.534224523851963,15.927720753726069
54.0,74.95434814210886,17.511262177475114,0.5342132183085784,15.919391018693306
55.0,69.89076996364082,19.656483593875198,0.5342024569463626,15.911466734901108
56.0,64.27797638022149,21.930054469540057,0.534192242624095,15.903949335125908
57.0,58.32090222116562,24.28490665413302,0.5341825780302216,15.896840157542528
58.0,52.19297999491288,26.666863669128325,0.5341734656824263,15.890140446155215
59.0,46.03709327199755,29.01610614557157,0.5341649079272598,15.883851351227007
60.0,39.97245419194539,31.26832193070524,0.5341569069398211,15.877973929702293
61.0,34.103446956313846,33.35490678658671,0.5341494647234915,15.872509145623429
62.0,28.52793208284244,35.202276325035974,0.5341425831097233,15.867457870540964
63.0,23.342798160348128,36.73180460116262,0.5341362637578273,15.862820883887336
64.0,18.644089820861073,37.863250295646615,0.5341305081550373,15.858598873466274
65.0,14.519633194953295,38.52410436188568,0.5341253176162846,15.854792435746925
66.0,11.034918054535884,38.66443192875342,0.5341206932842328,15.8514020762626
67.0,8.217259062458188,38.27245469406079,0.5341166361292984,15.848428209965878
68.0,6.046335593374791,37.38316717264551,0.5341131469498701,15.845871161651633
69.0,4.456960282264256,36.07467624456312,0.5341102263723675,15.843731166262476
70.0,3.353973973641919,34.452893279046656,0.5341078748514713,15.842008369242935
71.0,2.633243941925114,32.630969904498734,0.5341060926703466,15.840702826855761
72.0,2.2010222378098483,30.71121549054729,0.5341048799409618,15.83981450651268
73.0,1.9864203107520584,28.774426534377326,0.5341042366044365,15.839343287083572
74.0,1.945974538830359,26.877200230342154,0.534104162431436,15.839288959194032
75.0,2.062322113465379,25.05479350082903,0.534104657022645,15.839651225527971
76.0,2.3399127490259315,23.326345835784387,0.534105719809129,15.840429701033056
77.0,2.7998964699755002,21.700146270021786,0.5341073500530729,15.841623913294363
78.0,3.475380765024756,20.177801663681567,0.5341095468482452,15.843233302722734
79.0,4.407252887804514,18.757124453579777,0.5341123091206551,15.845257222810389
80.0,5.6404707759326,17.43395681896728,0.5341156356292321,15.847694940363871
81.0,7.220641880284217,16.203264576776252,0.5341195249665488,15.850545635724854
82.0,9.190787852705611,15.059785176428562,0.5341239755595992,15.85380840298527
83.0,11.58828022644919,13.99843395335941,0.5341289856705702,15.857482250163818
84.0,14.441938471403903,13.014603642863722,0.534134553397787,15.861566099443438
85.0,17.76935627426518,12.104452756806616,0.5341406766767328,15.866058787413579
86.0,21.574390500489255,11.26525424563355,0.5341473532802578,15.870959064844234
87.0,25.845006996777833,10.495810159920454,0.5341545808203491,15.876265597248032
88.0,30.550656334781557,9.79690505039942,0.5341623567491603,15.881976965063686
89.0,35.640761524598666,9.17179818176491,0.5341706783596921,15.888091663559509
90.0,41.04333176547113,8.626600452096937,0.5341795427870143,15.894608103036262
91.0,46.6650353641425,8.170488712329526,0.5341889470095629,15.901524609021417
92.0,52.39257282033797,7.815691212551366,0.5341988878501918,15.908839422307615
93.0,58.095181951324435,7.577199903812953,0.5342093619772901,15.916550698997195
94.0,63.62735174496499,7.4721979447102465,0.534220365906289,15.924656510730289
95.0,68.83037303157062,7.519236818128134,0.534231896000948,15.93315484476461
96.0,73.53224270251977,7.737195120763084,0.5342439484744635,15.942043603926235
97.0,77.54777900592012,8.144077373696708,0.5342565193910066,15.951320606775798
98.0,80.68399480747969,8.75576350721819,0.5342696046672485,15.960983587741959
99.0,82.75575077543148,9.584777819818264,0.5342832000736715,15.971030197106154
100.0,83.61260934632952,10.63913700887892,0.5342973012359867,15.981458001023872
101.0,83.16989606160958,11.921350870701286,0.5343119036371938,15.992264481905224
102.0,81.43351798639692,13.427571288799511,0.5343270026174824,16.00344703745993
103.0,78.50120868372278,15.146905382210836,0.5343425933784981,16.0150029823757
104.0,74.54578352387165,17.060774361897934,0.5343586709827922,16.026929547054834
105.0,69.78162614995983,19.142557243930437,0.5343752303563636,16.039223878192548
106.0,64.43045325028727,21.357484200506317,0.5343922662901747,16.051883038720618
107.0,58.696224978177646,23.66300280076474,0.5344097734419018,16.064904007873565
108.0,52.75319179797268,26.00970570061108,0.5344277463376916,16.078283681240503
109.0,46.74497342668364,28.342665279797128,0.5344461793739497,16.09201887081887
110.0,40.79013458740785,30.60268762796581,0.5344650668191582,16.106106305070817
111.0,34.99029341763112,32.726843460918175,0.5344844028157252,16.12054262898312
112.0,29.43825896060136,34.648032975852985,0.5345041813818614,16.135324404131303
113.0,24.224339500097354,36.29445385969709,0.5345243964134833,16.150448108745525
114.0,19.438656673082097,37.59115768939459,0.5345450416861516,16.16591013778905
115.0,15.167291238681674,38.46622931697642,0.5345661108570366,16.18170680304174
116.0,11.481853671769555,38.86229335033574,0.5345875974669149,16.197834333194436
117.0,8.425474143454688,38.75064275809942,0.5346094949421986,16.214288873957795
118.0,6.001220666467542,38.142228186292584,0.5346317965968715,16.231066488089876
119.0,4.169159141326988,37.08977451878286,0.5346544956347015,16.24816315562109
120.0,2.854288150226342,35.679186449783366,0.5346775851512858,16.26557477394924
121.0,1.9626851059174295,34.013350080155526,0.5347010581361341,16.283297157953978
122.0,1.3998659587444835,32.19448853101605,0.5347249074748328,16.301326040168565
123.0,1.0855848100127452,30.310722686696185,0.5347491259512039,16.31965707094437
124.0,0.9621734898802601,28.429417080826767,0.5347737062494929,16.338285818634585
125.0,0.9966534899294187,26.596694729136203,0.5347986409565857,16.35720776979915
126.0,1.1786708502124477,24.84075725025506,0.5348239225642137,16.376418329400245
127.0,1.516498814964352,23.176566534068023,0.5348495434712236,16.395912821050104
128.0,2.032669342413424,21.610235796733015,0.5348754959858546,16.415686487269884
129.0,2.7599510113069026,20.14243272164829,0.5349017723280111,16.435734489744096
130.0,3.7377889464571536,18.770719533168513,0.5349283646315804,16.456051909619898
131.0,5.009097248991354,17.49103828506971,0.5349552649467625,16.476633747822493
132.0,6.617276610649078,16.298610515110532,0.5349824652424058,16.497474925381546
133.0,8.603382086552806,15.188474506746354,0.5350099574083786,16.51857028379874
134.0,11.00343255412588,14.155819986588147,0.5350377332579461,16.539914585429035
135.0,13.84591667680888,13.196230485581875,0.5350657845301621,16.56150251388705
136.0,17.14948096154923,12.305905191167602,0.5350941028922745,16.583328674476192
137.0,20.920803269410456,11.48190879496858,0.535122679942238,16.605387594755065
138.0,25.152794661532223,10.722503899591544,0.5351515072107439,16.62767372453681
139.0,29.822740579518026,10.027495815467693,0.5351805761643383,16.650181437202175
140.0,34.89062448360038,9.398637361341734,0.53520987820744,16.672905029723626
141.0,40.29818278321031,8.839997442024078,0.5352394046849037,16.695838723343897
142.0,45.968504207986356,8.358224662609453,0.5352691468844849,16.71897666415174
143.0,51.806828422615375,7.962648486815946,0.5352990960394587,16.742312923894982
144.0,57.70238879391948,7.665200742269158,0.5353292433309518,16.76584150041044
145.0,63.53078467515597,7.4800957435252995,0.5353595798905654,16.789556318483175
146.0,69.15606344877018,7.423309793359657,0.5353900968029267,16.81345123063796
147.0,74.43112497262005,7.51185596017224,0.5354207851081186,16.837520017758187
148.0,79.19668867407631,7.762890557992586,0.535451635804303,16.86175639003974
149.0,83.28120633945946,8.192725819550196,0.5354826398502325,16.886153987786127
150.0,86.50580225244259,8.815793967322572,0.5355137881678087,16.910706382314395
151.0,88.69851747707533,9.643637912647094,0.5355450716446394,16.93540707688966
152.0,89.71808953320706,10.683979239156686,0.5355764811366002,16.96024950770566
153.0,89.481639600816,11.939915257819667,0.5356080074704042,16.98522704490307
154.0,87.98562159110999,13.409225514358203,0.5356396414461315,17.01033299352608
155.0,85.3104457835323,15.083820700940603,0.5356713738398325,17.035560594658858
156.0,81.60597846294415,16.94929172198555,0.5357031954061376,17.06090302678267
157.0,77.06472369686291,18.98459013362439,0.535735096880757,17.086353406684374
158.0,71.89131752874836,21.16189610241236,0.5357670689830782,17.111904790752593
159.0,66.27855875346941,23.446782504412695,0.5357991024187405,17.137550176272317
160.0,60.39417599472964,25.798780888630663,0.5358311878822055,17.163282502754367
161.0,54.37753961311305,28.172338986895898,0.5358633160593198,17.1890946532885
162.0,48.34292529356277,30.517954657328314,0.5358954776298761,17.21497945590767
163.0,42.38585000719913,32.78304814518876,0.5359276632701742,17.24092968506218
164.0,36.59010233550776,34.91207749544475,0.5359598636555767,17.266938063142938
165.0,31.034231592266508,36.845821151990506,0.5359920694630554,17.292997262023686
166.0,25.79646470885512,38.52060818390905,0.5360242713737432,17.319099904612212
167.0,20.956483631395383,39.86929643356885,0.5360564600754605,17.34523856652631
168.0,16.592398217733503,40.82594377394715,0.5360886262652419,17.37140577779223
169.0,12.77239714445433,41.334926199629905,0.5361207606518649,17.397594024559808
170.0,9.542987891645323,41.36275386545835,0.5361528539583559,17.42379575089955
171.0,6.918151821289745,40.90842619567724,0.5361848969244927,17.450003360630266
172.0,4.87432209961061,40.00764970369602,0.5362168803093232,17.476209219203326
173.0,3.353992958573227,38.72856398547583,0.5362487948935784,17.50240565566329
174.0,2.2769470603324464,37.16015585515766,0.536280631482191,17.528584964602377
175.0,1.5552927316569725,35.39750428087477,0.5363123809067385,17.554739408199723
176.0,1.1075221347606041,33.52859769687198,0.5363440340278821,17.580861218303657
177.0,0.8682948813438798,31.6258504329363,0.5363755817377934,17.606942598561137
178.0,0.792994858107684,29.742995248815095,0.5364070149625658,17.632975726596992
179.0,0.8579879969759676,27.916144519944496,0.5364383246646074,17.658952756241728
180.0,1.058292657941187,26.16710020703005,0.5364695018450273,17.68486581980611
181.0,1.4041971824041675,24.507245001369096,0.5365005375459951,17.710707030405946
182.0,1.917786988083359,22.941000576767266,0.5365314228530806,17.736468484334615
183.0,2.629779552705506,21.46846370945923,0.5365621488975814,17.762142263481987
184.0,3.576700655790498,20.087223563816124,0.5365927068588375,17.787720437799084
185.0,4.798300445114219,18.79353057308713,0.5366230879665062,17.813195067812686
186.0,6.335120608082035,17.583014517055712,0.5366532835028421,17.838558207181688
187.0,8.226161800820215,16.4511172748379,0.5366832848049377,17.86380190530213
188.0,10.506658405125588,15.393358040849012,0.536713083266939,17.88891820995428
189.0,13.206003955495367,14.405512838519314,0.5367426703422684,17.91389916999508
190.0,16.34586427229183,13.483762868877509,0.5367720375457827,17.93873683809196
191.0,19.938448470542266,12.624849285379554,0.5368011764558722,17.963423273485326
192.0,23.985119298332343,11.826281231965043,0.5368300787168959,17.98795054486724
193.0,28.475097970755716,11.086583970482812,0.5368587360409985,18.012310733200685
194.0,33.384031240934526,10.405585090456206,0.5368871402100087,18.03649593454267
195.0,38.67317532705742,9.784774339848394,0.5369152830781062,18.06049826314458
196.0,44.288695833523164,9.227598263002186,0.5369431565731698,18.08430985423704
197.0,50.16153035361618,8.739736033689473,0.5369707526994365,18.107922867235086
198.0,56.208119322335236,8.329219913229037,0.5369980635388845,18.131329488580935
199.0,62.33191080914511,8.006449007728845,0.5370250812537729,18.15452193503249
200.0,68.42538529847786,7.783990051325317,0.5370517980880553,18.177492456571645
201.0,74.37189199754901,7.676234114196579,0.5370782063696438,18.20023333968636
202.0,80.0460802035049,7.698851711900213,0.5371042985121366,18.222736910477792
203.0,85.31278702100244,7.868114251259355,0.5371300670166864,18.244995537859744
204.0,90.02497183554266,8.200094094656109,0.537155504473818,18.267001636772907
205.0,94.02361805544828,8.709799002129271,0.53718060356528,18.28874767145741
206.0,97.1434250918459,9.410289256999295,0.537205357065809,18.310226158718525
207.0,99.22722923179874,10.311839546285402,0.5372297578448255,18.331429671184807
208.0,100.14802403085446,11.421181344761223,0.5372537988681042,18.352350840578527
209.0,99.83326560963843,12.74085628615222,0.5372774731996612,18.37298236116223
210.0,98.28206549753725,14.26871047735046,0.5373007740031924,18.393316992928266
211.0,95.56851616342506,15.99743969096901,0.5373236945440927,18.41334756521273
212.0,91.82927599013698,17.914333385598,0.5373462281903583,18.43306697955188
213.0,87.24068706502483,20.001019740716544,0.5373683684149022,18.452468213567183
214.0,81.99256872251743,22.233414077893407,0.537390108796663,18.47154432401237
215.0,76.26677111147163,24.581817697054625,0.537411443022293,18.490288450258898
216.0,70.22415019444897,27.011300823428357,0.5374323648877739,18.508693817762968
217.0,64.0001522506861,29.48243380691708,0.5374528682996593,18.526753741250083
218.0,57.70634429285799,31.95224604913438,0.5374729472766095,18.544461628140414
219.0,51.435103448388766,34.37515777316939,0.5374925959510075,18.56181098207438
220.0,45.26543896943422,36.70345590647139,0.5375118085701144,18.578795406053064
221.0,39.26880053277284,38.88689995159821,0.5375305794974685,18.595408605786943
222.0,33.51445443253171,40.87149377840877,0.5375489032144853,18.611644393244262
223.0,28.073613805005294,42.59829758900592,0.5375667743215651,18.627496689757677
224.0,23.020910434666195,44.003896227085875,0.5375841875393805,18.642959529284795
225.0,18.431654024090797,45.02432836203518,0.5376011377103139,18.658027061816064
226.0,14.374229690725103,45.60324206925877,0.5376176197996406,18.672693556537816
227.0,10.899091606191401,45.70289171637254,0.5376336288967819,18.686953405051376
228.0,8.027940040280559,45.31447978577061,0.5376491602165353,18.700801124560652
229.0,5.747420904080732,44.463680596885226,0.5376642091002898,18.714231361033715
230.0,4.010290438960962,43.208705460169604,0.5376787710171492,18.727238892245573
231.0,2.7439318582893706,41.63125656997273,0.5376928415651372,18.73981863089331
232.0,1.863398719805162,39.8234465424524,0.5377064164723387,18.751965627619814
233.0,1.2848746287272061,37.87484195321479,0.5377194915980177,18.763675073987258
234.0,0.9361633165271137,35.86292368532954,0.5377320629337201,18.77494230540212
235.0,0.7626774066729729,33.84830048610073,0.5377441266043601,18.785762803993357
236.0,0.7291949757369848,31.874180590775204,0.5377556788692869,18.796132201430847
237.0,0.8186804801519794,29.968610327062944,0.5377667161233342,18.80604628168598
238.0,1.02963564814555,28.1478876589287,0.5377772348978761,18.815500983762757
239.0,1.373049504397002,26.419995362534245,0.5377872318618095,18.82449240429087
240.0,1.8695413846195434,24.7874473262578,0.5377967038225775,18.833016800124483
241.0,2.546858763406169,23.249387906573215,0.5378056477271522,18.841070590842104
242.0,3.4376804785881996,21.803016014878267,0.5378140606629889,18.848650361156878
243.0,4.5776178638878875,20.44449698972576,0.5378219398590047,18.85575286330027
244.0,6.0033163855959595,19.16952489652874,0.5378292826864963,18.86237501927333
245.0,7.750613209871757,17.973663037154488,0.5378360866600694,18.86851392304932
246.0,9.852746876386506,16.852553853367752,0.5378423494385516,18.874166842690894
247.0,12.338651003629808,15.802060111527748,0.5378480688258637,18.879331222350903
248.0,15.231354680207305,14.818379436369643,0.5378532427718744,18.884004684178688
249.0,18.5465160780955,13.89816586878164,0.5378578693734094,18.88818503035009
