Time,J,A,S,tau
0.0,100.0,10.0,0.889030934430583,10.736651250558793
1.0,97.29186463153049,10.778699832536708,0.8804030527021577,10.438407206509531
2.0,94.45479740948612,11.528717974628393,0.8708730734824937,10.126132752546857
3.0,91.50857036854285,12.247261357505943,0.8604166389227039,9.801049085402102
4.0,88.47115790375996,12.931947749966628,0.8490081074355568,9.464219119100306
5.0,85.35991140042468,13.580483637504482,0.8366265672995774,9.11670995566643
6.0,82.19149724624738,14.19068643967266,0.823256481378592,8.759587050834535
7.0,78.98192932524731,14.76050644039522,0.8088882997349675,8.393908593670929
8.0,75.74662984016695,15.288050356428698,0.7935190498580398,8.020720028642886
9.0,72.90342707566391,15.38084624173111,0.7851688311541605,7.954421796051804
10.0,70.13398323773436,15.383428557091094,0.7765712573437628,7.8996662878086825
11.0,67.43114423821453,15.315914242183204,0.7676245365063972,7.852139690162038
12.0,64.79344098625182,15.191898933968417,0.7583254382977976,7.8114334881315495
13.0,62.220481592183546,15.023066240158677,0.7486719953850309,7.7771626424187925
14.0,59.71270453713066,14.819368489097409,0.7386635989879449,7.748963621543448
15.0,57.27102386322155,14.589245628595732,0.7283011091377458,7.726492903512462
16.0,54.895868447343496,14.340427437108188,0.7175838760414838,7.709545397378272
17.0,52.57470066396121,14.091891783346545,0.7064808028680811,7.699133255492167
18.0,50.30082255281469,13.854633132943297,0.6950601933277533,7.692535560127005
19.0,48.072696622540164,13.633143549225675,0.6833457789045376,7.688994664875558
20.0,45.88868803644364,13.430919201833861,0.6713635935435924,7.687805400571713
21.0,43.74717802614077,13.25055230548661,0.6591420833179591,7.688303353229259
22.0,41.64676650792873,13.093766020155828,0.6467119841223997,7.689861513417303
23.0,39.58648963236463,12.96142211226506,0.6341061610737683,7.691887135637122
24.0,37.565810436089926,12.853858992481713,0.6213817946457262,7.693121945833251
25.0,35.58566381950558,12.769779426543563,0.6085743594778603,7.693126694502755
26.0,33.64935398154148,12.705771417547554,0.5956645782863282,7.693126694502755
27.0,31.760310432574837,12.65837191269822,0.5826724543050225,7.693126694502755
28.0,29.922506183080003,12.623674613616938,0.5696187554710833,7.693126694502755
29.0,28.140163658476393,12.597534856884756,0.5565247376142668,7.693126694502755
30.0,26.417458777316625,12.575764740689138,0.5434120269487936,7.693126694502755
31.0,24.75824477842897,12.554311988573913,0.5303024962984183,7.693126694502755
32.0,23.165826813444276,12.529402929183878,0.517218137749465,7.693126694502755
33.0,21.64278171128614,12.497665180742814,0.5041809332349423,7.693126694502755
34.0,20.190835461582306,12.456223614632897,0.49121272464265037,7.693126694502755
35.0,18.810856870261784,12.402699249050743,0.47833508326405544,7.693126694502755
36.0,17.502927281014404,12.335187150969071,0.4655691878455132,7.693126694502755
37.0,16.266443600882894,12.25222174423054,0.45293570287505636,7.693126694502755
38.0,15.100193852680245,12.152734598483569,0.4404546512512288,7.693126694502755
39.0,14.002383580721459,12.036007412494197,0.42814530089879005,7.693126694502755
40.0,12.971070548011927,11.901606203374067,0.41602613765647595,7.693126694502755
41.0,12.003935112182578,11.749385959204195,0.404114641034733,7.693126694502755
42.0,11.098297966868625,11.579438350201137,0.3924273014139197,7.693126694502755
43.0,10.251735959003195,11.39205123897428,0.38097957769477236,7.693126694502755
44.0,9.46144166850178,11.187735978772794,0.36978571943753746,7.693126694502755
45.0,8.72466647952713,10.967182130476067,0.35885881359845845,7.693126694502755
46.0,8.03867872646227,10.731248493941294,0.34821074508240446,7.693126694502755
47.0,7.400868298143485,10.4809463485405,0.33785217596768063,7.693126694502755
48.0,6.808650999395714,10.217431513647979,0.3277925049542586,7.693126694502755
49.0,6.25946741320191,9.941983047512327,0.31803989654105747,7.693126694502755
50.0,5.750871607349127,9.655978051712625,0.30860132450412997,7.693126694502755
51.0,5.280448982500812,9.360877620440716,0.2994825503246225,7.693126694502755
52.0,4.84590471140994,9.058197656333784,0.29068819388147504,7.693126694502755
53.0,4.445038051846727,8.749487121246663,0.28222177173604096,7.693126694502755
54.0,4.075722775948567,8.436305439870797,0.2740857494282602,7.693126694502755
55.0,3.7359150024586003,8.1201995078335,0.2662816059183756,7.693126694502755
56.0,3.4236551302149616,7.802682524552876,0.2588099016720273,7.693126694502755
57.0,3.1370741060161804,7.485214568696734,0.2516703509198016,7.693126694502755
58.0,2.8743843738886397,7.169186355889745,0.24486190170476912,7.693126694502755
59.0,2.63386366269175,6.855904358319244,0.23838280229779837,7.693126694502755
60.0,2.4138875276192455,6.546578838003403,0.23223069268328872,7.693126694502755
61.0,2.2129139795379196,6.242315044156879,0.22640268153291576,7.693126694502755
62.0,2.029483260640979,5.9441069095523895,0.22089542648827723,7.693126694502755
63.0,1.8622174454134028,5.652833341433838,0.21570521331879103,7.693126694502755
64.0,1.709831707112581,5.369257241956856,0.21082803416046472,7.6931266943317596
65.0,1.621797625583228,5.040863468871072,0.1880747732140735,8.171182693568822
66.0,1.5756605477368433,4.6761662327722355,0.15148529333722585,9.171182613152427
67.0,1.5126402756738084,4.336493583515696,0.12176089033409783,10.17118253622936
68.0,1.438615944166712,4.020339970725087,0.09768207059149771,11.171182459306293
69.0,1.3581671352822133,3.7262660710262514,0.07822868323530265,12.171182382383225
70.0,1.274798799168385,3.452898468008323,0.0625515040710288,13.171182305460158
71.0,1.1911375897273833,3.198929013991933,0.049946878850274386,14.171182228537091
72.0,1.1091008692515514,2.963113917010627,0.03983434958762636,15.171182151614024
73.0,1.0300403488537058,2.744272582026595,0.031737096154891065,16.171182074690957
74.0,0.9548626829637533,2.541286247133922,0.02526499779328656,17.17118199776789
75.0,0.8841295462710533,2.353096427673215,0.020100066580102667,18.171181920844823
76.0,0.8181396929879929,2.178703204950737,0.015984025784024858,19.171181843921755
77.0,0.7569954607538419,2.017163386342817,0.012707792184173984,20.17118176699869
78.0,0.700656026104565,1.8675885605128115,0.01010262878784475,21.17118169007562
79.0,0.6489795198470003,1.7291430709885762,0.008032749073946216,22.171181613152555
80.0,0.6017558902187953,1.6010419296197478,0.006389170699437308,23.171181536229486
81.0,0.5587321730366182,1.4825486896679598,0.005084635445806648,24.17118145930642
82.0,0.5196316031892966,1.3729732965061074,0.004049431816365092,25.171181382383352
83.0,0.48416778885308925,1.271669931770514,0.0032279761153960864,26.171181305460287
84.0,0.4520549752224278,1.1780348657282773,0.002576026724308285,27.17118122853722
85.0,0.42301525113100596,1.0915043337612673,0.0020584240207736086,28.171181151614153
86.0,0.3967833902964378,1.011552440917654,0.0016472624745668173,29.171181074691084
87.0,0.37310989721181786,0.9376891098884204,0.0013204184117399697,30.17118099776802
88.0,0.3517627089891399,0.8694580793213249,0.0010603677535397575,31.17118092084495
89.0,0.33252791101504886,0.8064349591245891,0.0008532393305391526,32.17118084392189
90.0,0.3151857803959056,0.7482495492142512,0.0006964162075651766,33.10843004773805
91.0,0.2992930716054631,0.69483943779759,0.0006831639298490904,33.11094320688048
92.0,0.285083197189924,0.6454842179969287,0.0006742995686815266,33.11094320688048
93.0,0.2723851260469009,0.5998759489035055,0.000669355463755158,33.11094320688048
94.0,0.2610480048568827,0.557729315532167,0.0006682587011116968,33.11094320688048
95.0,0.25093951492129757,0.518779838357597,0.0006709932448573754,33.11094320688048
96.0,0.2419432844226028,0.4827826008007835,0.0006775992719531722,33.11094320688048
97.0,0.23395720553690888,0.44951073932887536,0.0006881740277976455,33.110943206880556
98.0,0.1648800424649495,0.4855932039574909,0.2100637103798642,7.693172422426992
99.0,0.16569470844999107,0.46244669057059173,0.21489136577679918,7.693172357900244
100.0,0.1667644452347689,0.44090241450068046,0.22003125378365382,7.69317235790025
101.0,0.1681321560233483,0.42087028883180216,0.22548741724036225,7.69317235790025
102.0,0.16983642733553087,0.4022650133917739,0.23126361477583804,7.69317235790025
103.0,0.17191406557499644,0.3850058483454012,0.23736324320485408,7.69317235790025
104.0,0.17440069276482037,0.3690167520806017,0.2437892606609545,7.69317235790025
105.0,0.17733159236685353,0.35422641135049593,0.25054410692853946,7.69317235790025
106.0,0.17983211558886025,0.3415479919986752,0.25762963117115384,7.69317235790025
107.0,0.18255558920843323,0.33051699545840535,0.2650469828804276,7.69317235790025
108.0,0.18599557346306556,0.32063343014609613,0.2727965611440966,7.69317235790025
109.0,0.1901893266330671,0.31185322998106313,0.28087794696254276,7.69317235790025
110.0,0.19518533306687447,0.30413855681306723,0.28928980178702723,7.69317235790025
111.0,0.20104332064293504,0.2974579394240554,0.29802980934038614,7.69317235790025
112.0,0.20783552120574472,0.291786068443611,0.3070946217457455,7.69317235790025
113.0,0.21564854748913906,0.28710313917829255,0.31647978958837547,7.69317235790025
114.0,0.22455642683154312,0.28342586221237676,0.3261797240386069,7.69317235790025
115.0,0.23465372783197214,0.2807834849422421,0.33618765629276337,7.69317235790025
116.0,0.24608139271912396,0.27918973635839,0.3464956028889858,7.69317235790025
117.0,0.25900312600652053,0.278667891201336,0.3570943520213242,7.69317235790025
118.0,0.27360916790982687,0.279251752311477,0.36797345251785335,7.69317235790025
119.0,0.2901204999874268,0.2809867014742853,0.37912122228937395,7.69317235790025
120.0,0.3087943475428669,0.28393082846773676,0.3905247607834706,7.69317235790025
121.0,0.3299298826175583,0.2881563490428958,0.4021699841093904,7.69317235790025
122.0,0.3538742500159817,0.2937529206503972,0.414041659230751,7.69317235790025
123.0,0.3810292484082472,0.30083139161072864,0.42612346696248043,7.69317235790025
124.0,0.4118630129218076,0.3095249599453549,0.43839806629041184,7.69317235790025
125.0,0.44692196786119487,0.31999248913609457,0.45084716697082344,7.69317235790025
126.0,0.48684288298593126,0.33242237339941094,0.46345162672223794,7.69317235790025
127.0,0.5323680161261903,0.3470375506648374,0.4761915447776514,7.69317235790025
128.0,0.584362385058268,0.36410079339707013,0.48904637195854395,7.69317235790025
129.0,0.6438321369815156,0.3839216730371815,0.5019950246703273,7.69317235790025
130.0,0.7119471173971581,0.4068641775206806,0.5150160054012253,7.69317235790025
131.0,0.7900614644789046,0.4333566504651994,0.5280875295459968,7.69317235790025
132.0,0.8797412542093496,0.46390269889223784,0.5411876517126522,7.69317235790025
133.0,0.9827874731125648,0.49909447359424813,0.5542943968603407,7.69317235790025
134.0,1.1012603898123627,0.5396279724924865,0.5673858891954809,7.69317235790025
135.0,1.2374997297286727,0.5863210833017365,0.5804404798859351,7.69317235790025
136.0,1.394138402478849,0.640134323491673,0.5934368712843708,7.69317235790025
137.0,1.5741023855512593,0.7021947081865345,0.6063542362734521,7.69317235790025
138.0,1.7805904756837816,0.773822966115074,0.6191723314757371,7.69317235790025
139.0,2.016910783235392,0.8566898323449317,0.6319164513157568,7.692158680560433
140.0,2.2866534515091375,0.9526551521726064,0.6445660185306125,7.690106242994567
141.0,2.5935207995852188,1.0636623081525207,0.6570401396465492,7.688428380089487
142.0,2.9408523657793597,1.1920292463921147,0.6692985623375239,7.687714024129447
143.0,3.33139572185891,1.340372808346296,0.6813034735062637,7.688580239933372
144.0,3.7668671692934477,1.5116147187873015,0.6930198666187279,7.6916706986584575
145.0,4.247406251109389,1.70897207500231,0.7044158600075924,7.697653828643331
146.0,4.770941390536346,1.9359258043619043,0.7154629612217057,7.7072206500109415
147.0,5.333025782922039,2.1955963269606342,0.7260773810160086,7.7227236185362695
148.0,5.924781269171471,2.492121712605381,0.736289088450198,7.7435759032367315
149.0,6.533619165198617,2.8295460358635824,0.7461098527184316,7.769687121035603
150.0,7.142991503504323,3.211657722552606,0.7555419372931377,7.801272643239817
151.0,7.732647865283683,3.6418337925845146,0.764589190489465,7.8385498320348415
152.0,8.27960944969955,4.122724567713259,0.7732568870924702,7.881737829261657
153.0,8.759797042667277,4.655883178730726,0.7815515700076533,7.931057317678718
154.0,9.150207108060732,5.241361290578724,0.7894808941061897,7.986730253579569
155.0,9.431409196474034,5.87726505593378,0.79705347398366,8.04897957042553
156.0,9.589863308278854,6.559434078481642,0.8042787379034083,8.118028850669974
157.0,9.61955774993153,7.281350121342074,0.8111667890997751,8.19410196310484
158.0,9.52290123007554,8.034031040919508,0.8177282732011213,8.277422674175655
159.0,9.31053800334389,8.806213915135498,0.8239742572809545,8.368214226254564
160.0,9.000089758872509,9.584833647593955,0.8299161151491312,8.466698885091214
161.0,8.61422150585227,10.355748029330368,0.8355654239653978,8.573097460888912
162.0,8.178314643497494,11.104672054864906,0.8409338710745318,8.687628788193107
163.0,7.718162125268064,11.8182002813401,0.8460331691901218,8.810509190080205
164.0,7.257987998969446,12.484776304212387,0.8508749814187371,8.941951914150428
165.0,6.81898774596871,13.095467531907426,0.8554708554240749,9.082166545855547
166.0,6.418480781328267,13.644426463119336,0.8598321662551784,9.231358402682883
167.0,6.06964550979752,14.128998244498579,0.8639700673787863,9.389727913005759
168.0,5.7817318744873605,14.549500136134084,0.8678954489406276,9.557469981384271
169.0,5.560607459262347,14.908747615838166,0.8716189050558802,9.73477335607945
170.0,5.409469497367283,15.211444948376718,0.8751507036463932,9.92181996224283
171.0,5.329597662305836,15.463532056540409,0.8785007680954003,10.118784265898196
172.0,5.321037432365379,15.671587955883405,0.8816786598719815,10.325832665143583
173.0,5.383136875926842,15.84234618065312,0.884693565985318,10.543122844510972
174.0,5.514928946630612,15.982334951495313,0.887554292734145,10.7708031744323
175.0,5.715359717251473,16.097641972399206,0.8902692621860542,11.009012125444091
176.0,5.983385881253349,16.19378340181579,0.8928465123392668,11.257877711353004
177.0,6.3179725003842115,16.275651904578606,0.8952936994312803,11.517516956076447
178.0,6.718022858545589,16.347520281083703,0.8976181056415916,11.788035462958808
179.0,7.182269614234422,16.413074575970665,0.8998266425831876,12.069526894315423
180.0,7.709151399559206,16.475467412701263,0.9019258647415601,12.362072686217338
181.0,8.296691900753666,16.537373978907645,0.903921976382612,12.665741626507698
182.0,8.942396058288113,16.601048883442804,0.9058208441380047,12.98058959587448
183.0,9.64317250014477,16.66837808086143,0.9076280092481931,13.306659340571489
184.0,10.395286736053773,16.740924371440705,0.9093487007502995,13.643980323027575
185.0,11.194355390540233,16.81996851701262,0.9109878474672202,13.99256855495113
186.0,12.035363727507194,16.9065410636053,0.9125500928050351,14.352426609216645
187.0,12.912721629350646,17.001451377204692,0.9140398079596741,14.723543624782215
188.0,13.82034496306641,17.10531181681402,0.915461105381571,15.105895385420753
189.0,14.751758384574345,17.218558578362178,0.9168178520958724,15.499444458457598
190.0,15.700213463909334,17.34146983193749,0.918113682796036,15.904140392847934
191.0,16.658815494343834,17.47418206193438,0.9193520126195942,16.31991997325542
192.0,17.620653002878395,17.616704909704428,0.9205360495482339,16.746707527144828
193.0,18.57892428262826,17.768934949629372,0.921668806387027,17.18441528141395
194.0,19.527055993403284,17.93066879582909,0.9227531122887922,17.632943764666443
195.0,20.458810092681784,18.10161557154887,0.9237916237992909,18.092182250871808
196.0,21.368375452305806,18.281408906975507,0.9247868354184177,18.56200922766972
197.0,22.25044605151242,18.469618228944444,0.9257410895284534,19.04229293611652
198.0,23.10027560450112,18.665760097836916,0.9266565862776311,19.532891886161696
199.0,23.913723052948406,18.869308463709782,0.9275353920571309,20.033655424784232
200.0,24.687274660820158,19.07970471246719,0.9283794482592593,20.54442430691918
201.0,25.418049143452915,19.29636724314994,0.9291905794454108,21.06503126372013
202.0,26.103782589072257,19.518699794942357,0.9299705027361448,21.595301758517998
203.0,26.7428394108161,19.746098932851016,0.9307208310110615,22.13505449035517
204.0,27.334161299352555,19.97796305947536,0.9314430789240351,22.684101450529173
205.0,27.87718135420137,20.21369513926672,0.932138682975964,23.24224999798725
206.0,28.371929135759938,20.452714781721966,0.9328089766138777,23.809301209800434
207.0,28.81875578851112,20.694452163062138,0.9334552417278075,24.385053748172904
208.0,29.218510752100496,20.93836734151602,0.9340786601806584,24.96929995561599
209.0,29.572297523601947,21.18393576674898,0.9346803705569123,25.561831192509672
210.0,29.881567533572067,21.430669763149893,0.9352614256889161,26.162433760377525
211.0,30.147962840619854,21.67810174896421,0.9358228381938708,26.77089389787134
212.0,30.3733328385019,21.92580241400129,0.9363655504530348,27.386994058274066
213.0,30.55964965833292,22.173367822736775,0.9368904635236982,28.01051627709555
214.0,30.70899634861765,22.42043175369839,0.9373984210107453,28.641241416403506
215.0,30.823503549576962,22.666654950379577,0.9378902281519225,29.27894946365968
216.0,30.905333797664966,22.91173309391908,0.9383666432321962,29.923420807435328
217.0,30.95664258706005,23.15539170894442,0.9388283857948532,30.574435096939965
218.0,30.979561399974866,23.397385278324276,0.939276139651963,31.231773167993165
219.0,30.976166887834903,23.637500382311924,0.9397105494455562,31.89521588455086
220.0,30.948481779251445,23.875547019366973,0.940132232232617,32.5645452929956
221.0,30.898436378330675,24.111366399176923,0.9405417683699614,33.23954461767558
222.0,30.82788919517383,24.344820525537607,0.9409397140202633,33.91999794456968
223.0,30.738589905517006,24.575797892339544,0.9413265945643475,34.6056914348958
224.0,30.6321979939731,24.804207652984037,0.9417029111198376,35.29641211463497
225.0,30.510269043165927,25.029979227189063,0.9420691409332284,35.99194926698641
226.0,30.374250602882825,25.253062697188284,0.9424257363436036,36.69209351417721
227.0,30.225500683283656,25.473423213815302,0.9427731312788812,37.39663737928131
228.0,30.065260884451337,25.691044957108687,0.9431117356736807,38.10537535799149
229.0,29.894694833412668,25.90592425515251,0.9434419438066933,38.81810327537311
230.0,29.714851434867057,26.118073470562237,0.9437641282471609,39.534619541018195
231.0,29.52671220661747,26.327514926459227,0.9440786478730051,40.2547234500343
232.0,29.33115440600697,26.53428408013303,0.944385842191983,40.97821679911936
233.0,29.128993430853715,26.738424884728282,0.9446860380431049,41.70490214704858
234.0,28.920948807513557,26.939992015128812,0.9449795444665956,42.434584562864515
235.0,28.707695643669876,27.1390460885008,0.9452666609678467,43.16706945615162
236.0,28.48981305944869,27.335657783515092,0.9455476682178073,43.90216448440611
237.0,28.26784619922189,27.529901300590137,0.9458228399325385,44.63967796965555
238.0,27.975518376496797,26.26765285086108,0.9460924347433874,45.379419001618565
239.0,27.628051697451202,23.962046005715127,0.9463567006658046,46.121197573822805
240.0,27.28349542926346,21.885350723032555,0.9466158748774695,46.86482425855188
241.0,26.941683928647958,20.01462420716279,0.9468701842120318,47.610109963770164
242.0,26.602448729338448,18.32923721311937,0.947119845612348,48.35686569311846
243.0,26.26561889072951,16.810670220572785,0.94736506656555,49.10490229981271
244.0,25.931021282688413,15.442279100312101,0.9476060454514674,49.854030210647984
245.0,25.598480862720514,14.209115259533226,0.9478429719577728,50.604059146554405
246.0,25.267820883524383,13.097739819781733,0.9480760273454023,51.35479780713689
247.0,24.938863102108165,12.096079996120219,0.948305384807143,52.106053557721495
248.0,24.61142793245559,11.19327755347187,0.9485312096888675,52.857632073217246
