Time,J,A,S,tau
0.0,100.0,10.0,0.9766397152291073,9.553345841260699
1.0,99.10793570476115,10.795194112232048,0.975182480753052,9.142802615046946
2.0,98.08610836549752,11.592831751696503,0.9734760280789637,8.693809042936106
3.0,96.94199050610358,12.390299434746472,0.9714982590284776,8.207436788276226
4.0,95.68311847485116,13.18524295326236,0.9692253097512056,7.684598229857622
5.0,94.31711348508702,13.975234009201483,0.9666324582705972,7.126261483302909
6.0,92.85139776568137,14.757783437161999,0.9636942091385249,6.53344130513448
7.0,91.60261712083825,15.22722571454308,0.961479328892284,6.223017242554343
8.0,90.53772319064369,15.443246916304663,0.9596530638624188,6.07389133616355
9.0,89.51952821191072,15.551333001846846,0.957717403801479,5.936836040171535
10.0,88.53802123239119,15.567000657892196,0.9556678230808922,5.810723469904793
11.0,87.58352262624517,15.504503769465007,0.9534997882131669,5.694547161356959
12.0,86.64705299075464,15.3767273703535,0.9512087820792773,5.587407475523462
13.0,85.70674706721952,15.208618888142857,0.9487903232362541,5.488497490117046
14.0,84.74357934281706,15.020779906643385,0.9462399963475279,5.397092580907383
15.0,83.75028283257463,14.821415826666497,0.9435534763113594,5.3125401765369755
16.0,82.72104243800337,14.616953222778323,0.9407265586721791,5.23425186487762
17.0,81.65091748836069,14.412675313464781,0.9377551904418026,5.161696104977788
18.0,80.53574863242312,14.212852025647194,0.9346355019013913,5.094391791477186
19.0,79.37273161627458,14.020237569099098,0.9313638406280867,5.031903073895898
20.0,78.15986548311322,13.83670967327755,0.9279368084559521,4.9738345850455845
21.0,76.89559750740395,13.663670163146115,0.9243512906738917,4.919826759051605
22.0,75.57882316062583,13.502092540992638,0.9206045006230951,4.869552597148091
23.0,74.20892671037119,13.352535548992044,0.9166940333823399,4.822715594488232
24.0,72.78570226814125,13.215245200707713,0.9126178420340306,4.779043352630336
25.0,71.3094375365011,13.09017826663847,0.9083743707857012,4.738289364443631
26.0,69.78085402818297,12.977046500857705,0.9039625067476375,4.700227713270042
27.0,68.20113306670439,12.875365672097042,0.8993816290518556,4.664651114224975
28.0,66.57201070390653,12.784446255377272,0.8946317449897374,4.631372435484983
29.0,64.89560958782837,12.703487800438499,0.8897133177809486,4.60021720949225
30.0,63.174644449993295,12.63155886206794,0.8846275711881532,4.5710289939963245
31.0,61.412184079912436,12.56766794922846,0.8793762050911995,4.543661323648778
32.0,59.611847856640054,12.51078106001933,0.8739617536813067,4.517982673417807
33.0,57.7775821703946,12.459845236721026,0.868387278958784,4.493870070954981
34.0,55.91379048934474,12.413833406594566,0.8626566979787177,4.471212509528341
35.0,54.02517157083584,12.371736867068817,0.8567745361233691,4.449906742732829
36.0,52.116746769212156,12.332599430101332,0.8507460863013023,4.429858331045938
37.0,50.193807134022926,12.295523735478588,0.8445774124350981,4.410980771271246
38.0,48.26183791819088,12.25967152443514,0.8382752603763122,4.393194018278548
39.0,46.326496904194755,12.224274672053397,0.8318471362899142,4.376424659839368
40.0,44.393549689117165,12.18863171748086,0.8253012852942316,4.3606052636531025
41.0,42.468807839558366,12.152102957009133,0.8186466068796424,4.345673375992406
42.0,40.558095802715926,12.114114714290109,0.8118927337614283,4.331571785651478
43.0,38.66716469642451,12.074150819446503,0.8050499311400319,4.318247634283615
44.0,36.80164963953315,12.03175126957268,0.7981290877628657,4.305652183505453
45.0,34.96701669040194,11.986508468044697,0.7911416798212157,4.293740482233057
46.0,33.168500964799094,11.938065288630531,0.7840997408516812,4.282471133539536
47.0,31.41104549507807,11.886111942813093,0.7770157586891312,4.271806813457636
48.0,29.699254886890355,11.830387782284522,0.7699028662857269,4.261708492123023
49.0,28.037470946659823,11.770586432513792,0.7627694349665024,4.252255960438698
50.0,26.43082076260739,11.705218458062841,0.7555487699195947,4.245150632334097
51.0,24.882740802691288,11.63411662452674,0.7482471698019446,4.240375864089332
52.0,23.3960790553754,11.557247326794217,0.7408769221712497,4.237801608311727
53.0,21.97323139471453,11.474553329356299,0.7334467966339263,4.237387925885926
54.0,20.614661220905134,11.387361624430932,0.7260535676843082,4.237387925885926
55.0,19.32131322273638,11.296046788755492,0.7187328041931663,4.237387925885926
56.0,18.093913219418752,11.200697601140677,0.7114999115365285,4.237387925885926
57.0,16.932822473894603,11.10142391545497,0.7043702080180596,4.237387925885926
58.0,15.83780889971716,10.998362585851265,0.6973588154210679,4.237387925885926
59.0,14.808344456421523,10.89165285058711,0.6904807003777271,4.237387925885926
60.0,13.843311365566896,10.78148406824397,0.683750432434634,4.237387925885926
61.0,12.94188581543295,10.668036522175896,0.6771823619608348,4.237387925885926
62.0,12.102052477206033,10.55158098630638,0.6707903950731771,4.237387925885926
63.0,11.321834519571398,10.432400211875754,0.6645880304671595,4.237387925885926
64.0,10.599003791995324,10.310807641135197,0.6585882846613723,4.237387925885926
65.0,9.931128662090378,10.187143689565639,0.6528036666473827,4.237387925885926
66.0,9.315620432252778,10.061772001576465,0.6472461512910487,4.237387925885926
67.0,8.749809260722564,9.935074046260128,0.6419271545774189,4.237387925885926
68.0,8.230911815662823,9.807450368030894,0.6368574995694195,4.237387925885926
69.0,7.756134492115701,9.679313455535441,0.6320474056503355,4.237387925885926
70.0,7.32268805082814,9.551085778649144,0.6275064725962457,4.237387925885926
71.0,6.9278149431166085,9.423196940687644,0.6232436705984944,4.237387925885926
72.0,6.568818367460087,9.296080698530748,0.619267333344769,4.237387925885926
73.0,6.243085566808921,9.170172266415936,0.6155851539637023,4.237387925885926
74.0,5.948106762183999,9.045905840881522,0.6122041835412791,4.237387925885926
75.0,5.68149011964113,8.923712359513678,0.6091308317670215,4.237387925885926
76.0,5.440972961141114,8.80401750918614,0.6063708692803914,4.237387925885926
77.0,5.224429493303305,8.68723999673232,0.6039294312961686,4.237387925828201
78.0,5.029874009829364,8.573791459258269,0.6018111679335337,4.237385882659938
79.0,4.855481112043505,8.464057349591966,0.6000183404822227,4.237404443155425
80.0,4.717046698105693,8.340752423978573,0.5966564931077916,4.26394294504431
81.0,4.932640696451814,7.87421571265804,0.5562887888051569,4.830178341844875
82.0,5.317032430912473,7.223946664294731,0.4967354957578298,5.755540686432478
83.0,5.584249719270166,6.672489618162419,0.44855172447792147,6.588154129150451
84.0,5.509727425885803,6.463337399963031,0.43759987124719313,6.781507661501715
85.0,5.356347231283042,6.356269091259431,0.4372998261722949,6.782485957425117
86.0,5.218519623728725,6.258028794116612,0.43745278747341604,6.782358746611978
87.0,5.037254972575778,6.227516937274391,0.4446605362024912,6.658595034514839
88.0,3.7171520976620087,7.4454360822375225,0.5985704218652168,4.242475830836704
89.0,3.7317508253012157,7.369090820126589,0.600496351936405,4.237409786740189
90.0,3.7511166968457963,7.2970840499378795,0.6023818432790917,4.237407486802297
91.0,3.772247069202788,7.2329036876916515,0.6045929760737507,4.2374074899744665
92.0,3.7700697242391885,7.202687479194615,0.6071258605479479,4.2374074899744665
93.0,3.75169082730588,7.202315411221249,0.609975807081054,4.2374074899744665
94.0,3.7415263516040227,7.207611535713605,0.613137496725194,4.2374074899744665
95.0,3.7389248973225437,7.2190040875883215,0.6166049684929299,4.2374074899744665
96.0,3.743150446215529,7.237046588459699,0.6203716156040733,4.2374074899744665
97.0,3.752545058692071,7.263267686114827,0.6244302080805486,4.2374074899744665
98.0,3.766379922917271,7.298325273567324,0.6287728630398836,4.2374074899744665
99.0,3.7843572910031544,7.342430726873339,0.6333910700891374,4.2374074899744665
100.0,3.806145541980477,7.395787336340597,0.6382756513529034,4.2374074899744665
101.0,3.831365065867388,7.458588545270853,0.6434168373844028,4.2374074899744665
102.0,3.8595680218941806,7.531047566509663,0.6488042431606726,4.2374074899744665
103.0,3.890259287375896,7.613344735961804,0.6544268520133525,4.2374074899744665
104.0,3.922904878632934,7.705617673947971,0.6602731010000128,4.2374074899744665
105.0,3.9569195420461543,7.807970283382056,0.6663308592801499,4.2374074899744665
106.0,3.9916660575229206,7.920440903854424,0.6725874623764975,4.2374074899744665
107.0,4.026451496665433,8.043010698254015,0.6790297539531841,4.2374074899744665
108.0,4.060528380404616,8.175591474829448,0.6856441219054424,4.2374074899744665
109.0,4.093097883449336,8.318016533970296,0.6924165376902844,4.2374074899744665
110.0,4.123316675918307,8.470028506339752,0.6993325987908039,4.2374074899744665
111.0,4.150309094172624,8.631268360618693,0.7063775847011684,4.2374074899744665
112.0,4.17318149296698,8.801268967323812,0.7135365125029024,4.2374074899744665
113.0,4.191040319242356,8.979447849298465,0.7207941930021825,4.2374074899744665
114.0,4.203014680642415,9.165100927645637,0.728135291009168,4.2374074899744665
115.0,4.208283911354407,9.357396417790342,0.7355443912441224,4.2374074899744665
116.0,4.206996577261912,9.5544933690773,0.7429479076776258,4.238448954857684
117.0,4.199506748491286,9.75437577859382,0.7502752723612759,4.241613071665463
118.0,4.185482938268489,9.955773257168703,0.7575148468968249,4.246985128370785
119.0,4.16477748111499,10.157324605480788,0.7646545762530683,4.2546771318793475
120.0,4.13691936842657,10.358110451702519,0.7717117074797072,4.264244306053771
121.0,4.100790116276082,10.557961320578741,0.7787446605468734,4.274371087973976
122.0,4.056533351199405,10.755584696136456,0.785741968085393,4.285058086642843
123.0,4.004470073818972,10.949698480426683,0.7926910755214158,4.296337349764034
124.0,3.9450637583219135,11.13908490713083,0.7995798270934995,4.3082448697571625
125.0,3.878929337893385,11.322588661984605,0.8063965989575967,4.320819520200079
126.0,3.806826787007701,11.499139544572655,0.8131303326694626,4.334103241891746
127.0,3.7296083090653718,11.66778852086265,0.8197705555408038,4.348141170474706
128.0,3.648192425393079,11.827735857223315,0.8263074394702399,4.362982031954628
129.0,3.563528950199712,11.978341211385226,0.8327318188431908,4.378678352411008
130.0,3.4765694882822755,12.11913379833287,0.8390352170489399,4.395286769922123
131.0,3.3882408471152488,12.249815580234731,0.8452098638123096,4.412868346053663
132.0,3.299421687245822,12.370257394019644,0.8512487071341392,4.431488896705341
133.0,3.210924670635552,12.480489874419389,0.8571454207915793,4.4512193509558005
134.0,3.1234839538142642,12.580690152671561,0.8628944066041884,4.47213613348997
135.0,3.037747923407526,12.671165186264322,0.8684907917055871,4.4943215718731215
136.0,2.954276705921633,12.75233287405776,0.8739304210075846,4.517864329191312
137.0,2.8735445681184717,12.82470211309231,0.8792098433407795,4.542859847381262
138.0,2.7959417560352278,12.888852725342357,0.8843263006601285,4.5694108777834295
139.0,2.721784216586984,12.94541668453342,0.8892777095587228,4.597628051597267
140.0,2.6513231699147473,12.995059509372506,0.8940626277798794,4.62763033676842
141.0,2.584752846233104,13.038465119664428,0.8986802100402553,4.659545227593931
142.0,2.522214649685356,13.076322178162416,0.9031302493854493,4.693510460856349
143.0,2.463819243438712,13.109313039555952,0.9074130519629802,4.72967339166926
144.0,2.40963905839005,13.13810470769272,0.9115294687515811,4.7681920967261275
145.0,2.3597304767815683,13.163340119352023,0.9154808498877118,4.809236911331893
146.0,2.314131065078316,13.185638023194834,0.9192689560194266,4.852988694724723
147.0,2.272870113947946,13.205580680746271,0.9228960302323349,4.899643377708143
148.0,2.235972111479379,13.223722522018578,0.9263646131561579,4.9494078112508975
149.0,2.2034621618655152,13.24057686521425,0.9296776830660765,5.0025060993931
150.0,2.175368068950638,13.256627592576395,0.932838429755643,5.0591742749582815
151.0,2.151727325118149,13.272318721886803,0.935850398168939,5.1196667918070515
152.0,2.1325847387756465,13.28806292933248,0.9387172944397179,5.1842522211160045
153.0,2.118001325765429,13.304237824246,0.9414430912287738,5.253217752616537
154.0,2.108050094468907,13.321188475627144,0.9440318738910054,5.326867256923004
155.0,2.102824428775526,13.339230386825188,0.9464879156145481,5.405522858189663
156.0,2.102435160628666,13.358646002543262,0.9488155545096187,5.48952594988673
157.0,2.107016637253476,13.379692915309347,0.9510192534098079,5.5792356705793225
158.0,2.116725765905988,13.402597190066464,0.9531034944569866,5.675031663964055
159.0,2.1317435182797033,13.427561066534606,0.955072799968961,5.777311101167019
160.0,2.152282339133965,13.454759098838547,0.9569317155789511,5.886492212261451
161.0,2.178581738964212,13.484341001436716,0.9586847531268746,6.003011200548649
162.0,2.2109143540233998,13.51643347351291,0.9603364194756974,6.127322499336146
163.0,2.2495870059829004,13.55113763654001,0.9618911561108019,6.259898954220948
164.0,2.2949428864156984,13.588531507613876,0.9633533460679694,6.401229906515259
165.0,2.347363278460526,13.628670243149838,0.964727298820607,6.551820035673521
166.0,2.4072711023091284,13.671586027543736,0.9660172421652709,6.712188236189882
167.0,2.475132925293102,13.71728774162575,0.9672273025035187,6.8828656797812835
168.0,2.5514599170512677,13.76576174960943,0.9683614995295734,7.064393201962463
169.0,2.636810019385137,13.81697236961001,0.9694237458873352,7.257319038326958
170.0,2.7317901910378897,13.870861164291291,0.9704178303886731,7.462195912435498
171.0,2.837057978469288,13.92734774212051,0.9713474215246836,7.67957790216714
172.0,2.9533223509826723,13.986329957305639,0.9722160602505705,7.910016831717746
173.0,3.08134432599247,14.047684411788714,0.9730271579138615,8.154058468055416
174.0,3.2219371043025005,14.11126713029956,0.9737839948382668,8.41223849256063
175.0,3.375965587491752,14.176914379851208,0.9744897194843994,8.685078272254025
176.0,3.544345135801695,14.244443738092786,0.975147348353111,8.973080494570606
177.0,3.728039531099501,14.313655366338516,0.975759766552147,9.276724731233418
178.0,3.928058037324168,14.384333547887659,0.9763297290476424,9.596463010194029
179.0,4.145451555509995,14.456248445565235,0.976859862311524,9.932715414518745
180.0,4.381307109906492,14.529158174323042,0.9773526656847904,10.285865796731734
181.0,4.636741546889993,14.602811105332567,0.9778105145777433,10.65625792611806
182.0,4.912893975833863,14.676948324239222,0.9782356634047765,11.04419191487874
183.0,5.210916897331105,14.751306276130903,0.9786302487267888,11.449921056286193
184.0,5.531966078513411,14.825619507323937,0.9789962926233517,11.873649151675808
185.0,5.877189151835637,14.89962350076257,0.9793357062521513,12.315528386663217
186.0,6.247713097907375,14.973057485680513,0.9796502936327797,12.775657815111241
187.0,6.644630334313613,15.045667266028703,0.9799417551904742,13.254082353123701
188.0,7.0689838593982985,15.117207910266163,0.9802116915733811,13.750792581017592
189.0,7.521751774534587,15.187446266618268,0.9804616077732817,14.265725048177528
190.0,8.003831783919614,15.256163146570302,0.9806929176603967,14.798763781770205
191.0,8.516024707582844,15.32315541629153,0.9809069471986576,15.349741497512996
192.0,9.059021470088968,15.388237112131838,0.9811049410367788,15.918443145699653
193.0,9.633377508470229,15.4512422516417,0.9812880599704019,16.504605357809027
194.0,10.239511074497242,15.512024237904308,0.9814573919911899,17.107923109929487
195.0,10.877687033636674,15.570456172411191,0.9816139558228841,17.728053698286363
196.0,11.547982878777848,15.626435065477638,0.9817586927797861,18.36461312054203
197.0,12.250318292731947,15.679874418860154,0.9818924920475673,19.017194422209148
198.0,12.984423330042066,15.730711127358983,0.9820161749904065,19.68535551163122
199.0,13.749798172485637,15.77890246047329,0.9821305003760469,20.368634978798195
200.0,14.545820412631402,15.824419416090588,0.9822361900922114,21.066554617769
201.0,15.371607717010573,15.86725673067226,0.9823338971010388,21.7786155993838
202.0,16.226124980210148,15.90742249842607,0.9824242364633959,22.50431003835478
203.0,17.10813626087596,15.944940371648693,0.9825077751854117,23.243123973767702
204.0,18.016237883710954,15.979848076767894,0.9825850386944004,23.994537437077284
205.0,18.948871940346628,16.012193977436826,0.9826565158742157,24.758031736104893
206.0,19.90432064624649,16.042038728210418,0.9827226544534261,25.533089053409245
207.0,20.88075821018031,16.069450134886925,0.9827838740334424,26.31919651401539
208.0,21.87623121196496,16.094505000876243,0.9828405563416751,27.115849602897757
209.0,22.888714965746917,16.117285326082214,0.9828930591343731,27.92255080267022
210.0,23.91610898162764,16.137878224449356,0.9829417086257929,28.738816276826434
211.0,24.95627478782698,16.156374570602257,0.9829868080557967,29.564172107030394
212.0,26.00705200117202,16.172867127145555,0.9830286359475009,30.398160459014015
213.0,27.066281341812747,16.18745317175668,0.9830674497123888,31.240335910060367
214.0,27.046717349910562,14.741004142202165,0.9831034861018522,32.09026943722462
215.0,26.969032859036293,13.356685796029566,0.9831369632547458,32.94754770226285
216.0,26.894839470286982,12.107080595742804,0.9831680820586147,33.81177374048178
217.0,26.823968517840488,10.978764059971557,0.9831970274414917,34.6825670167458
218.0,26.75625617320863,9.959681705021206,0.9832239696443722,35.55956344976357
219.0,26.691543767927275,9.039009805480392,0.9832490653079552,36.44241539503021
220.0,26.629677993301442,8.207013079730991,0.9832724585895595,37.33079137427753
221.0,26.570511084394262,7.454950459004868,0.9832942821256365,38.224375842465896
222.0,26.51390091096206,6.774955815649692,0.9833146579405648,39.122868815514664
223.0,26.459711019264155,6.159959524722591,0.9833336983210913,40.025985422346
224.0,26.407810642681945,5.603596487838843,0.9833515065631793,40.933455473038244
225.0,26.358074645237526,5.100142787560185,0.9833681777331328,41.84502290051017
226.0,26.31038346335055,4.644442819531425,0.9833837992974435,42.760445274863336
227.0,26.26462297844923,4.231857090419219,0.9833984517763427,43.67949318730676
228.0,26.22068441035545,3.85820518174167,0.9834122092743929,44.6019497416802
229.0,26.178464140777926,3.5197225585881284,0.9834251400396833,45.527609914597356
230.0,26.13786357479816,3.213016022215691,0.9834373069100142,46.45628004653283
231.0,26.098788933269326,2.935027841651269,0.9834487677898421,47.387777203516876
232.0,26.06115109528774,2.6830010469549577,0.9834595760250722,48.32192868306642
233.0,26.024865373823403,2.454449540650509,0.9834697808087008,49.25857139548403
234.0,25.989851348853314,2.247131135373328,0.9834794274955037,50.19755139433449
235.0,25.956032637178954,2.0590225706808374,0.9834885579461704,51.1387232894802
236.0,25.92333672318243,1.888298634232043,0.9834972107915952,52.08194980756196
237.0,25.89169472963028,1.7333108472146348,0.9835054217249106,53.027101241870106
238.0,25.86104125411073,1.5925722530147433,0.9835132237215908,53.97405505165955
239.0,25.831314148938468,1.464740128734223,0.9835206472858848,54.92269535729329
240.0,25.802454347978394,1.3486004438203114,0.9835277206446977,55.87291254327296
241.0,25.77440568388289,1.2430582054353765,0.9835344699390229,56.82460284828413
242.0,25.747114696265783,1.1471225323738492,0.9835409194059905,57.77766794834369
243.0,25.720530480262838,1.0598989544147819,0.9835470915252159,58.73201462606416
244.0,25.694604497487145,0.9805787932521898,0.9835530071804969,59.687554372313286
245.0,25.669290430064166,0.9084304781979593,0.9835586857840372,60.64420307958591
246.0,25.64454401857848,0.8427934418098848,0.9835641454057193,61.60188070739722
247.0,25.62032290691704,0.783069184429491,0.9835694028894534,62.56051096745272
248.0,25.596586510214923,0.728717446048625,0.9835744739510834,63.5200210567674
249.0,25.573295861426896,0.6792493512068347,0.9835793732835308,64.48034135342206
250.0,25.550413479611418,0.6342220895425945,0.9835841146438721,65.44140515806656
