Time,J,A,S,tau
0.0,100.0,10.0,0.5269985327088132,16.665325939587735
1.0,97.8852064717117,12.495619047897689,0.526965840671993,16.64054931518496
2.0,94.31854107364374,14.81306315618418,0.5269333422675607,16.615955751291445
3.0,89.82752442316861,16.964283796510788,0.526901047281256,16.591551939471458
4.0,84.79463422118019,18.960452078692995,0.5268689654258333,16.56734447905149
5.0,79.47710540214312,20.81201049997395,0.5268371063380078,16.543339876044335
6.0,74.04261703948552,22.528718056315732,0.526805479575383,16.519544542064633
7.0,68.5989938655619,24.11969659340719,0.5267740946135608,16.495964793477228
8.0,63.214930154842925,25.593465846944547,0.5267429608429425,16.472606850206994
9.0,57.93389265438019,26.957993036509755,0.5267120875662995,16.449476835428914
10.0,52.782865958671486,28.220717725538755,0.5266814839952774,16.42658077408926
11.0,47.778154500246956,29.388590607186845,0.5266511592480723,16.403924592721463
12.0,42.929012902497576,30.468102125030033,0.5266211223463059,16.38151411841605
13.0,38.24003387677188,31.46531401150504,0.5265913822123715,16.359355078304027
14.0,33.712702904692186,32.38588952414017,0.5265619476671723,16.337453099408087
15.0,29.346410742331738,33.235126110536655,0.5265328274271345,16.315813707799304
16.0,25.139153337809013,34.017952963342275,0.5265040301017956,16.294442328283544
17.0,21.360140531157054,34.46970630777634,0.5264755641891862,16.273344282147995
18.0,18.59926227683357,34.028665965228434,0.526447438078194,16.2525247912748
19.0,16.595256383486152,32.986192741795534,0.5264196600416615,16.231988973715314
20.0,15.117147385940477,31.5925279091048,0.526392238235693,16.211741845008802
21.0,14.01198358035459,30.014521261174266,0.5263651806971187,16.19178831780008
22.0,13.185534801029284,28.358858194282302,0.5263384953412152,16.172133201685966
23.0,12.584829230232272,26.69219022084789,0.526312189959484,16.152781203106436
24.0,12.18567725405489,25.05534507192356,0.5262862722173964,16.133736925207796
25.0,11.984282644283276,23.47270064058974,0.5262607496523637,16.115004867882153
26.0,11.991592271869024,21.95815862314036,0.526235629671328,16.096589427505773
27.0,12.229113968959215,20.518975385833556,0.5262109195493313,16.07849489743628
28.0,12.725699080793405,19.15815861654316,0.5261866264269855,16.06072546764113
29.0,13.514611427397224,17.876023401229858,0.5261627573088358,16.04328522501458
30.0,14.630847521143837,16.67118851109668,0.5261393190613739,16.02617815341211
31.0,16.10854642262374,15.541223339027214,0.5261163184112466,16.009408133821772
32.0,17.97855990245435,14.48307151330947,0.5260937619435115,15.992978944557393
33.0,20.26576402007096,13.493773836841656,0.5260716560998904,15.976894261437142
34.0,22.98297114558606,12.573597578761287,0.5260500071775465,15.961157658312178
35.0,26.1304337261114,11.723230400062777,0.5260288213258284,15.945772606175215
36.0,29.694999930154008,10.943207220412791,0.526008104547006,15.930742475009295
37.0,33.64747727225913,10.235170676272173,0.5259878626934027,15.916070533135327
38.0,37.94104551882657,9.602553706618224,0.5259681014664174,15.901759947836734
39.0,42.51080403004511,9.051017696837707,0.5259488264149333,15.887813785542766
40.0,47.27386539116528,8.588678167774262,0.5259300429337801,15.87423501204421
41.0,52.13081551724236,8.226123985032546,0.5259117562630707,15.861026493246149
42.0,56.96791142159599,7.9762324685963035,0.5258939714864478,15.848190995193649
43.0,61.65947565628668,7.853732208985109,0.5258766935300526,15.835731184543702
44.0,66.06948731680659,7.87453643102707,0.5258599271614465,15.823649628979316
45.0,70.0521308594826,8.054883761970192,0.5258436769885492,15.811948797609391
46.0,73.45247489694611,8.410343228937572,0.5258279474586293,15.800631061375034
47.0,76.11028547907593,8.954760804654285,0.5258127428573429,15.789698693459226
48.0,77.87049615343827,9.699231414979261,0.5257980673077768,15.779153869673596
49.0,78.60158490949284,10.651109988958467,0.5257839247696743,15.768998668928097
50.0,78.21948087097788,11.812399296626417,0.5257703190386289,15.759235073653796
51.0,76.70879564977567,13.178377865792513,0.5257572537452886,15.749864970193093
52.0,74.13046359469014,14.737108755950862,0.5257447323544404,15.740890149104665
53.0,70.61247464033373,16.469099124196827,0.5257327581649778,15.732312305954103
54.0,66.32808887867368,18.347189652950096,0.525721334308854,15.724133041468724
55.0,61.46879744569492,20.33677455631709,0.5257104637506926,15.71635386205242
56.0,56.22125824819789,22.39648297826158,0.5257001492872294,15.708976180169476
57.0,50.753010585232126,24.479297350825934,0.5256903935469215,15.702001314792245
58.0,45.207367723728325,26.533863690322764,0.5256811989895682,15.69543049182206
59.0,39.7050778509851,28.505540178211632,0.5256725679059826,15.689264844505784
60.0,34.34968930879842,30.33676235769382,0.525664502417714,15.683505413847298
61.0,29.233935248584263,31.96680419506737,0.5256570044768205,15.678153149013346
62.0,24.444762153381767,33.3319550484354,0.5256500758656926,15.673208907733075
63.0,20.064737761678746,34.367951900413495,0.5256437181969251,15.668673456690739
64.0,16.16825900156568,35.016285445347776,0.5256379329132396,15.664547471911009
65.0,12.812901744735978,35.234233010884324,0.5256327212874558,15.66083153913643
66.0,10.028794108641483,35.00599034772522,0.5256280844225558,15.65752615422225
67.0,7.811023708172718,34.350154032537525,0.5256240232515474,15.654631723378523
68.0,6.119872872701193,33.31929394665068,0.5256205385378898,15.6521485637004
69.0,4.889671235995311,31.991060335679556,0.5256176308755093,15.650076903421834
70.0,4.043251164412161,30.45423948696208,0.5256153006889802,15.648416882233319
71.0,3.506984889827267,28.794768184435352,0.5256135482338208,15.647168551623558
72.0,3.2221518275071563,27.085747974756806,0.5256123735967703,15.646331875177104
73.0,3.1508111674824564,25.3829276501006,0.5256117766961939,15.64590672890451
74.0,3.276693741899162,23.72479391367527,0.5256117572824397,15.645892901512815
75.0,3.6027896579331964,22.13537233771584,0.5256123149381914,15.646290094634296
76.0,4.147286322987297,20.627923537332087,0.5256134490791545,15.647097923206728
77.0,4.939123257182846,19.208365717700357,0.5256151589544504,15.64831591565692
78.0,6.0136702808835505,17.87796438443941,0.5256174436472135,15.649943514159574
79.0,7.408752912198877,16.635237653722605,0.5256203020752532,15.651980074896537
80.0,9.161037065463264,15.477231216741242,0.5256237329916308,15.65442486823806
81.0,11.302750796015578,14.400361535791044,0.5256277349854869,15.657277079023196
82.0,13.858755366853918,13.400999070762383,0.5256323064826579,15.660535806694329
83.0,16.84388941458235,12.47591871305581,0.5256374457466301,15.664200065581825
84.0,20.260708459809535,11.622722945186242,0.5256431508790973,15.6682687849372
85.0,24.09753357319891,10.840283313547653,0.5256494198208846,15.672740809124484
86.0,28.32621438938798,10.129188660178531,0.5256562503529718,15.677614897873168
87.0,32.90105841469697,9.492214367475633,0.525663640097879,15.682889726640651
88.0,37.7577845286497,8.934718041023856,0.5256715865197734,15.688563886292998
89.0,42.8137242041081,8.46485282951342,0.5256800869261077,15.694635883563567
90.0,47.9691690801939,8.093558410259384,0.525689138468586,15.701104141125532
91.0,53.109732399021354,7.834280788366976,0.5256987381439676,15.707966997546526
92.0,58.109023109083665,7.7024021408730245,0.5257088827955521,15.715222707586733
93.0,62.83062406839732,7.714442797411833,0.5257195691143566,15.722869442300235
94.0,67.1286789797954,7.88706808412678,0.5257307936399951,15.730905288943678
95.0,70.84809367808253,8.235963426430898,0.5257425527622045,15.739328251219515
96.0,73.82779719375284,8.774687265570494,0.5257548427222154,15.748136249406052
97.0,75.91082226562037,9.513548449831111,0.5257676596137437,15.757327120247847
98.0,76.9627407203692,10.458579288024717,0.5257809993845239,15.766898617129947
99.0,76.89510771608346,11.610675500839328,0.5257948578380901,15.776848410376811
100.0,75.686898800492,12.964859105605159,0.5258092306338754,15.787174086534169
101.0,73.39187476406623,14.509771482406721,0.5258241132905156,15.79787314952044
102.0,70.13167314313561,16.227209461776052,0.5258395011858791,15.808943019832096
103.0,66.07458761761211,18.091990562000763,0.5258553895593632,15.820381035055105
104.0,61.40937039757052,20.07202992156341,0.5258717735130689,15.832184449697797
105.0,56.32200750918443,22.128845885890822,0.5258886480134914,15.844350435312432
106.0,50.98070952358623,24.218505943611085,0.5259060078931166,15.856876080541827
107.0,45.529800006230566,26.292864481307515,0.5259238478520529,15.869758391171795
108.0,40.09044400126006,28.3006854393173,0.5259421624596933,15.88299429018457
109.0,34.76539110990235,30.18815272293171,0.5259609461563993,15.896580617812196
110.0,29.645238690055756,31.89861828629491,0.5259801932552232,15.910514131598497
111.0,24.81404006272507,33.37228017277564,0.525999897943651,15.924791506462313
112.0,20.35210088595684,34.54741332176476,0.5260200542853718,15.939409334764695
113.0,16.33414071228918,35.364953430802615,0.526040656222072,15.954364126381742
114.0,12.822451679490745,35.77696385167254,0.5260616975752553,15.969652308783598
115.0,9.857162386038288,35.757093996087534,0.5260831720481197,15.985270227144394
116.0,7.447770841099497,35.30912795215725,0.5261050732272918,16.00121414434056
117.0,5.570451292245691,34.46944559732158,0.5261273945848787,16.01748024116884
118.0,4.1729773167582325,33.30200669927447,0.5261501294803607,16.03406461644541
119.0,3.1860066883700258,31.887267349352424,0.5261732711624495,16.050963287071912
120.0,2.5368720420368507,30.309141137104024,0.5261968127710862,16.0681721882001
121.0,2.161735795918865,28.643998409859037,0.52622074733941,16.085687173372058
122.0,2.0135233824250864,26.954032720053235,0.526245067795765,16.103504014687225
123.0,2.0651150019237665,25.285192442237562,0.526269766965727,16.1216184029843
124.0,2.3087833115601057,23.668427953254213,0.5262948375740799,16.140025947980845
125.0,2.753332231079086,22.122629186489423,0.526320272246949,16.158722178542963
126.0,3.4202514259339476,20.657886669415497,0.5263460635138443,16.17770254288229
127.0,4.339696980307249,19.278354617376205,0.5263722038097449,16.196962408791972
128.0,5.546652414889988,17.98443633871558,0.526398685477213,16.216497063910445
129.0,7.077403486985519,16.77432144360886,0.5264255007685184,16.23630171600114
130.0,8.966345908485975,15.645018768187969,0.5264526418477814,16.256371493256026
131.0,11.243115142367662,14.593045243773732,0.5264801007931124,16.276701444601585
132.0,13.930060886392416,13.614908103257823,0.5265078695988153,16.2972865400762
133.0,17.039992532686856,12.707480869135834,0.5265359401775098,16.31812167113754
134.0,20.574350691849087,11.868353177061186,0.5265643043624264,16.33920165115162
135.0,24.521659153951713,11.096200906671964,0.5265929539094115,16.360521215600592
136.0,28.855764682541746,10.391155933949383,0.5266218804993008,16.38207502267504
137.0,33.5351295593395,9.755209087734675,0.5266510757403836,16.403857653996557
138.0,38.50203062795758,9.192569610288588,0.5266805311701687,16.425863614601973
139.0,43.68284058887538,8.70988980966341,0.526710238258046,16.448087333911364
140.0,48.98913271239399,8.316336370327843,0.5267401884072853,16.47052316598636
141.0,54.31962093826736,8.023419446031712,0.5267703729574256,16.49316539024217
142.0,59.562669065003575,7.8446062973776645,0.5268007831866475,16.516008212177965
143.0,64.5981785361503,7.794723124064653,0.5268314103138393,16.53904576374282
144.0,69.2981485664875,7.889163373381577,0.5268622455011361,16.562272104318676
145.0,73.52631555612312,8.142996304986477,0.5268932798561211,16.585681221300568
146.0,77.1381944950999,8.569984352597375,0.5269245044340856,16.609267030767786
147.0,79.98526341016887,9.181627953224142,0.5269559102405338,16.633023378526104
148.0,81.92603061451003,9.986256427738198,0.5269874882333221,16.656944040654473
149.0,82.84377333920301,10.988223850155775,0.5270192293251043,16.681022724528155
150.0,82.66710327174593,12.187268010344336,0.5270511243857573,16.705253069867528
151.0,81.38680032929233,13.577956947824985,0.5270831642444095,16.729628649121306
152.0,79.06030644763413,15.149373683300528,0.5271153396921872,16.754142969095067
153.0,75.80330968696022,16.884822680964835,0.5271476414843914,16.778789471728352
154.0,71.7714776868947,18.761781457042947,0.5271800603428427,16.803561535075193
155.0,67.13785251866285,20.75203957577963,0.5272125869582774,16.828452474460875
156.0,62.073173260587595,22.82213280912711,0.5272452119927294,16.853455543656032
157.0,56.73283539959225,24.934108261538707,0.5272779260819012,16.878563936065348
158.0,51.25106135643772,27.04653906880269,0.5273107198375345,16.903770785948094
159.0,45.74078955349603,29.11552462236038,0.5273435838497801,16.929069169666743
160.0,40.29715251674914,31.095281268246758,0.5273765086895911,16.954452107044062
161.0,35.00261902606977,32.93802221344415,0.5274094849111065,16.97991256273639
162.0,29.932326115376824,34.593295184819645,0.527442503054032,17.005443447643255
163.0,25.1581614158947,36.007654884390064,0.5274755536460201,17.031037620339685
164.0,20.750042734076406,37.12612686239314,0.527508627205057,17.05668788857006
165.0,16.773251656867593,37.89669681089963,0.5275417142418524,17.082387010875298
166.0,13.281947515047573,38.27781397624904,0.5275748052622203,17.108127698117222
167.0,10.310842129532364,38.24711652943839,0.5276078907694627,17.133902615171714
168.0,7.868242695763429,37.8083169935348,0.5276409612667717,17.159704382527377
169.0,5.93390427743539,36.99311836821633,0.5276740072595938,17.185525578171948
170.0,4.462750587101714,35.85731236096806,0.5277070192580138,17.21135873928438
171.0,3.393718594058742,34.472048478525494,0.5277399877791472,17.237196364082777
172.0,2.6608834730675555,32.91324015503243,0.5277729033495153,17.26303091372506
173.0,2.203767753531931,31.25214513461554,0.5278057565074272,17.288854814230152
174.0,1.9747023414573759,29.549076721373613,0.5278385378053536,17.31466045846456
175.0,1.9425361666430716,27.85071162907487,0.5278712378123019,17.34044020816965
176.0,2.0931562550948253,26.19030677885386,0.5279038471161831,17.366186396038973
177.0,2.4278618168887793,24.589649370744457,0.5279363563262129,17.391891327828105
178.0,2.960538004314999,23.061670855335887,0.5279687560752299,17.41754728455533
179.0,3.714469060505781,21.612955229190156,0.5280010370220913,17.443146524696175
180.0,4.719136091446172,20.245820944054636,0.5280331898540266,17.468681286459546
181.0,6.007203682325774,18.959875584252064,0.5280652052889935,17.494143790099685
182.0,7.611748269923937,17.753109061080153,0.5280970740780297,17.519526240275276
183.0,9.563744294610547,16.622636805112652,0.5281287870076131,17.544820828452043
184.0,11.889803333118424,15.565203470456954,0.5281603349019889,17.57001973535682
185.0,14.610192982887911,14.577540568908073,0.5281917086255301,17.595115133468916
186.0,17.73714544467166,13.656646584183418,0.5282228990850084,17.620099189562115
187.0,21.273328665676377,12.800043984000252,0.5282538972320998,17.644964067280103
188.0,25.21085441060077,12.006054800500529,0.5282846940656054,17.669701929790985
189.0,29.530002356518082,11.274085205065903,0.5283152806338256,17.694304942440954
190.0,34.198530236144784,10.604934148832465,0.5283456480365396,17.718765275417283
191.0,39.171054303718414,10.001126518363142,0.5283757874278869,17.74307510657224
192.0,44.38916595819141,9.467168674961428,0.5284056900182305,17.767226624153736
193.0,49.78176008076759,9.009714485519899,0.5284353470767298,17.791212029678704
194.0,55.26645508867971,8.63758453228173,0.5284647499334593,17.81502354075957
195.0,60.75121689973211,8.361605164493652,0.5284938899817966,17.838653394027535
196.0,66.13647820575397,8.19428747723993,0.5285227586807144,17.862093848077343
197.0,71.31613916889555,8.149307727614527,0.528551347556969,17.885337186402417
198.0,76.17777555855352,8.240881465582838,0.5285796482073947,17.908375720401185
199.0,80.60157157364375,8.483021957839455,0.5286076523012754,17.93120179245798
200.0,84.45950882708426,8.888739325839538,0.528635351582524,17.953807778976905
201.0,87.61748686931293,9.469247635918466,0.5286627378718552,17.976186093431334
202.0,89.94275665302699,10.233208430700701,0.5286898030691517,17.998329189541444
203.0,91.31734513894104,11.186046867209177,0.528716539155693,18.020229564420596
204.0,91.65528909613096,12.329397235166303,0.5287429381961286,18.04187976159431
205.0,90.91918493638336,13.66064197282547,0.5287689923411789,18.063272374467793
206.0,89.12946180651838,15.172602648084451,0.5287946938297479,18.08440004949899
207.0,86.36236362829544,16.85332783687028,0.5288200349902782,18.105255488882044
208.0,82.73972862659534,18.68595604763549,0.5288450082441813,18.125831454572776
209.0,78.41103521493186,20.648780311112656,0.5288696061071518,18.14612077099428
210.0,73.5351600989428,22.715425585298128,0.5288938211916858,18.166116328529174
211.0,68.26532341048488,24.85525900242637,0.5289176462092704,18.18581108682669
212.0,62.7397411878312,27.034062797265612,0.5289410739723226,18.20519807794103
213.0,57.07775657107326,29.214875000987888,0.5289640973964238,18.224270409690288
214.0,51.38016480132232,31.35882006798137,0.5289867095025863,18.243021269063338
215.0,45.73221241643707,33.42561107755292,0.5290089034191277,18.26144392533913
216.0,40.20785268087801,35.37342210544109,0.5290306723838155,18.279531733412945
217.0,34.87438810991388,37.15812287755643,0.5290520097461632,18.2972781372604
218.0,29.796539818899717,38.73241993223406,0.5290729089692573,18.31467667303158
219.0,25.038749917000732,40.045941817889975,0.529093363631833,18.331720972341607
220.0,20.664568845923476,41.04753484911556,0.5291133674304772,18.34840476567573
221.0,16.732536666622064,41.6904390091197,0.529132914181485,18.36472188550297
222.0,13.28925939920371,41.93971134017668,0.5291519978229458,18.380666269581834
223.0,10.361799658730337,41.77990500716318,0.5291706124166842,18.396231964136305
224.0,7.952182373873676,41.22032048243573,0.5291887521503712,18.411413127182026
225.0,6.036450095603868,40.29563165896302,0.5292064113392538,18.426204031497946
226.0,4.568792379146178,39.061532811174246,0.5292235844281995,18.440599067871972
227.0,3.4896794459714435,37.58665829261899,0.5292402659936469,18.454592748256044
228.0,2.73561045335758,35.94324828564453,0.5292564507454508,18.468179708808933
229.0,2.2479872218107073,34.199002071485474,0.5292721335287517,18.481354712946608
230.0,1.979477932171591,32.411617896241296,0.5292873093258329,18.49411265436379
231.0,1.8973421211832626,30.626368661560825,0.5293019732579413,18.506448560003466
232.0,1.9840862587870258,28.876165976097617,0.5293161205870519,18.518357592951155
233.0,2.2362936975019814,27.183160483866082,0.529329746717792,18.529835055468443
234.0,2.6623908531815106,25.56100880981394,0.5293428471989495,18.540876391588668
235.0,3.2800569209462758,24.017118280903187,0.529355417725382,18.551477190082057
236.0,4.11359426151663,22.554576459308947,0.5293674541396203,18.561633187097534
237.0,5.1914372827988675,21.17363319837005,0.5293789524335581,18.571340268857913
238.0,6.5438404467734435,19.87277055842528,0.5293899087501133,18.58059447429562
239.0,8.200750767488705,18.649443321268354,0.5294003193847747,18.58939199754448
240.0,10.189872022035662,17.500582905536223,0.529410180787208,18.597729190454825
241.0,12.534892213158683,16.422944688866497,0.5294194895627862,18.6056025649972
242.0,15.25392026007327,15.413364727257493,0.5294282424740189,18.61300879552754
243.0,18.358091593125323,14.468974162399169,0.5294364364423466,18.619944721394887
244.0,21.850279026358876,13.587394683947783,0.5294440685487279,18.626407348225353
245.0,25.724449220005148,12.76699941049331,0.5294511360366388,18.63239385181382
246.0,29.964037928066787,12.007110909365412,0.5294576363116676,18.63790157815658
247.0,34.54164607043475,11.308319714973202,0.5294635669439318,18.6429280466593
248.0,39.41824101253409,10.672745860042902,0.5294689256686141,18.6474709511715
249.0,44.54284902806462,10.104295829179303,0.5294737103878381,18.65152816244535
