Time,J,A,S,tau
0.0,100.0,10.0,0.9430676344135882,15.655816260011393
1.0,100.05467987539872,13.003519610107993,0.943290538464712,15.561558948975568
2.0,100.14057743765014,15.983804448229012,0.9435505379744354,15.451137395639861
3.0,100.00260427998563,18.939064586787943,0.9438467704338244,15.324793830230497
4.0,99.46598362972367,21.867915875101676,0.944178453986521,15.18274576929865
5.0,98.43151615035472,24.769045744800227,0.9445448543259843,15.025199885430542
6.0,96.86466961352293,27.641213302321415,0.944945283898369,14.852352216301426
7.0,94.78012594304104,30.48324842203038,0.9453791003635619,14.664388566390446
8.0,92.22561655245458,33.29405133911106,0.945845705055303,14.461484929556597
9.0,89.26693475590223,36.072592358463794,0.9463445410194544,14.243808022964837
10.0,85.97577010062292,38.81791079112329,0.9468750914709465,14.011515739788235
11.0,82.42083830499293,41.52911325189484,0.9474368775679032,13.764757765532579
12.0,78.66260535815006,44.205372626198965,0.9480294562230834,13.503676193167644
13.0,74.75082159399096,46.845927178163585,0.9486524181161016,13.228406101949567
14.0,70.50141459256744,49.67003076840546,0.9490885778438054,13.03016786789798
15.0,66.09327577537377,52.52060462325453,0.949461728696884,12.857446814413649
16.0,61.94821404881044,55.00219870177068,0.9498162675200352,12.69177947013737
17.0,58.31231826860924,56.89478884943018,0.9501537847840029,12.532633189312673
18.0,55.294723048041725,58.112640453142184,0.9504757036721933,12.37953281815103
19.0,52.90150933375626,58.670093491697806,0.9507832984637092,12.232054002224054
20.0,51.0726294210541,58.644573648158655,0.9510777117849591,12.089816972893434
21.0,49.714021316773824,58.14440283168526,0.9513599684755328,11.952481558664228
22.0,48.72252423360958,57.28395438779865,0.9516309885876458,11.819742562374516
23.0,48.00202491664767,56.167774942401834,0.9518915986026466,11.691325793617425
24.0,47.471939478193946,54.88251742087899,0.9521425413071837,11.566984599868531
25.0,47.070026489639496,53.494611162165974,0.9523844846197279,11.446496789853727
26.0,46.753704220277335,52.04945248593075,0.9526180294628043,11.329661911903893
27.0,46.489709045712154,50.58213961339592,0.9528437166119238,11.216298902220787
28.0,46.25437131393196,49.117406935818856,0.953062033149415,11.106243890572495
29.0,46.03432409723172,47.669192028549446,0.9532734176576753,10.999348440877512
30.0,45.822715861090096,46.2446508178956,0.9534782653420202,10.89547783692699
31.0,45.6161444604048,44.847356086612805,0.9536769329782756,10.794509449732006
32.0,45.4129782915639,43.479051436757935,0.9538697412122557,10.696331956648901
33.0,45.212412607178074,42.14062143339741,0.9540569799060422,10.600843598705513
34.0,45.01413103859131,40.832482186249315,0.9542389111111552,10.507951264549057
35.0,44.818055705483815,39.55478003599598,0.9544157723950734,10.417569349494839
36.0,44.624361437812844,38.307545824825816,0.9545877692630415,10.329622162666244
37.0,44.43322916621505,37.09074852003387,0.9547551036676379,10.244035078930708
38.0,44.24501772803828,35.9042176319374,0.9549179466727515,10.160742877912684
39.0,44.06026009022729,34.747862562003824,0.9550764479021381,10.07968695545799
40.0,43.87948910095286,33.62157679079055,0.9552307558177145,10.00080905468475
41.0,43.70333446520644,32.52514054431221,0.9553810002792401,9.924056539425548
42.0,43.53263289700655,31.458441818065527,0.9555272935944567,9.849382181269608
43.0,43.368230191487484,30.421343752745212,0.9556697448905337,9.776739719376035
44.0,43.21117967906651,29.413742733200614,0.9558084471335087,9.706087858625168
45.0,43.06267290786888,28.435623898836706,0.9559434870022546,9.63738726513187
46.0,42.92395727409268,27.48694295551799,0.9560749441704398,9.570600772283234
47.0,42.79651401895225,26.567785995843835,0.9562028886323455,9.505694255396433
48.0,42.681853758529954,25.678250012241772,0.9563273861901168,9.442634919491338
49.0,42.5816969938463,24.81859205036071,0.956448494535276,9.381392572780898
50.0,42.497756520289784,23.98909780342644,0.9565662682116731,9.321938048356701
51.0,42.43185306857451,23.190249828341976,0.9566807549682197,9.26424442664669
52.0,42.3857656597149,22.422591844248423,0.9567920000558086,9.20828562937895
53.0,42.36115972916069,21.686886480481817,0.9569000432694293,9.154037457378887
54.0,42.35961658907081,20.984017117438647,0.957004922116658,9.101476515023288
55.0,42.38230319779706,20.31506105336732,0.9571066701619946,9.050580834990681
56.0,42.43006594727017,19.68124716382083,0.9572053186682407,9.001329304712652
57.0,42.50314991712222,19.084036144427934,0.9573008958400986,8.953701985454334
58.0,42.60112600671554,18.525009973874813,0.9573934279452133,8.907679713705106
59.0,42.72274010231872,18.005928899655263,0.9574829390034335,8.863244248360322
60.0,42.865701455592756,17.52866126189321,0.9575694511167082,8.820378177558956
61.0,43.026691015831226,17.095132673004333,0.9576529847900129,8.779064806962959
62.0,43.201284157723094,16.707286982786226,0.9577335589384336,8.739288187444725
63.0,43.383847913214765,16.366951618361945,0.9578111910675127,8.701033071627952
64.0,43.567774470848,16.075771661972805,0.9578858975067932,8.664284824474857
65.0,43.74553094810404,15.835062410088193,0.9579576934226148,8.629029450747662
66.0,43.908975375016986,15.64566763552286,0.9580265929628173,8.595253551314206
67.0,44.04969548947441,15.50781191256129,0.9580926093646308,8.562944293497813
68.0,44.15943628271054,15.420960082246662,0.9581557550437679,8.532089388310302
69.0,44.230560696421286,15.383685203746827,0.9582160416723255,8.502677071637628
70.0,44.25656476831624,15.393542722337726,0.9582734802450145,8.47469609257986
71.0,44.23252785869935,15.446995328484752,0.9583280811438901,8.44813569868234
72.0,44.15541305741631,15.539442424025713,0.9583798542126798,8.42298560618734
73.0,44.02440145318861,15.665235538243921,0.9584288087927627,8.39923600314756
74.0,43.84096233585955,15.817827435520337,0.9584749537797647,8.376877529992212
75.0,43.60878142098941,15.989975576634155,0.9585182976647567,8.355901269973625
76.0,43.333521106707835,16.1740156983538,0.9585588485730218,8.33629873922319
77.0,43.022435730651765,16.362186218356317,0.9585966142989205,8.318061877648374
78.0,42.68388103572428,16.54697979979544,0.9586316023372232,8.30118304057603
79.0,42.326769392152904,16.721491864449487,0.9586638199112366,8.285654991057815
80.0,41.9600249112847,16.879735162202792,0.9586932739980167,8.271470892763242
81.0,41.59209167445184,17.016889099726065,0.9587199713509335,8.258624303394484
82.0,41.2305351452623,17.129462837525526,0.9587439185194325,8.247109168030976
83.0,40.88174295984205,17.21537449821927,0.9587651218661836,8.236919816462128
84.0,40.55078226905521,17.273901912005247,0.9587835875841504,8.228050953323825
85.0,40.24135052161352,17.305568727607998,0.958799321713906,8.220497650046838
86.0,39.95575464995815,17.31200869992552,0.9588123301547902,8.214255356319514
87.0,39.69515304807065,17.295673657007004,0.9588226186633998,8.209319880470783
88.0,39.459635253391475,17.259635276187876,0.958830192889,8.205687378275389
89.0,39.24841378684766,17.207365320036928,0.9588350583502209,8.203354372839522
90.0,39.06000271094955,17.142512076245055,0.9588372204606962,8.202317735141811
91.0,38.892383648888554,17.068727754060674,0.9588366845298392,8.202574682768935
92.0,38.74315012339052,16.98952834190434,0.9588334557668073,8.204122776470172
93.0,38.60963354991313,16.908186051807785,0.9588275392831245,8.206959916932671
94.0,38.48901228558061,16.827651182469655,0.958818940094511,8.211084341708366
95.0,38.3784084726582,16.75049730338799,0.9588076631217889,8.216494623483305
96.0,38.27497072122727,16.678890873001528,0.9587937131855309,8.22318966725953
97.0,38.17595243874222,16.614572916356586,0.9587770950078253,8.23116870939177
98.0,38.07877177756411,16.55886561085944,0.95875781320312,8.240431311329324
99.0,37.981075954105115,16.512685448847368,0.9587358722910139,8.250977347457795
100.0,37.88082820682052,16.476520742402613,0.958711276667546,8.26280704208911
101.0,37.77626212773196,16.450534564188683,0.9586840306001818,8.275920909179641
102.0,37.66605311995929,16.43451368009441,0.9586541382557129,8.290319801735444
103.0,37.54917790861155,16.427977049891417,0.9586216036048875,8.306004887699356
104.0,37.425114769428745,16.430166875448887,0.9585864305397459,8.322977648909696
105.0,37.293623491679675,16.440149108103157,0.958548622719056,8.341239877330507
106.0,37.154895540391166,16.45682100458364,0.9585081836567457,8.36079368304368
107.0,37.00944630914964,16.478986291487033,0.9584651166183681,8.381641516044295
108.0,36.858077481955554,16.50540392262238,0.9584194246999527,8.403786096546984
109.0,36.70186328102575,16.534841940211642,0.9583711106991739,8.427230515751221
110.0,36.5420419671315,16.566113141131016,0.9583201771742066,8.451978136503236
111.0,36.38000646186532,16.59813368293393,0.9582666263677525,8.478032673328702
112.0,36.21721584476243,16.6299429932121,0.9582104601715266,8.505398157637588
113.0,36.05515800643219,16.660732258515605,0.9581516801476646,8.534078929719627
114.0,35.895293997037335,16.6898814672474,0.9580902873788012,8.564079702336937
115.0,35.739037140506646,16.716925691871367,0.9580262825802215,8.595405466606719
116.0,35.587677414489505,16.74163089918798,0.9579596658440623,8.628061634908477
117.0,35.44242565349316,16.763895086814042,0.9578904368509769,8.66205387836357
118.0,35.30431922781145,16.78383726418064,0.9578185944989495,8.697388322791452
119.0,35.17430275603295,16.801686560811003,0.9577441371923819,8.734071362949454
120.0,35.05312407717187,16.81786137490207,0.9576670623169323,8.772109902670032
121.0,34.94145270167599,16.83284744209108,0.9575873667807003,8.811511076826333
122.0,34.83978096085357,16.847269091627282,0.9575050461465682,8.852282614685686
123.0,34.74852551056503,16.861796081006865,0.9574200954131794,8.894432484674597
124.0,34.66797042565347,16.87716912261809,0.9573325080084971,8.937969281576176
125.0,34.59833818174367,16.894157969905187,0.9572422765382048,8.982901909552275
126.0,34.539758034952996,16.913547955896387,0.957149391908727,9.029239894294815
127.0,34.4923275129455,16.936134439553346,0.9570538437568001,9.07699319740906
128.0,34.4560762043078,16.962694123889445,0.9569556199941174,9.126172367209753
129.0,34.4310431840735,16.99399143525139,0.9568547066144264,9.176788566562939
130.0,34.41721454779672,17.0307568054977,0.9567510879459981,9.228853491408897
131.0,34.414626559259275,17.07368851727834,0.9566447455661884,9.282379674055063
132.0,34.42327569669555,17.123448638690856,0.9565356594744837,9.33738012667198
133.0,34.443238755958646,17.180651853963578,0.9564238059661183,9.393868943833228
134.0,34.47457496815772,17.245881863760054,0.956309159751926,9.451860681184257
135.0,34.51743160058269,17.319667212930142,0.9561916909032462,9.511371210955806
136.0,34.571979522692985,17.40251325679089,0.9560713675979439,9.572416937022224
137.0,34.63845824715644,17.494870425747532,0.9559481526530337,9.635015752844428
138.0,34.71718517185648,17.597173280339124,0.955822006199414,9.699186289710699
139.0,34.80851461596802,17.70980901219581,0.9556928825861248,9.764948761587128
140.0,34.91292734198808,17.83315524880725,0.9555607322057537,9.832324457704619
141.0,35.03090397330171,17.967552378951574,0.9554254995280371,9.901336272882563
142.0,35.16312932774404,18.113342680674023,0.9552871223764825,9.972008900580331
143.0,35.310224084346686,18.27084106114797,0.9551455346217347,10.044368098781474
144.0,35.47301879745082,18.44036753910053,0.9550006591321325,10.1184426020336
145.0,35.65235641808483,18.622237418905794,0.9548524157201396,10.19426196771561
146.0,35.849156020172266,18.816764051427768,0.9547007116582791,10.271859150446135
147.0,36.06449284314819,19.024282879938262,0.9545454477372337,10.351268869073786
148.0,36.29938624929993,19.24511928639955,0.9543865148167092,10.432528539684803
149.0,36.55508542184398,19.479641415189498,0.9542237901051269,10.515679324274213
150.0,36.832762650039435,19.7282080110912,0.954057144964054,10.600763977206546
151.0,37.13375150665038,19.991222204314006,0.9538864304344512,10.687830873940134
152.0,37.45943431435444,20.26910183962928,0.953711491066595,10.776930190324656
153.0,37.81117793657248,20.56228324355669,0.9535321516217049,10.868117619253391
154.0,38.19046835747876,20.871236611505214,0.9533482242737209,10.96145239224777
155.0,38.59876047816751,21.196449670565002,0.9531595007372481,11.056999520222819
156.0,39.037613384656716,21.538443658499833,0.9529657570130644,11.154828487426094
157.0,39.50852265934142,21.89775185636504,0.952766746188065,11.25501533839253
158.0,40.013082163111946,22.274940898925404,0.9525622021110254,11.357641672200923
159.0,40.552791964826895,22.67057976943779,0.952351833227918,11.46279646700439
160.0,41.12923754362614,23.085268138098094,0.95213532459035,11.57057555810683
161.0,41.74388158440406,23.519595692636127,0.9519123333552225,11.681083009830806
162.0,42.39825283101702,23.974175302042813,0.9516824884699321,11.794431288494481
163.0,43.093729266153176,24.449596574513766,0.9514453885644973,11.910741951763427
164.0,43.83172856644333,24.94645845377391,0.9512005985993249,12.03014675769866
165.0,44.61349213726986,25.46532258406556,0.9509476509512405,12.152787406487963
166.0,45.44026315324779,26.006742522486096,0.9506860382981055,12.278817845962807
167.0,46.31308791021961,26.571218049161832,0.9504152187262958,12.408402776147925
168.0,47.23296550328539,27.159218344104165,0.9501346046343757,12.541721265803833
169.0,48.20067404842312,27.771140544943773,0.9498435730515424,12.678963587762484
170.0,49.21688589906671,28.407318532785034,0.9495414414163622,12.820339209775783
171.0,50.282099829563336,29.06802530540406,0.949227506395034,12.9660642377098
172.0,51.39649811820544,29.753385362767034,0.9489009827645764,13.116381801023092
173.0,52.56021994600052,30.463491248583477,0.9485610620378234,13.271542767565098
174.0,53.77300010577979,31.198263296451568,0.9482068800717159,13.431816697502645
175.0,55.034311262188034,31.957479854205452,0.947837500511099,13.597498064054909
176.0,56.343491277683654,32.740854427568195,0.9474519705838754,13.768886909209943
177.0,57.69931015570998,33.54782528049082,0.9470492494632954,13.946314603504469
178.0,59.10037910559903,34.37774748736464,0.946628260170369,14.13012573414548
179.0,60.54492694960332,35.229780961021724,0.9461878817047814,14.320681086597627
180.0,62.0307175777428,36.102857672786264,0.9457269269038535,14.518366733424488
181.0,63.555237112965656,36.99576021631883,0.945244177871333,14.723580825104943
182.0,65.11543666282381,37.90700873908539,0.9447383573890539,14.936746014072696
183.0,66.70799340784417,38.83497619902089,0.944208163004161,15.158295852476828
184.0,68.32906130083899,39.777770713422065,0.9436522480848537,15.388684383312379
185.0,69.9744646715911,40.73332521532985,0.9430692444132202,15.628376936364571
186.0,71.63958623090544,41.699348133798715,0.9424577593550295,15.877853440119477
187.0,73.31946562782706,42.67335620473285,0.9418163910185672,16.13760270061102
188.0,75.00879679430203,43.65268714227271,0.9411437328101852,16.408121969958994
189.0,76.70195889515911,44.63449457407036,0.9404383892547905,16.689912613316604
190.0,78.3931038047551,45.61580181206387,0.9396989797187789,16.983477941823125
191.0,80.07616048832101,46.593483425955,0.9389241631419788,17.28931785789435
192.0,81.74494534231425,47.564336138580586,0.9381126330030946,17.607927573429453
193.0,83.39320700186911,48.52507315803317,0.9372631545038628,17.939789438724425
194.0,85.01470593120274,49.47237984823394,0.9363745515600139,18.28537334337442
195.0,86.60331559091958,50.402938903594375,0.9354457472075349,18.645127163629876
196.0,88.15306878548759,51.313472374090125,0.9344757557069798,19.019476170638953
197.0,89.65826970054864,52.20077382718509,0.9334637076543177,19.408816692325317
198.0,91.11356886132721,53.06175786919316,0.9324088640262204,19.813510003453487
199.0,92.51399339264802,53.893468093819735,0.9313106090443132,20.233884229926414
200.0,93.85511331922623,54.69316291682668,0.9301684957537338,20.670219572464276
201.0,95.13293107707005,55.458270953364334,0.9289822020550691,21.12276043725687
202.0,96.34415162560055,56.186513967324196,0.9277516008694818,21.591693459250465
203.0,97.48594119542351,56.87581961586073,0.9264766926673303,22.077166553486556
204.0,98.55626678901277,57.524465226972254,0.9251576851828265,22.579263831254394
205.0,99.55352941523864,58.13094463051155,0.9237949061545534,23.09803109610056
206.0,100.47699744784067,58.694154061742445,0.9223889016917566,23.633443994090474
207.0,101.32625333197527,59.2131617526215,0.9209403064309755,24.185448751735183
208.0,102.10179016006173,59.68750637714904,0.9194499897148858,24.75391209136735
209.0,102.80438243214824,60.11686451757504,0.9179188893416135,25.33867749662824
210.0,103.43536540291596,60.50127131308849,0.9163481081148297,25.9395288525638
211.0,103.9966481270338,60.84107048792719,0.9147388887883863,26.556199004550788
212.0,104.49027187623162,61.13671174972422,0.9130925202236801,27.188403213938177
213.0,104.91882392667003,61.38903325843556,0.9114104499325023,27.83579311048773
214.0,105.28506318659285,61.59897737967267,0.9096941653474724,28.498003461467526
215.0,105.59192444628677,61.76767118207437,0.9079452216669646,29.17463870625684
216.0,105.84256212647786,61.89644084735231,0.9061652369543396,29.865271544427777
217.0,106.04017940504879,61.986687489023865,0.9043558514892687,30.56946246360684
218.0,106.18805417252779,62.03996568703375,0.9025187356953,31.286748244166887
219.0,106.28947383866281,62.057871578182144,0.9006555651322483,32.01665934690628
220.0,106.34767973884894,62.04208970818694,0.8987680131647147,32.75871345563389
221.0,106.36587337014123,61.99432701907893,0.8968577397700414,33.51242604676998
222.0,106.34715733994959,61.91632224567896,0.8949263837537983,34.27730903799922
223.0,106.29451608866957,61.8098111932516,0.8929755442351811,35.05287770035772
224.0,106.21084168714238,61.67653068271118,0.8910067959421448,35.838648492750096
225.0,106.09882889044486,61.518180153239335,0.8890216452851435,36.63414836217065
226.0,105.9610992808578,61.336446422034804,0.8870215753505934,37.43890759824236
227.0,105.80004070176656,61.13295160607604,0.8850079844403562,38.252472304608915
228.0,105.61795666389007,60.90928953916581,0.8829822382619537,39.07439527002812
229.0,105.41694263082044,60.666983699248746,0.8809456229039496,39.90424569237501
230.0,105.19896625273536,60.40750395775237,0.8788993701476131,40.74160524659331
231.0,104.9658475699969,60.1322622024041,0.8768446516239072,41.586068865546785
232.0,104.71923307062924,59.8425888290861,0.8747825605746252,42.437250398057955
233.0,104.46067969190386,59.53977420479885,0.8727141511014197,43.29477278536653
234.0,104.1915506511708,59.22500897163335,0.8706403843124348,44.15828216610065
235.0,103.91315155037127,58.89945415574837,0.868562193774584,45.02743146978966
236.0,103.62660643760073,58.56416916715282,0.8664804202316068,45.90189737224775
237.0,103.33297302058733,58.22017325209494,0.864395868471752,46.7813660790656
238.0,103.03319957480603,57.868420813425104,0.8623092846897371,47.66553891098909
239.0,102.72811416722686,57.50978770163836,0.8602213452609554,48.5541360850477
240.0,102.4185077656161,57.145126547941636,0.8581327058984767,49.44688317224567
241.0,102.10503294692778,56.77519367164263,0.8560439370727422,50.3435290554567
242.0,101.78830604357216,56.40071864302758,0.8539555856979973,51.243829233573535
243.0,101.4688792341486,56.02238461144063,0.8518681579394825,52.147550270098684
244.0,101.14720854795935,55.640799549227395,0.8497820936626563,53.05447750904589
245.0,100.823737269025,55.256561449439836,0.8476978240900299,53.96439869657345
246.0,100.49883134926813,54.87020476402769,0.8456157248582847,54.87711728699896
247.0,100.17280224949783,54.482216633148624,0.8435361296076753,55.7924490047658
248.0,99.84595523458182,54.09307903942451,0.8414593677427475,56.71021070606488
249.0,99.51853025905584,53.70321487105307,0.8393857170989214,57.63023414814412
250.0,99.1907262677427,53.31300832091679,0.8373154207688469,58.5523614736632
