Time,J,A,S,tau
0.0,100.0,10.0,0.600996753050157,14.924413415220386
1.0,98.7550462042417,9.028450637805255,0.5949593516595837,15.87959225517484
2.0,97.5372929476953,8.15607141750579,0.5889998522932619,16.836616798609477
3.0,96.34550454100767,7.372797526962042,0.5831180532231424,17.795196659347187
4.0,95.17846124596782,6.669345676248221,0.5773126217301068,18.755212309862262
5.0,94.03500634055139,6.037418115615018,0.5715821371137655,19.716551654862602
6.0,92.91404179612934,5.469597120542873,0.5659251058681596,20.679109415769766
7.0,91.81452475146506,4.9592566542540535,0.5603399748421927,21.642786607161504
8.0,90.73546376323384,4.500465766991049,0.5548251435387184,22.60748999145309
9.0,89.67591556786208,4.087923280430816,0.5493789750744066,23.573131589529112
10.0,88.6349821086618,3.716885066158289,0.5439998059424074,24.53962822595062
11.0,87.61180749104122,3.383103808754816,0.5386859549611795,25.50690106918333
12.0,86.60557552081421,3.0827808707691218,0.5334357311781088,26.47487523529028
13.0,85.61550710088396,2.8125118889440284,0.5282474409627729,27.443479383660943
14.0,84.64085793655246,2.5692499777698288,0.5231193943995036,28.41264534513145
15.0,83.68091647878069,2.350265732129859,0.5180499109858816,29.382307777115905
16.0,82.73500175946232,2.153111940031689,0.5130373246438932,30.352403814239413
17.0,81.80246171310388,1.975599418675726,0.508079988441577,31.322872760560966
18.0,80.88267122593084,1.8157626850895598,0.5031762784447711,32.29365576855904
19.0,79.9750306914879,1.6718426921372571,0.49832459761706,33.264695553429334
20.0,79.07896430336042,1.5422601404100913,0.4935233788559086,34.23593609690641
21.0,78.19391879330917,1.425601275273918,0.488771088242524,35.20732237569344
22.0,77.31936192418746,1.3205966218290053,0.4840662274421079,36.1788000828192
23.0,76.4547813816859,1.2261093571462058,0.47940733647402833,37.150315363374645
24.0,75.59968344552608,1.1411192826819654,0.4747929956669992,38.121814546982684
25.0,74.75359201975442,1.0647124087612383,0.47022182812042007,39.093243883457575
26.0,73.91604744407226,0.9960693396209794,0.46569250133649465,40.06454927960936
27.0,73.08660557858676,0.934454779879363,0.46120372928937187,41.035676030778255
28.0,72.26483686472685,0.8792107658140605,0.4567542742756803,42.00656854916417
29.0,71.45032537574171,0.8297475645936423,0.45234294844446427,42.97717009242097
30.0,70.64266804506117,0.7855369872784147,0.4479686158177589,43.947422472529375
31.0,69.84147382913224,0.7461069177631608,0.4436301939245971,44.91726576581755
32.0,69.04636290075896,0.7110346966076057,0.43932665533327586,45.886638017254086
33.0,68.25696597332355,0.6799428888060894,0.4350570297175784,46.855474915221095
34.0,67.47292359106086,0.6524949144474581,0.4308204057002683,47.82370945950147
35.0,66.69388542408932,0.628390750351671,0.42661593256403885,48.79127162368076
36.0,65.9195096450556,0.6073638134000862,0.4224428224119936,49.75808798292737
37.0,65.14946228560841,0.589177520606274,0.4183003521096878,50.724081336889775
38.0,64.38341663229666,0.5736221681695582,0.4141878654585452,51.689170303414464
39.0,63.621052668960054,0.5605134876420823,0.4101047757746498,52.65326887471773
40.0,62.86205646724426,0.5496890913772052,0.4060505679072648,53.616285982118875
41.0,62.10611967074283,0.5410079224262884,0.4020248011864546,54.57812499272938
42.0,61.35293891543715,0.534346897422552,0.3980271115451711,55.53868322946863
43.0,60.60221535782375,0.5296011680400442,0.39405721512489567,56.49785137650363
44.0,59.85365410325541,0.5266807257771228,0.3901149101007033,57.4555129815397
45.0,59.106963774160356,0.5255108560486476,0.38620008129330535,58.4115437178431
46.0,58.36185595514692,0.5260292571230588,0.382312701585895,59.365810878371235
47.0,57.61804473094178,0.5281867563566217,0.37845283307303434,60.318172967602294
48.0,56.87524639409676,0.5319483959445298,0.37462064052475935,61.26847793664348
49.0,56.1331786908337,0.537280178424811,0.37081637583693355,62.216564245780944
50.0,55.39156080769343,0.5441792527384475,0.36704041247148156,63.16225719740104
51.0,54.65011256680155,0.5526303436488553,0.3632932052480153,64.10537228804716
52.0,53.90855436593703,0.5626407725669066,0.3595753329982034,65.04571053261476
53.0,53.16660672748039,0.57421425744138,0.3558874811583464,65.98305936254876
54.0,52.42398998198923,0.587380217633242,0.35223045192706987,66.91719169885587
55.0,51.6804241302014,0.6021589708404816,0.348605162069509,67.84786472375743
56.0,50.935628625511214,0.6185836283329882,0.34501264225368394,68.7748201111742
57.0,50.18932211810275,0.6366972168206284,0.3414540551937449,69.69778067843431
58.0,49.44122262406763,0.6565431302222873,0.3379306769679062,70.61645212456062
59.0,48.69104738488886,0.6781760875328507,0.3344439050642184,71.53052161152644
60.0,47.93851304767057,0.7016544555983263,0.33099526732560697,72.43965511130895
61.0,47.18333601945579,0.7270377094540765,0.32758640085239715,73.34349998271601
62.0,46.42523259215678,0.7543967066847934,0.3242190663937901,74.2416820237684
63.0,45.66391975948489,0.7838003145288329,0.3208951403923437,75.13380501737868
64.0,44.89911558017276,0.8153199676382835,0.3176165989234838,76.01945300905791
65.0,44.130540137357976,0.849035688468726,0.31438552908717204,76.89818675063829
66.0,43.357916715800776,0.8850208858675146,0.31120410638398643,77.76954593641345
67.0,42.58097234029248,0.9233533715612138,0.30807458622921763,78.63305030176556
68.0,41.799440098555685,0.9641128725607375,0.3049993011045765,79.4881972105467
69.0,41.01305998456161,1.0073699424607447,0.30198063330356967,80.3344658161835
70.0,40.22158043943107,1.0532006104759588,0.2990210084097844,81.17131697957231
71.0,39.424761716499866,1.1016728833960734,0.29612287339586363,81.99819375113479
72.0,38.62237597547458,1.1528460138390184,0.2932886762545841,82.81452566890019
73.0,37.814210931371576,1.2067818388238944,0.29052084849901016,83.61972896316423
74.0,37.000072777566146,1.2635257390505599,0.2878217743343499,84.4132099167752
75.0,36.17978578814091,1.3231137633650158,0.2851937798154275,85.19436815169847
76.0,35.35319959701646,1.3855824719456586,0.28263909140306925,85.96259887746672
77.0,34.5201871120127,1.4509383204245743,0.28015982537848017,86.71729724610177
78.0,33.68065172358193,1.5192041913923795,0.2777579488285306,87.4578616138313
79.0,32.83800990031069,1.5984389241544263,0.27543527738202905,88.18369666184248
80.0,32.06178517726566,1.8334863622541582,0.273193430512169,88.89421791207289
81.0,31.295768729361683,2.075699231084634,0.27103382126204734,89.58885501403248
82.0,30.54258366581915,2.3250952689104225,0.2689576256807843,90.26705628781542
83.0,29.805183975487697,2.581662598604785,0.2669657881013172,90.92829019239741
84.0,29.086903379486134,2.8453548017370807,0.26505898872053846,91.57205003645075
85.0,28.39147486280729,3.116090271835862,0.2632376355357426,92.19785677274785
86.0,27.72302331808973,3.3937535936071748,0.2615018736448347,92.80525961207466
87.0,27.086095287326653,3.6781936061217526,0.2598515703307167,93.39383903929804
88.0,26.485660901684657,3.9692240775902214,0.2582863187895628,93.96320804513566
89.0,25.927103874077144,4.266624655091671,0.25680544684715234,94.51301239572821
90.0,25.416204903468596,4.570141991344568,0.2554080265669547,95.04293071834208
91.0,24.9591125951008,4.879491185480809,0.25409288695029386,95.5526740580052
92.0,24.562300491175794,5.19435746866812,0.2528586290671266,96.04198499258926
93.0,24.23250798701089,5.514397896556263,0.25170364204128787,96.51063653791388
94.0,23.97664716188628,5.839244569254604,0.25062612873354634,96.958429581891
95.0,23.801706486804694,6.1685064207354285,0.2496241234506722,97.38519119427576
96.0,23.714620560452907,6.501772025632636,0.24869551561948902,97.79077202441928
97.0,23.722117775843166,6.8386122858495115,0.24783807268715644,98.175043650879
98.0,23.830543595404016,7.178583154078538,0.24704946298433617,98.53789580028429
99.0,24.144589971590616,7.420875328644439,0.2533816650918967,96.19637776200193
100.0,24.964900003112856,7.2120507208179685,0.31085057725157883,76.0400407069095
101.0,25.80874410031432,7.00483949152838,0.38056099059617815,56.21231658622636
102.0,26.67407076174875,6.7993452222367186,0.4304333958877906,44.994459682710826
103.0,27.55858491605631,6.595673015049298,0.4644764766843615,38.43546788492966
104.0,28.459755357679594,6.393929214364258,0.489281048490635,34.078934121291496
105.0,29.37482525775236,6.194221112351474,0.5083221199523897,30.91601886056949
106.0,30.30082562847845,5.996656638317872,0.5234706855387924,28.479660516151913
107.0,31.172900072783598,5.867050847203244,0.5358258692538361,26.523941559645333
108.0,31.97501541600653,5.845747103202338,0.5460846948269473,24.905876870618503
109.0,32.75826469204687,5.899179799705466,0.5547163880904413,23.53594650590264
110.0,33.530203467842604,6.037590537057456,0.5620524173515818,22.354760872149583
111.0,34.30005194977048,6.271247769567132,0.5683358972395033,21.321123425940517
112.0,35.07712770162154,6.6101307030405465,0.5737506871264888,20.405409281394107
113.0,35.868380002741404,7.06353754931023,0.5784393828256739,19.585677405514332
114.0,36.674991037662046,7.639637748669351,0.5825148775058759,18.845281985674614
115.0,37.48831284465619,8.344960763903417,0.586068068879527,18.17134223743949
116.0,38.28589165137937,9.183871364365654,0.5891732782617589,17.553708531753635
117.0,39.065531086052026,10.120116373981414,0.5918919776190649,16.984272756893905
118.0,39.856211414115634,11.06306431324272,0.5942755803654702,16.456469380588306
119.0,40.59730830016235,12.004958336871095,0.5963674433919294,15.964928108227717
120.0,41.227751816267904,12.941333482717104,0.5982044207900749,15.505211712002549
121.0,41.69287364142649,13.867599587727618,0.599818041672792,15.073622872088642
122.0,41.94012167897103,14.786031131412594,0.6012354340545207,14.667056848632033
123.0,41.89391962998743,15.73005167981877,0.6024800560290435,14.282888115315451
124.0,41.49123297942753,16.72659857548992,0.6035722688061949,13.91888341131792
125.0,40.675170854123394,17.80273857769627,0.6045298205325145,13.57313078077271
126.0,39.39904616751734,18.982692289008455,0.605368224829635,13.243985284486202
127.0,37.63667091643597,20.280407789556854,0.6061010806716093,12.930024215019301
128.0,35.395604795434345,21.690695467117212,0.6067403366222632,12.630011524211929
129.0,32.72892472945242,23.181213903364423,0.6072965186440709,12.342867407387551
130.0,29.743291660135665,24.685553538873037,0.6077789128671994,12.067644980509716
131.0,26.57828190086594,26.11985541714423,0.6081957262901856,11.803510141063095
132.0,23.37204288786748,27.407726896305515,0.6085542235913789,11.549724946906554
133.0,20.24581397687433,28.486949817620204,0.6088608439902147,11.305633773605967
134.0,17.29706960369302,29.311262814041648,0.609121301982329,11.070651720662216
135.0,14.602121600071575,29.846315712627774,0.6093406747673151,10.844254827888262
136.0,12.218267045770109,30.06832662406765,0.6095234780847961,10.62597181571273
137.0,10.184177244280775,29.965344438999853,0.6096737322348106,10.415377086920074
138.0,8.517359762011091,29.54150327709714,0.6097950196490404,10.212084787956751
139.0,7.210374098264085,28.82216940126391,0.6098905348969782,10.015743812698846
140.0,6.230613326431947,27.855135650277767,0.6099631298873104,9.826033336357979
141.0,5.527612742191814,26.70384771993433,0.6100153519587974,9.64265921049526
142.0,5.047229731379636,25.43365192542711,0.6100494783997789,9.465350755471576
143.0,4.742837306875012,24.10104935533074,0.610067546489587,9.293858034087918
144.0,4.579711648866516,22.749725318260328,0.6100713801559551,9.127949490743147
145.0,4.534474703137002,21.41139860015978,0.6100626134954455,8.967409915790359
146.0,4.5925204720946775,20.108498590620574,0.6100427115130012,8.812038693528727
147.0,4.745098049296966,18.85696170104689,0.6100129885732151,8.661648271851705
148.0,4.9867235534346905,17.66845650559172,0.6099746247710367,8.516062828062946
149.0,5.313122703054386,16.551910550086916,0.6099286801263506,8.375117163374009
150.0,5.71948561624581,15.514466945164893,0.609876107981467,8.238655614677516
151.0,6.199019672852314,14.562149153049894,0.6098177656175463,8.10653127558074
152.0,6.741632611319044,13.700324472263867,0.6097544252856746,7.978605124154291
153.0,7.333000753382287,12.933963220334121,0.6096867824525571,7.854745433489555
154.0,7.954120024434935,12.26765773051559,0.609615464281845,7.734827127220086
155.0,8.581548544957093,11.705412219536647,0.6095410365739815,7.618731282157094
156.0,9.188378841400816,11.250198020063781,0.6094640101820888,7.5063446583829885
157.0,9.745951090648296,10.903323974417912,0.6093848466763849,7.397559289703129
158.0,10.226153259709026,10.66370567377193,0.6093039634002493,7.2922721196467295
159.0,10.604048973405737,10.527141219217254,0.6092217379817725,7.190384677129887
160.0,10.860489892893327,10.485724269176755,0.6091385123732017,7.091802783261956
161.0,10.984440983243504,10.527547076307691,0.6090545964058749,6.996436303193595
162.0,10.97444816506505,10.636830384680431,0.6089702710500471,6.904198899618955
163.0,10.839165548466847,10.794578268786713,0.6088857913008666,6.815007825852019
164.0,10.59665060452991,10.979722204285233,0.6088013886699744,6.728783744418404
165.0,10.272473727964094,11.170668826775918,0.6087172735929567,6.6454505376912305
166.0,9.897012102581341,11.347024575431572,0.6086336374140534,6.564935164342809
167.0,9.502261817502584,11.491291085593557,0.6085506542602107,6.4871675118319665
168.0,9.118698385049596,11.590307389659053,0.6084684826928107,6.412080265245649
169.0,8.772601385281089,11.63623758111155,0.6083872671921238,6.339608786792082
170.0,8.484158909651455,11.6269412916336,0.6083071394902347,6.269691004431734
171.0,8.266496673694794,11.56565836902731,0.6082282197709009,6.202267308246899
172.0,8.125554585554626,11.460097880135589,0.6081506177183869,6.13728046206641
173.0,8.060675827540589,11.321109606680883,0.6080744335264922,6.074675506757314
174.0,8.065625353438579,11.161262698713967,0.60799975873171,6.014399681864899
175.0,8.129768152842566,10.993479032526576,0.6079266770042883,5.956402350720107
176.0,8.239376901384556,10.829892289273587,0.607855264855219,5.900634924306045
177.0,8.378951254022986,10.68096824593416,0.6077855922679386,5.847050796888362
178.0,8.532551967075054,10.55487668233764,0.6077177232544033,5.795605286258267
179.0,8.685075701157274,10.457120581543132,0.6076517163891888,5.746255567810556
180.0,8.823434435728371,10.390382572837702,0.6075876252587752,5.6989606234202075
181.0,8.937475785116781,10.354586836849458,0.6075254988787477,5.653681188808573
182.0,9.020605102374187,10.34718916409885,0.6074653820859871,5.610379697538358
183.0,9.070046498120762,10.363633101196749,0.6074073158508954,5.5690202455606395
184.0,9.086648297993255,10.3979822525783,0.6073513376044578,5.529568537671065
185.0,9.074313538296103,10.443614403024233,0.6072974815122123,5.491991846665651
186.0,9.039197138693911,10.493933428359632,0.6072457787194443,5.456258974809353
187.0,8.988744361408301,10.542998561732292,0.6071962575909916,5.422340210275862
188.0,8.930722623512974,10.586030431021666,0.6071489438902278,5.3902073030338125
189.0,8.872345071072571,10.619709383607567,0.6071038609814314,5.359833419763163
190.0,8.819621496320202,10.64228332610417,0.6070610299973718,5.331193111872467
191.0,8.776921521468418,10.653495982117411,0.6070204699763989,5.304262292010654
192.0,8.746808447742113,10.654346270638761,0.606982198010212,5.279018195613673
193.0,8.730075603524508,10.646763115947497,0.6069462293409263,5.255439368209768
194.0,8.726013696449941,10.633219994083294,0.6069125775067201,5.233505613778051
195.0,8.732743073213337,10.616382055071169,0.606881254414029,5.213197984521673
196.0,8.747636153470063,10.598783839959337,0.6068522704388958,5.194498761654147
197.0,8.767705024693615,10.582579568141101,0.6068256344980221,5.177391423596302
198.0,8.789978374632812,10.569386346010731,0.6068013541212737,5.161860626864057
199.0,8.811798657967971,10.560213465930605,0.6067794355139446,5.147892185440906
200.0,8.83103030439323,10.555469080938005,0.6067598836119951,5.135473051153685
201.0,8.846164466925625,10.555028723286195,0.6067427021417328,5.124591292243613
202.0,8.85636820698239,10.558346326853474,0.6067278936483163,5.115236075256512
203.0,8.86143477300224,10.564588644594462,0.6067154594862012,5.1073976981690095
204.0,8.861660200327728,10.572787031595043,0.6067053999922482,5.101067425643508
205.0,8.85772452749081,10.58194577215216,0.6066977142838426,5.096237685307536
206.0,8.850518205249779,10.591155285415883,0.6066924005422045,5.092901890154909
207.0,8.84103539795072,10.599659519656372,0.6066894558366527,5.091054454123946
208.0,8.830225230370266,10.606918708778117,0.6066888761643408,5.090690892652885
209.0,8.818954484805625,10.61259043327149,0.6066906566021657,5.091807626540013
210.0,8.80786464721328,10.616543524720372,0.6066947910678167,5.094402122412441
211.0,8.79744015531339,10.618822505315622,0.6067012725205175,5.098472843928329
212.0,8.787972615954567,10.619595910196018,0.6067100930054835,5.104019116340033
213.0,8.779513282078721,10.619127794916547,0.606721243169546,5.11104146451193
214.0,8.7720062276565,10.617712696238838,0.6067347130317277,5.119541006049493
215.0,8.765318663754478,10.61566228401439,0.6067504911582425,5.129520220210288
216.0,8.759205960853626,10.613257866839653,0.6067685652327961,5.140982130974382
217.0,8.753470530870235,10.610743594104301,0.6067889218415231,5.153930982275574
218.0,8.747899999591647,10.608301799106723,0.6068115461574931,5.168371806461014
219.0,8.742315476153973,10.606070318029602,0.6068364226399374,5.184310519106532
220.0,8.73663508703702,10.604120985819138,0.6068635338785534,5.201754142600723
221.0,8.73076769755736,10.602496289159475,0.6068928622545589,5.220710167736596
222.0,8.724770475973566,10.601192883921787,0.6069243874492801,5.241187717120029
223.0,8.71876569245503,10.60020330286073,0.6069580881485068,5.263196295135882
224.0,8.712857446587533,10.599504992354433,0.6069939425795022,5.286746038969956
225.0,8.707224111243832,10.599077263573069,0.6070319263292205,5.311848667409777
226.0,8.702080093949547,10.5989108716145,0.6070720141087338,5.338516228229871
227.0,8.697638963563188,10.599014792651055,0.6071141786088733,5.366762002541468
228.0,8.694160077628341,10.599423067671983,0.6071583907543334,5.396599963154557
229.0,8.691857675667418,10.600181138125176,0.6072046200459774,5.428044946996207
230.0,8.69099737441313,10.601371791350873,0.6072528332211302,5.46111286797263
231.0,8.691787441103743,10.603080320261597,0.6073029960627275,5.49582014508355
232.0,8.694463708753156,10.605425056232653,0.6073550708924025,5.532184524133397
233.0,8.699255919502082,10.608531073640762,0.6074090188874276,5.570224153873303
234.0,8.706342320325083,10.612531538776205,0.607464797838675,5.609958427146344
235.0,8.715993469944435,10.617581947163458,0.6075223633342223,5.651407370278307
236.0,8.72834459273874,10.623820900547457,0.6075816682895631,5.694591903212217
237.0,8.743696047613481,10.63141811835061,0.607642661800048,5.739533971298385
238.0,8.762219031943976,10.640522735689263,0.6077052909963053,5.786256072228792
239.0,8.784179616832464,10.65129898777739,0.6077694982532553,5.8347818828518605
240.0,8.809776107296429,10.663900103779445,0.6078352234554338,5.885135650224182
241.0,8.839319676518782,10.67849420925788,0.6079024012809618,5.9373427478228855
242.0,8.873030919423277,10.695235572591228,0.6079709634590351,5.991429129526034
243.0,8.911259699297306,10.714296558558521,0.6080408357364422,6.047421882208099
244.0,8.954254090935667,10.735833323376857,0.6081119404237868,6.105348666672742
245.0,9.002405547408806,10.760024849013496,0.6081841929328995,6.165238286746085
246.0,9.055989947360349,10.787033136360614,0.608257504662139,6.227120113986494
247.0,9.115442396675498,10.817046425435981,0.6083317790142316,6.291024679476788
248.0,9.181094182622887,10.85023852213272,0.6084069145282947,6.356983104923368
249.0,9.253380917383701,10.886802274321417,0.6084828012670336,6.425027577544067
250.0,9.332661231643325,10.926920768764985,0.6085593221592158,6.495191044197582
