Time,J,A,S,tau
0.0,100.0,10.0,0.5376995490678643,18.74568793358949
1.0,97.55659851413944,13.177198795831307,0.5376269408276326,18.683192774204798
2.0,93.22885423372654,16.15040025507715,0.5375519771712992,18.618736994271035
3.0,87.83794941456698,18.93215387778972,0.5374746846078899,18.552346223031133
4.0,81.91351302580209,21.53455190781398,0.5373950798495296,18.48403753852623
5.0,75.76872002370814,23.96893960472931,0.5373131805827908,18.4138286830848
6.0,69.58268046504553,26.245961041406076,0.5372290054676484,18.341738059959628
7.0,63.45629639516389,28.375598886064875,0.5371425741362702,18.267784729989103
8.0,57.445764868199056,30.367220060794654,0.5370539071906854,18.191988407611756
9.0,51.5817516631514,32.22960359418645,0.5369630262000614,18.114369456787244
10.0,45.880274784836494,33.970987877351966,0.536869953694846,18.034948884908612
11.0,40.34882226884373,35.599089678941134,0.5367747131660264,17.953748340322413
12.0,34.98989704634559,37.12113567252113,0.5366773290609007,17.870790107603373
13.0,29.803058774684846,38.543914857170215,0.5365778267709567,17.78609709769316
14.0,24.78610602416911,39.87377824628559,0.5364762326365381,17.699692849389262
15.0,19.9358005226037,41.11668438754553,0.5363725739278569,17.61160151523674
16.0,15.248291334166908,42.278216832358325,0.5362668788419794,17.521847858174034
17.0,10.719392018759052,43.36358830184843,0.5361591764971093,17.430457246534992
18.0,6.976005239727309,43.75204513513055,0.5360943702470141,17.376202156638044
19.0,4.761320267621173,42.741384283775965,0.5360587743616072,17.347215810477305
20.0,3.4421285603713256,40.996452365762664,0.5360236820094454,17.31869593527479
21.0,2.6524139512332736,38.897811262436576,0.5359891040346743,17.290648696531417
22.0,2.1753588752765136,36.66792649902491,0.5359550510950212,17.26308009686414
23.0,1.8899142579020811,34.42982130865178,0.5359215336586245,17.235995977049907
24.0,1.7322300975499734,32.249097524444096,0.5358885620009672,17.20940201711734
25.0,1.6727166199625585,30.15918560966378,0.5358561462019218,17.183303737488558
26.0,1.7033278905215445,28.175659856620666,0.5358242961428707,17.157706500140346
27.0,1.8306952618815537,26.304208332645377,0.5357930215038289,17.13261550972322
28.0,2.072315971082536,24.545062218993667,0.5357623317610356,17.108035815004733
29.0,2.4542844248197655,22.895471798573595,0.5357322361841799,17.083972309974516
30.0,3.0095950363354675,21.351107449916036,0.5357027438339936,17.060429735185586
31.0,3.7765567001062808,19.90685828680794,0.5356738635598768,17.037412679067483
32.0,4.7970747826852085,18.557291764387138,0.5356456039976215,17.01492557926092
33.0,6.114721245130098,17.296918914481857,0.5356179735672336,16.992972723968645
34.0,7.772617113156574,16.120346660258583,0.5355909804708581,16.971558253325316
35.0,9.811059616338389,15.02250914422456,0.5355646326907695,16.950686160759314
36.0,12.264432179903237,13.999343701970549,0.535538937987537,16.930360294412658
37.0,15.159545022673562,13.047038067287504,0.5355139038981035,16.910584358453676
38.0,18.51328455473829,12.162355210598099,0.5354895377345005,16.891361914733206
39.0,22.33023148784339,11.34305597007684,0.535465846581263,16.872696383572023
40.0,26.600677995117454,10.588266151276061,0.5354428372942762,16.8545910453727
41.0,31.298166149651582,9.898819716996725,0.5354205165006601,16.83704904284004
42.0,36.37800158818705,9.2776737814895,0.5353988905953561,16.820073381076543
43.0,41.77591498142363,8.73022632216245,0.5353779657414202,16.80366692990177
44.0,47.40791694743006,8.26457747492294,0.535357747868103,16.787832424742135
45.0,53.171073636525364,7.89161930378242,0.535338242669617,16.7725724679149
46.0,58.945528895475775,7.624913737951639,0.5353194556048385,16.757889530347253
47.0,64.59690116983778,7.480355577984051,0.5353013918956038,16.74378595243779
48.0,69.97756732268647,7.475555323303751,0.5352840565264464,16.73026394568644
49.0,74.92670165992254,7.629025640163905,0.5352674542435287,16.717325593776145
50.0,79.26943174296856,7.959176083499817,0.5352515895540487,16.70497285386973
51.0,82.81893995752546,8.483205736895254,0.535236466725635,16.693207557828273
52.0,85.38664728193785,9.215947695785566,0.535222089785825,16.68203141340622
53.0,86.8038888995714,10.168599249782119,0.5352084625216434,16.671446005433108
54.0,86.95189366819133,11.347640625068271,0.5351955884795299,16.661452797103674
55.0,85.79078576066425,12.753907768862966,0.5351834709636426,16.652053130373893
56.0,83.37265885923304,14.38182004669737,0.5351721130379383,16.643248228189716
57.0,79.83462208452158,16.21858876311496,0.5351615175240679,16.635039194582774
58.0,75.37191555336976,18.243682312361504,0.5351516870024786,16.627427016257837
59.0,70.20346780761848,20.428459949251273,0.5351426238118789,16.620412563301098
60.0,64.54160116231776,22.736174430775268,0.5351343300494379,16.613996590197402
61.0,58.57362542920776,25.122477671157863,0.5351268075708799,16.60817973672221
62.0,52.45596822303446,27.536463022347412,0.5351200579907542,16.60296252885043
63.0,46.31706984554258,29.922002531110707,0.5351140826827323,16.598345379606123
64.0,40.26450117662496,32.21883221427829,0.5351088827799612,16.594328589871044
65.0,34.3931572482849,34.36277439875353,0.5351044591754852,16.59091234915702
66.0,28.7927965989305,36.28500468545023,0.5351008125227318,16.58809673633993
67.0,23.553408185437167,37.91148982895139,0.5350979432359143,16.585881720281375
68.0,18.766219644391462,39.165082403556724,0.5350958514910056,16.584267160672887
69.0,14.518220331224976,39.972728196473405,0.5350945372260905,16.58325280848586
70.0,10.879988563982378,40.278315062039994,0.5350940001422393,16.582838306620605
71.0,7.8905158801180315,40.05764561818685,0.5350942397043283,16.583023190458924
72.0,5.545702187349968,39.32912403343624,0.535095255141827,16.583806888326368
73.0,3.796698765625826,38.15442028136534,0.5350970454498934,16.58518872205314
74.0,2.5598501616140235,36.6277929275757,0.5350996093902587,16.58716790734616
75.0,1.7346171994935222,34.85811295045972,0.5351029454922739,16.58974355418208
76.0,1.222747415478954,32.95044536654483,0.5351070520540496,16.592914667178263
77.0,0.9428181171616887,30.99291304398341,0.5351119271436173,16.596680145909218
78.0,0.8376434773153166,29.051013239363208,0.5351175686001624,16.601038785193033
79.0,0.8753398630009784,27.1682131030987,0.5351239740353299,16.605989275349298
80.0,1.0465007890470228,25.370078547174767,0.5351311408345119,16.61153020238381
81.0,1.359854910741378,23.66937927143893,0.5351390661582832,16.617660048181584
82.0,1.8378986171466747,22.070595837398574,0.5351477469438789,16.62437719066573
83.0,2.513076099359747,20.573266568406105,0.5351571799066573,16.63167990387941
84.0,3.4244918237262896,19.17420696777998,0.5351673615416827,16.639566358072358
85.0,4.6149766055126715,17.86887555918314,0.5351782881253356,16.648034619739104
86.0,6.128318121111612,16.652175941975432,0.5351899557169815,16.657082651630997
87.0,8.006587059744568,15.518923336763006,0.5352023601606754,16.66670831272513
88.0,10.287534630524075,14.46412821147376,0.5352154970869556,16.67690935818573
89.0,13.002123192380937,13.483200525857747,0.5352293619146483,16.687683439272835
90.0,16.17221073304376,12.572141063789685,0.5352439498528492,16.699028103289997
91.0,19.808338652312568,11.727767815699407,0.5352592559026903,16.7109407933814
92.0,23.9079916443948,10.948024670371673,0.5352752748586831,16.723418847981357
93.0,28.453433531229607,10.232310108046518,0.5352920013123414,16.73645950152759
94.0,33.410019837473065,9.58188874415784,0.535309429652548,16.75005988334275
95.0,38.72509556802704,9.00025422214875,0.5353275540690197,16.764217018082437
96.0,44.32710092480679,8.493423919293653,0.535346368553503,16.778927824994607
97.0,50.12611663713699,8.070086548180136,0.5353658669024074,16.794189117843715
98.0,56.01539827125259,7.7415660736187695,0.5353860427190601,16.80999760461957
99.0,61.87377342295812,7.521581410493252,0.5354068894157402,16.826349887068947
100.0,67.56786019254673,7.425775770455814,0.535428400216142,16.843242460427753
101.0,72.95307339426535,7.47104243068075,0.5354505681578975,16.860671713145614
102.0,77.8729791610063,7.674678913232732,0.5354733860949009,16.878633926459425
103.0,82.1585303667692,8.053409562642152,0.5354968466995593,16.897125273879197
104.0,85.63113274716409,8.622345753415189,0.5355209424655467,16.916141820938275
105.0,88.11422065491985,9.39396292326523,0.5355456657103796,16.93567952480543
106.0,89.4549868768521,10.377140229222478,0.5355710085778473,16.955734233769412
107.0,89.55207862769981,11.576295111020075,0.5355969630405284,16.97630168674079
108.0,88.37945869369378,12.990688680269374,0.5356235209029196,16.997377513117762
109.0,85.99646470040511,14.613794280859237,0.5356506738031949,17.018957231716474
110.0,82.53766690067732,16.43283073687025,0.5356784132171976,17.041036251177395
111.0,78.18839964336907,18.428368941000166,0.5357067304603433,17.06360986892836
112.0,73.15381321570288,20.574144048878452,0.5357356166906598,17.08667327088556
113.0,67.63241553263457,22.83712479991384,0.5357650629116466,17.110221531017498
114.0,61.79983130468387,25.177982603060457,0.5357950599751558,17.134249610899868
115.0,55.80319663691781,27.551990494656565,0.5358255985843088,17.158752359274608
116.0,49.76314867078339,29.910192885023747,0.5358566692964415,17.18372451161059
117.0,43.77967305007735,32.200436394239446,0.5358882625260625,17.20916068965346
118.0,37.93912416020018,34.36774645393813,0.5359203685478976,17.235055401027306
119.0,32.320957168553036,36.35381015377451,0.5359529774999481,17.26140303883303
120.0,27.0031511274093,38.09611766644925,0.5359860793865721,17.288197881252536
121.0,22.064917731231553,39.52832165927964,0.5360196640815865,17.315434091157766
122.0,17.58496780298107,40.58386678141621,0.5360537213314303,17.343105715762636
123.0,13.634401789015163,41.20406910422336,0.5360882407583102,17.371206686248218
124.0,10.26552094792144,41.34951808043937,0.5361232118634365,17.399730817464388
125.0,7.500408576637611,41.01112419095329,0.5361586240302585,17.428671807628252
126.0,5.324214973144488,40.216075754874005,0.5361944665275699,17.458023237874208
127.0,3.6867651219277295,39.02553987757354,0.5362307285131016,17.487778572314937
128.0,2.5121972811351556,37.524565289511514,0.5362673990366137,17.517931157574438
129.0,1.7134948050647723,35.80770698481836,0.5363044670432874,17.54847422263535
130.0,1.207075069640629,33.96520357451975,0.5363419213770984,17.579400878671215
131.0,0.9237057202295222,32.07330624801685,0.5363797507842066,17.610704118901467
132.0,0.8142563040162332,30.18998738235737,0.5364179439163744,17.642376818483378
133.0,0.8508506962723025,28.355174317996795,0.5364564893344088,17.674411734445076
134.0,1.0250265862318149,26.593668813421505,0.5364953755116114,17.706801505631482
135.0,1.3445183594922858,24.91898827000531,0.5365345908372676,17.739538652711577
136.0,1.8297488104517847,23.336955435578187,0.5365741236201589,17.772615578236653
137.0,2.5105604737264686,21.848524971621153,0.536613962092085,17.806024566721995
138.0,3.4232730561438607,20.451775102818004,0.5366540944113977,17.83975778475914
139.0,4.607992634762522,19.14320965228859,0.5366945086665764,17.873807281215555
140.0,6.106086289283529,17.918566496894872,0.5367351928797975,17.9081649874381
141.0,7.957761482963429,16.773305837099585,0.5367761350105418,17.942822717548207
142.0,10.19975990334393,15.702906614222346,0.5368173229591885,17.97777216872938
143.0,12.863206099033006,14.703058188430719,0.5368587445706751,18.013004921674554
144.0,15.971652941979265,13.769807498282638,0.5369003876381078,18.04851244096157
145.0,19.539390989544238,12.899704085993244,0.5369422399064492,18.084286075625013
146.0,23.56989284331059,12.089972199109111,0.5369842890760966,18.120317059498035
147.0,28.054793703799305,11.33874314232074,0.5370265228066556,18.156596511902244
148.0,32.9725386886141,10.645318107021826,0.537068928720558,18.19311543827677
149.0,38.28767453696672,10.010470409290827,0.5371114944069351,18.229864731568576
150.0,43.9501712700701,9.4367739533072,0.5371542074250121,18.266835171932243
151.0,49.89562969633705,8.928865426076602,0.5371970553080694,18.304017428379844
152.0,56.045788711234714,8.493618018714022,0.5372400255670179,18.34140205935457
153.0,62.31027024397592,8.140194140453222,0.5372831056941918,18.37897951386198
154.0,68.58863079028075,7.879925967809644,0.537326283167018,18.416740132536084
155.0,74.77271844824271,7.726045915839501,0.5373695454517687,18.454674148790097
156.0,80.74778468343928,7.693232874588536,0.537412880007241,18.492771689953123
157.0,86.39202461467741,7.7970195901782375,0.5374562742885023,18.531022778700407
158.0,91.5743124701729,8.053076620547577,0.5374997157505936,18.569417334364477
159.0,96.15190597478035,8.4764114125359,0.5375431918522404,18.60794517428413
160.0,99.97147193907817,9.08053852968567,0.537586690059544,18.646596015468788
161.0,102.87694711103029,9.876676075437326,0.5376301978496667,18.68535947622764
162.0,104.72557659121136,10.87300358213511,0.537673702714526,18.724225077782773
163.0,105.40955009595987,12.074009621392173,0.5377171921644733,18.763182245953754
164.0,104.8766230903927,13.47999389988653,0.5377606537318529,18.802220313409958
165.0,103.14320200674095,15.086667423792626,0.537804074974898,18.84132852102286
166.0,100.29278875004027,16.884847899551026,0.537847443481151,18.88049602021301
167.0,96.46240542895666,18.860333621036084,0.5378907468709302,18.919711875483525
168.0,91.82136386486467,20.993795617936115,0.5379339728012325,18.958965065863236
169.0,86.54843797894834,23.260887658110097,0.5379771089690663,18.99824448775292
170.0,80.81396514223263,25.632504974489404,0.5380201431150887,19.037538957123264
171.0,74.76906417609383,28.07531276356831,0.5380630630271419,19.076837211926918
172.0,68.5418679197411,30.552574125022893,0.5381058565435815,19.11612791491685
173.0,62.23846695609251,33.02513574038498,0.5381485115569099,19.155399656078327
174.0,55.946619416604904,35.452359296572254,0.5381910160171113,19.194640955476736
175.0,49.7404866015584,37.79259020481045,0.5382333579349338,19.233840266237394
176.0,43.68560683377429,40.00280723982589,0.5382755253854694,19.272985977266497
177.0,37.84379171043991,42.03745483813875,0.5383175065112539,19.312066416482686
178.0,32.277256290968396,43.8470040123281,0.5383592895255495,19.351069853953284
179.0,27.05099890265205,45.37746911823341,0.538400862715787,19.38998450497642
180.0,22.232060553280313,46.57241675942425,0.5384422144464083,19.428798533633717
181.0,17.884919552391896,47.37828602591991,0.5384833331622344,19.467500056081025
182.0,14.063501700692665,47.75263486136963,0.5385242073914717,19.506077144126024
183.0,10.801999906601601,47.673166439072254,0.5385648257487338,19.544517828852197
184.0,8.107640918758186,47.14449345732781,0.5386051769380876,19.582810104331653
185.0,5.9582775885812955,46.1999956516459,0.5386452497558705,19.620941931459296
186.0,4.305830063785111,44.89789948735384,0.5386850330936186,19.658901241859898
187.0,3.084634098275683,43.31277254073531,0.5387245159408415,19.696675941902537
188.0,2.2221329187202135,41.52508611077857,0.5387636873878032,19.734253916798757
189.0,1.6491013948573952,39.61166020462051,0.5388025366281848,19.7716230348059
190.0,1.3073438558032568,37.63893088511249,0.5388410529617098,19.80877115151806
191.0,1.154073979906375,35.65965158172278,0.5388792257966974,19.845686114250952
192.0,1.1632580764341134,33.71255237750969,0.5389170446525416,19.88235576651752
193.0,1.3247817969870814,31.823935162614458,0.5389544991621384,19.918767952593928
194.0,1.6423897749046568,30.010156716407376,0.538991579074264,19.954910522179524
195.0,2.1311009627112165,28.280216330880833,0.5390282742557936,19.990771335133413
196.0,2.8145777690755986,26.638003016648508,0.5390645746939404,20.026338266307054
197.0,3.722612008022201,25.08404594801765,0.5391004704983908,20.061599210458755
198.0,4.888782688410274,23.616777230034764,0.5391359519033628,20.096542087251134
199.0,6.34827441552395,22.233394826281245,0.5391710092695882,20.131154846328556
200.0,8.135842493263148,20.930431240410332,0.5392056330862213,20.165425472473988
201.0,10.283932103668064,19.704121613656127,0.5392398139726843,20.199341990845554
202.0,12.82095410482215,18.550642099602047,0.5392735426804022,20.23289247227713
203.0,15.769771192400402,17.466273389767036,0.5393068100945548,20.266065038687028
204.0,19.146416869334054,16.447524259537563,0.5393396072354087,20.298847868401687
205.0,22.958991967127897,15.491245256856226,0.5393719252602316,20.331229201838806
206.0,27.20696658349184,14.594766768938182,0.5394037554651129,20.363197347304343
207.0,31.880479834054945,13.756044232226094,0.5394350892853724,20.39474068614746
208.0,36.95979671769572,12.973849252944667,0.5394659182970273,20.425847678489077
209.0,42.415013153134566,12.248013699807004,0.5394962342186088,20.45650686930825
210.0,48.20592231790548,11.579697272619288,0.5395260289123197,20.486706894282733
211.0,54.28201883810175,10.971639332827886,0.5395552943845516,20.516436485266514
212.0,60.582860346598316,10.428385592920927,0.5395840227871374,20.54568447630922
213.0,67.03895430106635,9.956452241009561,0.5396122064188562,20.574439810011114
214.0,73.5730799586536,9.56435024778233,0.5396398377252379,20.602691542655233
215.0,80.10195859210825,9.262520811923073,0.5396669093006977,20.63042885124842
216.0,86.5379667277558,9.063102031756817,0.5396934138881465,20.65764103859988
217.0,92.78994646783477,8.979573160170542,0.5397193443804824,20.684317540029674
218.0,98.76280636891634,9.026271532467831,0.5397446938207161,20.71044792895795
219.0,104.35550118991667,9.217812985381121,0.5397694554031109,20.73602192349719
220.0,109.45805620541586,9.568435738165753,0.53979362247325,20.761029392068426
221.0,113.94952066960705,10.091322039786107,0.5398171885287315,20.785460359666956
222.0,117.69907039987118,10.797910874467116,0.5398401472198646,20.809305014208135
223.0,120.57263516293993,11.69726950357523,0.5398624923496333,20.832553712100687
224.0,122.44559507510037,12.795540083849067,0.5398842178743933,20.855196984654917
225.0,123.21913674738035,14.095467757206533,0.539905317904245,20.877225544138522
226.0,122.8366469507683,15.596074820665212,0.5399257867031173,20.89863028951355
227.0,121.2950193241897,17.292428104032716,0.5399456186895676,20.919402313096324
228.0,118.646620120733,19.17551674747046,0.539964808436663,20.939532906012907
229.0,114.99208763143196,21.232211953561304,0.5399833506717318,20.95901356325445
230.0,110.46712033945047,23.445321636191533,0.5400012402779981,20.97783599158177
231.0,105.22529566153744,25.793744012525938,0.5400184722932471,20.995992113059852
232.0,99.42264830278015,28.252676212534773,0.5400350419113991,21.013474072715518
233.0,93.20600024897477,30.794009057483077,0.5400509444818934,21.030274242959216
234.0,86.7061785015205,33.38687478323178,0.540066175510218,21.046385229619798
235.0,80.03552664852015,35.99838243595913,0.5400807306583728,21.06179987775515
236.0,73.28856384474074,38.594454874084434,0.5400946057445265,21.07651127614206
237.0,66.54430338234991,41.140547032766875,0.5401077967440737,21.090512763839097
238.0,59.86965125304172,43.60196316622369,0.5401202997892381,21.10379793424301
239.0,53.3231909144283,45.94343302480331,0.5401321111699059,21.116360641118415
240.0,46.95932039632529,48.1278807870628,0.5401432273335762,21.128195002806997
241.0,40.832276761164444,50.114610963437954,0.5401536448861445,21.139295407881626
242.0,34.99931692438125,51.85784209053216,0.5401633605919336,21.14965651912182
243.0,29.52195148173524,53.30668575864356,0.5401723713743923,21.159273278602
244.0,24.46413371730093,54.40781289871254,0.5401806743166047,21.168140912090863
245.0,19.887073542800994,55.1111015265554,0.5401882666616956,21.176254933155803
246.0,15.841512903230791,55.37747399697406,0.5401951458134624,21.183611147362054
247.0,12.35946174759261,55.1869461049888,0.5402013093371013,21.190205656395417
248.0,9.447968671550495,54.54439114199352,0.5402067549601596,21.196034862368567
249.0,7.087246482249006,53.48085680833276,0.5402114805725197,21.201095470023912
