Time,J,A,S,tau
0.0,100.0,10.0,0.588967700022917,57.409870512395976
1.0,99.7637840204011,8.964763967025178,0.5876678490423861,58.40501439231829
2.0,99.53178421137113,8.037361486862771,0.5863875346616025,59.400646657459184
3.0,99.30406315049706,7.206740205579996,0.5851261124121231,60.396580082214584
4.0,99.08038968989707,6.46272300079721,0.5838828414999152,61.39278547646641
5.0,98.86054548563871,5.796219104178151,0.5826569908355435,62.389236669419326
6.0,98.64432383910506,5.199095123440656,0.5814478398204538,63.38591016622999
7.0,98.43152864147527,4.664077297625535,0.5802546788992615,64.38278484166952
8.0,98.22197347496137,4.1846645327612135,0.5790768099958957,65.37984168019582
9.0,98.01548076401728,3.755038608295589,0.5779135467589664,66.3770635370793
10.0,97.81188100994017,3.3699948828517856,0.5767642146715584,67.37443492745153
11.0,97.6110121314975,3.0248795948243665,0.5756281511123816,68.37194184558301
12.0,97.41271883034211,2.715526097620794,0.5745047052708364,69.36957159683062
13.0,97.21685202199643,2.4382062897122094,0.5733932379949523,70.36731264997151
14.0,97.02326833806686,2.189585206918667,0.5722931216237886,71.365154509159
15.0,96.83182964047553,1.9666759229109843,0.5712037397033884,72.3630875940528
16.0,96.64240258892725,1.7668053587690522,0.5701244866803189,73.36110313522127
17.0,96.45485825608858,1.5875812502373576,0.5690547675908646,74.35919308248874
18.0,96.2690717492873,1.4268603939648694,0.567993997657106,75.35735001913386
19.0,96.0849218755151,1.2827244663477397,0.5669416018891941,76.35556708750735
20.0,95.90229083721546,1.1534558869491722,0.5658970146844474,77.35383792305176
21.0,95.72106393227628,1.0375155832799354,0.5648596793566659,78.35215659259983
22.0,95.54112928797194,0.9335257799267033,0.5638290476892447,79.35051754076858
23.0,95.36237761305635,0.8402523368865549,0.5628045794831879,80.34891554142017
24.0,95.18470195314116,0.7565892390521051,0.5617857420589532,81.3473456520946
25.0,95.00799747124638,0.6815462554902606,0.5607720097905361,82.34580317369928
26.0,94.83216123761787,0.6142360652702374,0.5597628636325747,83.34428361289557
27.0,94.65709202258961,0.5538634192010972,0.5587577906221854,84.34278264640139
28.0,94.48269010698763,0.499716257838921,0.5577562834144512,85.34129608830267
29.0,94.30885709612357,0.4511563608333438,0.5567578398100952,86.33981985850392
30.0,94.13549573690054,0.40761175845399983,0.555761962274562,87.338349952289
31.0,93.96250974593056,0.36857031617359065,0.5547681574874592,88.33688241113212
32.0,93.78980363809112,0.3335729701293774,0.5537759358854611,89.33541329368381
33.0,93.61728255797958,0.30220840322110065,0.552784811208904,90.333938647154
34.0,93.44485211658841,0.27410839589966096,0.5517943000734485,91.33245447844456
35.0,93.2724182269914,0.24894295478802111,0.5508039215394828,92.33095672481649
36.0,93.09988694176974,0.2264165710203312,0.5498131966938327,93.3294412240911
37.0,92.9271642902274,0.20626482926357606,0.5488216482518068,94.32790368311497
38.0,92.75415611394669,0.18825090177706422,0.5478288001652659,95.32633964507708
39.0,92.5807679016062,0.17216309895300275,0.5468341772477734,96.32474445527048
40.0,92.40690461699748,0.15781208240306288,0.5458373048207059,97.32311322277775
41.0,92.2324705291778,0.14502864219571143,0.5448377083742945,98.32144078198303
42.0,92.05736902676935,0.13366183890245842,0.5438349132516104,99.31972164659776
43.0,91.88150243787985,0.12357695568004487,0.542828444360351,100.3179499639896
44.0,91.7047718267311,0.11465420616287311,0.5418178259046511,101.31611945960834
45.0,91.52707679500146,0.10678696498801234,0.5408025811583957,102.31422338045493
46.0,91.34831525370696,0.09988093342171553,0.5397822322581405,103.31225442653685
47.0,91.16838320391663,0.09385259768297005,0.5387563000543518,104.31020468169719
48.0,90.98717447137237,0.08862854021682155,0.5377243039809796,105.3080655264505
49.0,90.80458045722885,0.08414449329689933,0.5366857619953672,106.30582755206488
50.0,90.62048984012709,0.08034449256298085,0.5356401905538152,107.30348045440138
51.0,90.43478826232514,0.0771804232389169,0.5345871046466256,108.30101291802698
52.0,90.2473580121356,0.0746113063818492,0.5335260179088467,109.29841249370007
53.0,90.05807764796255,0.07260289725042066,0.5324564427865842,110.29566545070455
54.0,89.86682160359072,0.07112719414937045,0.5313778907934379,111.2927566159847
55.0,89.67345974969594,0.07016230261922858,0.5302898728509474,112.28966919154257
56.0,89.47785692780728,0.06969203402603005,0.5291918997403859,113.28638455370077
57.0,89.2798724887942,0.06970560446955605,0.528083482650453,114.28288204707414
58.0,89.07935942965486,0.07019886137590653,0.5269641339090944,115.27913862049922
59.0,88.87616419625587,0.0711718694917341,0.5258333677955417,116.2751286960246
60.0,88.67012560802952,0.07263066145121164,0.5246907016172793,117.27082370267213
61.0,88.4610742325374,0.07458697129740414,0.5235356568784297,118.2661917651526
62.0,88.24883144201462,0.07705866566818338,0.5223677607241889,119.26119725704187
63.0,88.03320840129287,0.08006934403986807,0.5211865476909283,120.25580030419886
64.0,87.81400495557058,0.08364939609389162,0.5199915616500264,121.24995623878634
65.0,87.59100838234203,0.08783631715492578,0.5187823581051711,122.24361497501344
66.0,87.36399197407599,0.09267501743896747,0.5175585068782443,123.23672029207533
67.0,87.13271345378661,0.098218810192139,0.5163195951653711,124.22920902748886
68.0,86.89691320762343,0.10453009477183373,0.5150652310564893,125.22101016490747
69.0,86.6563122920109,0.11168128754504311,0.5137950475677219,126.2120437973852
70.0,86.4106101801374,0.11975594355724625,0.5125087072666835,127.20221994579215
71.0,86.1594822123304,0.1288497698361449,0.5112059075950679,128.1914372087057
72.0,85.90257682575434,0.13907241137502052,0.5098863867451001,129.17958128335795
73.0,85.63951244641245,0.1505486179211841,0.5085499303439723,130.16652328883168
74.0,85.36987373031548,0.16342040189901166,0.5071963794491423,131.1521177399309
75.0,85.09320783550898,0.1778489819728765,0.5058256387831689,132.13620049726518
76.0,84.80902000740964,0.1940166445982817,0.5044376864062011,133.11858633447355
77.0,84.51676841212337,0.21212980235457046,0.5030325849931833,134.09906608341504
78.0,84.21585904966004,0.2324215355080202,0.5016104932544109,135.07740376842975
79.0,83.9056396832851,0.25515414267817277,0.5001716794294854,136.0533331804632
80.0,83.58539296576754,0.28062325170274893,0.4987165365548983,137.0265539770675
81.0,83.2847526152321,0.32461146995587015,0.4972455978561161,137.99672775085983
82.0,83.01222306966893,0.3886765169113914,0.49575955415955997,138.9634735385015
83.0,82.74366271553498,0.459549129604298,0.4942592735006261,139.92636271214934
84.0,82.48079590454113,0.5380518040248011,0.49274582077682166,140.88491382344372
85.0,82.22568657679749,0.6251016882956775,0.4912204790602563,141.83858694428042
86.0,81.98079346119329,0.7217191615629774,0.48968477161605994,142.78677774207276
87.0,81.74903196223701,0.8290364407672711,0.4881404843142295,143.72881135000858
88.0,81.53384159370118,0.9483059744605354,0.48658968783028533,144.6639361696238
89.0,81.3392603890631,1.0809083512294355,0.4850347591899,145.59131769348915
90.0,81.17000219603233,1.228359059753073,0.48347840100826783,146.51003276293207
91.0,81.03153574729595,1.3923138457435196,0.4819236578950716,147.41906437195908
92.0,80.93016192908803,1.574571969312759,0.4803739284642793,148.31729740624672
93.0,80.87308446455805,1.777077027532416,0.47883297212697623,149.2035154975921
94.0,80.8684652076734,2.0019134144149424,0.47730490639341333,150.07640014746278
95.0,80.92545349382715,2.2512990397505765,0.47579419565375136,150.9345318344376
96.0,81.05418445194402,2.527572913736238,0.47430562885072813,151.77639375784938
97.0,81.26571947762028,2.833176157549115,0.4728442818929983,152.6003794598301
98.0,81.57192151193914,3.1706272999347465,0.4714154671109596,153.40480359257458
99.0,81.98524666052697,3.542489742221696,0.4700246650191314,154.18791733198182
100.0,82.51841817598957,3.95133315767626,0.46867744106714226,154.94792757770134
101.0,83.18399484496754,4.399687812567861,0.46737934643600965,155.68302066532814
102.0,83.99378073666408,4.889993125672011,0.4661358044482666,156.39138966862743
103.0,84.95810591089979,5.424542454289817,0.4649519869451167,157.07126495884341
104.0,86.08498468799117,6.005426331166811,0.4638326861867479,157.7209462887373
105.0,87.37914107141677,6.634474695003331,0.46278218269808,158.33883620438922
106.0,88.84098747681433,7.313203514550157,0.46180412117625064,158.92347207165307
107.0,90.46560828587558,8.042767652841022,0.4609013986714227,159.4735553998196
108.0,92.241743413215,8.823917267249637,0.46007605855415534,159.9879797690216
109.0,94.1511179554788,9.656974813829812,0.4593292310386635,160.46584792228933
110.0,96.16806289931543,10.541824396683216,0.4586610980484789,160.90648251853682
111.0,98.25929256761245,11.477900501293112,0.45807085863625646,161.30943638994293
112.0,100.38442303322584,12.464205758277739,0.45755675540650176,161.67448785492718
113.0,102.49690055980301,13.499334157370006,0.4571161155135913,162.00163197506723
114.0,104.54547668951815,14.581507307676821,0.4567454206657712,162.29106434566958
115.0,106.47611438314165,15.708616502480174,0.4564403915197314,162.54316095939805
116.0,108.23427496961664,16.878273210610487,0.4561960904016716,162.7584532357392
117.0,109.76735618344466,18.087861049995663,0.45600702985079083,162.93760137435476
118.0,111.02712188705289,19.334588522938905,0.45586728392700776,163.08136684077658
119.0,111.97191527768622,20.615539956206526,0.4557705970747559,163.19058535462088
120.0,112.56848528569842,21.927723032200355,0.45571048677521026,163.2661413750126
121.0,112.79324721322679,23.268111727686254,0.45568033717301704,163.30894486211585
122.0,112.63284339207661,24.633682798985003,0.4556734808848155,163.31991109664872
123.0,112.08427229714742,26.021448369018838,0.4556832695502713,163.29994324081824
124.0,111.15410302504748,27.428479732297173,0.4557031325344283,163.24991820255394
125.0,109.85733138213442,28.851928016058086,0.4557266240448917,163.1706753905987
126.0,108.2157489967428,30.28903595356064,0.455747453010434,163.0630100648514
127.0,106.25639251334131,31.737150041210167,0.45575951582965935,162.9276658356262
128.0,104.00963110719339,33.19372575512887,0.45575691147306013,162.76533197430726
129.0,101.50747683365586,34.65632982379707,0.4557339527539587,162.5766417187694
130.0,98.782084951788,36.12264005133073,0.455685171766713,162.3621721754757
131.0,95.86453388862071,37.59044309919988,0.4556053211132386,162.122445392389
132.0,92.78391546022645,39.057630728612004,0.4554893719417807,161.85793034097912
133.0,89.56673418694652,40.52219495481353,0.45533250973852,161.56904556513288
134.0,86.23658816174797,41.982222486834615,0.45513012865778485,161.25616229407743
135.0,82.81408635250477,43.43588876018479,0.4548778250373039,160.91960785181342
136.0,79.31694843239852,44.881451809886165,0.45457139061712787,160.55966922796165
137.0,75.76023181180909,46.31724618789612,0.4542068058888409,160.1765967000067
138.0,72.15663982691906,47.741676910407655,0.4537802335285724,159.77060749091925
139.0,68.51684432232675,49.15321443080068,0.45328801417944803,159.34188904051373
140.0,64.84985080787233,50.55038853522492,0.4527266596532977,158.89060274682564
141.0,61.16330014076679,51.93178427995295,0.4520928511003905,158.41688689419658
142.0,57.463774080581636,53.29603648399781,0.4513834319027267,157.92086012452717
143.0,53.75701399409745,54.64182701548878,0.4505954094721737,157.40262379090072
144.0,50.048125131185365,55.967881983280016,0.4497259575129681,156.8622645205524
145.0,46.34176714960475,57.27296663562066,0.4487724070096723,156.29985742291416
146.0,42.642258147232674,58.55588366505597,0.44773224883776325,155.7154678971962
147.0,38.95366694150787,59.81547282716531,0.4466031442555863,155.10915349538695
148.0,35.27989942159712,61.05060754015775,0.44538291793398466,154.4809663686152
149.0,31.624742846141473,62.26019329918771,0.44406955810104437,153.8309548447063
150.0,27.99189737839267,63.44316823570706,0.4426612294818799,153.15916494601586
151.0,24.385003459444704,64.59850256149625,0.44115627488548464,152.465642102842
152.0,21.262429530113735,65.27079857644989,0.5096747868592292,78.5457154038813
153.0,17.13150774277172,66.96063582885654,0.5468859420114676,55.08996537158078
154.0,10.836494386851992,70.79831793491238,0.5538836856313362,49.84750445366338
155.0,4.046085792688499,75.10644255623133,0.5559612574477549,46.79663548914436
156.0,0.0,79.21163959159294,0.555859883960906,44.637002597419354
157.0,0.0,82.69569293335061,0.5545324253080909,42.95811971671063
158.0,0.0,85.31893661353544,0.5524313028554149,41.57785697761742
159.0,0.0,86.98459566561384,0.5498095499700978,40.39985414871901
160.0,0.0,87.70587506007176,0.5468238807158536,39.36728732896811
161.0,0.0,87.57177089599767,0.5435785067684239,38.444023642675255
162.0,0.0,86.71482870796456,0.5401462737593742,37.60584373902896
163.0,0.0,85.28377218571207,0.5365801066217215,36.83583427197649
164.0,0.0,83.42336035439924,0.5329196221335368,36.121799050423924
165.0,0.0,81.26182569846345,0.5291951893737812,35.454711309130474
166.0,0.0,78.90492898464305,0.5254305433953651,34.82774311728525
167.0,0.0,76.43494651088578,0.5216445362783645,34.235631853850386
168.0,0.0,73.91277507347499,0.5178523506830797,33.674252655148955
169.0,0.0,71.38154180005917,0.5140663606102248,33.14032305005477
170.0,0.0,68.87058981477368,0.5102967590854249,32.63119345294335
171.0,0.0,66.3991028558341,0.5065520175305919,32.14469801754769
172.0,0.0,63.97916617125947,0.502839244081649,31.679041630775576
173.0,0.0,61.61802279167697,0.4991644422490362,31.232720291493838
174.0,0.0,59.31975221810631,0.49553272188384107,30.804458556129834
175.0,0.0,57.086409251233334,0.49194846074807624,30.393162468032457
176.0,0.0,54.918778821288306,0.4884154356553469,29.997883045518417
177.0,0.0,52.81685310973066,0.4849369147734586,29.617791631602376
178.0,0.0,50.78013420772302,0.48151573432781175,29.252156597367506
179.0,0.0,48.80783960492063,0.47815440771662016,28.900319052209074
180.0,0.0,46.898999041781074,0.4748550911198814,28.561699907599102
181.0,0.0,45.05250218894618,0.4716197485163511,28.235757273549236
182.0,0.0,43.26716927327309,0.46845003326280354,27.922017757701962
183.0,0.0,41.54183285909717,0.46534750726377877,27.62002999088981
184.0,0.0,39.87519156831129,0.46231346706537463,27.329386480474202
185.0,0.0,38.266065400323846,0.45934911781946874,27.049710185359487
186.0,0.0,36.713099627356954,0.4564555131859853,26.780644636571438
187.0,0.0,35.21500042998625,0.4536335844323209,26.521862047704417
188.0,0.0,33.77042205311221,0.4508841558202673,26.273053262039348
189.0,0.0,32.37803634753485,0.44820796251338496,26.033927785652853
190.0,0.0,31.03651952862947,0.4456056464065504,25.804213397050148
191.0,0.0,29.744532898251563,0.4430777741059839,25.583651945512177
192.0,0.0,28.50074245027537,0.44062483764135174,25.37199984589364
193.0,0.0,27.30382442076549,0.4382472634028847,25.169026458807956
194.0,0.0,26.15245568921326,0.43594541531638703,24.974513097250487
195.0,0.0,25.045324302365163,0.43371960059514053,24.78825221290028
196.0,0.0,23.981130854801325,0.43157007344877785,24.61004665963144
197.0,0.0,22.95858508700855,0.4294970383832543,24.439708970643753
198.0,0.0,21.97641438706321,0.4275006536963602,24.27706084778582
199.0,0.0,21.033364719302973,0.42558103426341287,24.12193261023064
200.0,0.0,20.12820319492003,0.4237382542416652,23.97416269580309
201.0,0.0,19.25972124850043,0.42197234933826605,23.83359724686634
202.0,0.0,18.426740211450248,0.42028331888859466,23.700089748376392
203.0,0.0,17.628117727431313,0.4186711279437699,23.57350064514322
204.0,0.0,16.862752080574385,0.4171357091267208,23.45369699343614
205.0,0.0,16.129593009729646,0.4156769640550769,23.340552207123448
206.0,0.0,15.427650436979391,0.41429476505974566,23.233945734460285
207.0,0.0,14.756007303370248,0.4129889564366305,23.133762820145723
208.0,0.0,14.113832405284638,0.411759355781482,23.039894252952045
209.0,1.150652176940834,13.500395948722836,0.4106057551529976,22.95223613821991
210.0,2.447811405051193,12.915086045501859,0.4095279221425978,22.870689685810508
211.0,3.8300430868884643,12.357425251235286,0.40852560092949997,22.79516099948027
212.0,5.296698398713984,11.827090661467636,0.4075985128548767,22.725560932626692
213.0,6.845757256309496,11.323929943660964,0.4067463573608011,22.661804822518164
214.0,8.47359997860551,10.847968754396959,0.40596881310941957,22.60381239918467
215.0,10.175060336022826,10.399427049938158,0.4052655382576221,22.551507587090395
216.0,11.943385247026793,9.978723957488535,0.40463617111678724,22.50481836229791
217.0,13.770257541855315,9.586477038639652,0.4040803307923565,22.463676594689105
218.0,15.64585830809693,9.223496553906086,0.4035976176372711,22.428017920895588
219.0,17.558994518858846,8.890772554131347,0.40318761367522354,22.397781604490845
220.0,19.49727097915104,8.589455756700655,0.40284988286841217,22.372910419446573
221.0,21.447308040784687,8.320829903964054,0.40258397149465064,22.35335051592367
222.0,23.39498083806552,8.086278057429585,0.4023894084566121,22.33905130199991
223.0,25.325667243103105,7.887243313150558,0.40226570554069685,22.329965336673467
224.0,27.224513857463258,7.725186281809741,0.40221235747274403,22.32604822869264
225.0,29.076667088914284,7.6015388048932095,0.40222884210283916,22.327258521874196
226.0,30.867450831091634,7.517656047864547,0.40231462055924505,22.333557593475664
227.0,32.582483083596514,7.474767805010428,0.40246913739171525,22.344909562521845
228.0,34.20779020589982,7.473933493723272,0.4026918203812339,22.36128119951125
229.0,35.72983006196733,7.5159971329518775,0.40298208072875086,22.382641830132773
230.0,37.13553618623527,7.6015468895724005,0.4033393129722601,22.408963251307792
231.0,38.41238091481182,7.730879850492389,0.40376289494789847,22.44021964065035
232.0,39.54847000218832,7.903969511108138,0.40425218781993505,22.476387478458697
233.0,40.5327608731258,8.12043996424924,0.4048065358175166,22.5174454716915
234.0,41.35531284805077,8.379546733441646,0.4054252663461922,22.563374466568604
235.0,42.00766260052251,8.680160629911763,0.4061076896902572,22.614157385587774
236.0,42.48322384296572,9.020760561245185,0.40685309891059207,22.66977915096776
237.0,42.777661422416195,9.399437136405675,0.4076607698558713,22.73022659880095
238.0,42.8892416235059,9.813897558833888,0.40852996094154337,22.79548842280114
239.0,42.81910201093151,10.261481449410056,0.4094599128204847,22.865555109911025
240.0,42.57133887410693,10.73918537235031,0.41044984830574793,22.94041888030081
241.0,42.15289058531694,11.24370285790967,0.4114989726917801,23.020073601838472
242.0,41.57339985550204,11.771464226265525,0.41260647300758935,23.104514748338726
243.0,40.844831745726886,12.318689810939983,0.41377151804998263,23.19373933111587
244.0,39.98101757194488,12.881446774528113,0.4149932582328014,23.287745843137095
245.0,38.99714093618049,13.455709087039635,0.4162708254323615,23.386534203260744
246.0,37.909211183185704,14.037416820366909,0.4176033328349741,23.490105702550956
247.0,36.73356504579886,14.622531000544058,0.4189898747865469,23.598462952780494
248.0,35.48642828419852,15.207080502089823,0.42042952664387195,23.711609837262117
249.0,34.18355793945811,15.787198289203733,0.4219213446267676,23.829551464180206
250.0,32.839974430684556,16.359145577930985,0.4234643656697611,23.95229412262891
251.0,31.46978251572343,16.919324188053825,0.42505760727146036,24.07984524160137
252.0,30.08607221148319,17.464279067390482,0.42670006733917537,24.21221335221701
253.0,28.7008853293862,17.990694664399207,0.42839072402569406,24.34940805352094
254.0,27.325230526760723,18.49538996602946,0.4301285355544017,24.491439982242028
255.0,25.96912971853266,18.97531716788182,0.43191244002814017,24.638320786954658
256.0,24.641680254305992,19.42756858309699,0.4337413552163302,24.79006310715437
257.0,23.351120253097488,19.849395166310195,0.4356141783139245,24.94668055783055
258.0,22.10488846878507,20.238237990123153,0.4375297856643796,25.10818772020119
