Time,J,A,S,tau
0.0,100.0,10.0,0.8548177025747431,2.272727272727273
1.0,91.2600358663096,12.558490035855604,0.838565729781966,2.272727272727273
2.0,82.2862436591378,14.824701471488707,0.8229314675128198,2.272727272727273
3.0,73.94322846612879,16.39454949131969,0.819359159043413,2.272727272727273
4.0,67.05748941134891,16.853358412949525,0.8200769217858163,2.272727272727273
5.0,61.3713836114623,16.656935521920115,0.8208035453990221,2.272727272727273
6.0,56.54565283949989,16.204161536430647,0.8215387067486897,2.272727272727273
7.0,52.31242902483651,15.744207508394751,0.8222820811487542,2.272727272727273
8.0,48.505921934833445,15.384841285237055,0.8230333425958096,2.272727272727273
9.0,45.01865794882182,15.158307500338553,0.8237921640020738,2.272727272727273
10.0,41.78407442976193,15.055277978719554,0.8245582174254081,2.272727272727273
11.0,38.76659921555235,15.045622779941839,0.8253311742991204,2.272727272727273
12.0,35.95247351229484,15.092837339018017,0.82611070565774,2.272727272727273
13.0,33.33932335809734,15.164366094741245,0.826896482360155,2.272727272727273
14.0,30.926887052120147,15.237364615090591,0.8276881753105113,2.272727272727273
15.0,28.711428794838024,15.299820124357352,0.8284854556733936,2.272727272727273
16.0,26.684016531677024,15.348507748607718,0.8292879950937465,2.272727272727273
17.0,24.831551485452493,15.385492491348755,0.8300954659016889,2.272727272727273
18.0,23.13875010361716,15.415005854553732,0.8309075413206083,2.272727272727273
19.0,21.59004816445956,15.441284606723903,0.8317238956695585,2.272727272727273
20.0,20.170880877156584,15.467503019164099,0.8325442045614208,2.272727272727273
21.0,18.868310415297646,15.495512644047125,0.8333681450966296,2.272727272727273
22.0,17.67115300584289,15.526045621420302,0.8341953960522613,2.272727272727273
23.0,16.56980838934107,15.559094236933044,0.8350256380663701,2.272727272727273
24.0,15.55596831972715,15.594284026454336,0.8358585538182876,2.272727272727273
25.0,14.622315342637904,15.6311509567652,0.836693828202446,2.272727272727273
26.0,13.762278736513903,15.669302054134132,0.8375311484973048,2.272727272727273
27.0,12.969865623079972,15.70847825893366,0.8383702045290523,2.272727272727273
28.0,12.239558727828944,15.748552912358466,0.8392106888298273,2.272727272727273
29.0,11.56626126384581,15.789498520806276,0.840052296790353,2.272727272727273
30.0,10.945268508118344,15.83134593046632,0.8408947268068838,2.272727272727273
31.0,10.372250266721103,15.874149765911424,0.8417376804223773,2.272727272727273
32.0,9.843234611084991,15.917965427951346,0.8425808624618146,2.272727272727273
33.0,9.35458864103721,15.962837404109974,0.8434239811615992,2.272727272727273
34.0,8.902995627546877,16.008795984215364,0.8442667482929591,2.272727272727273
35.0,8.485429476385008,16.055858882245563,0.8451088792792817,2.272727272727273
36.0,8.099129453373012,16.104034892826917,0.8459500933082102,2.272727272727273
37.0,7.741574048148826,16.15332759043901,0.8467901134377536,2.272727272727273
38.0,7.41046171786452,16.20373834153651,0.8476286666940079,2.272727272727273
39.0,7.103685548169899,16.255267915329494,0.8484654841635303,2.272727272727273
40.0,6.81931666568746,16.307917335342086,0.8493003010810921,2.272727272727273
41.0,6.555587877684465,16.36168799878167,0.8501328569092074,2.272727272727273
42.0,6.310878386094152,16.416581408044742,0.8509628954171801,2.272727272727273
43.0,6.083704504467098,16.472598997721864,0.8517901647439713,2.272727272727273
44.0,5.872704074219536,16.5297416181729,0.8526144174644854,2.272727272727273
45.0,5.676627529323347,16.588009349370065,0.8534354106467246,2.272727272727273
46.0,5.494326385581218,16.647401234241126,0.8542529058920367,2.272727272727273
47.0,5.324749834840427,16.707915471721982,0.8550666694125171,2.272727272727273
48.0,5.1669305658678635,16.769549070569653,0.8558764720388523,2.272727272727273
49.0,5.019979813728709,16.832297977530033,0.8566820892606997,2.272727272727273
50.0,4.883080423434097,16.896157037103453,0.8574833012501122,2.272727272727273
51.0,4.75547991831564,16.961119926547955,0.8582798928999658,2.272727272727273
52.0,4.636488807822361,17.027179468385512,0.8590716537999591,2.272727272727273
53.0,4.525473274854857,17.09432741249885,0.8598583783350106,2.272727272727273
54.0,4.421846544607621,17.162554157507437,0.8606398656217545,2.272727272727273
55.0,4.325068507666245,17.231848970242925,0.8614159195504999,2.272727272727273
56.0,4.234641120119637,17.302200009125364,0.862186348654794,2.272727272727273
57.0,4.150109856526094,17.373594597328132,0.8629509662986713,2.272727272727273
58.0,4.0710507042923005,17.446018399137014,0.8637095906000776,2.272727272727273
59.0,3.997070321924081,17.519455698655232,0.8644620443481219,2.272727272727273
60.0,3.9278112045875546,17.59389012602709,0.8652081548955949,2.272727272727273
61.0,3.862942740939762,17.66930386965063,0.8659477545059715,2.272727272727273
62.0,3.802151759316863,17.74567717426338,0.8666806799485478,2.272727272727273
63.0,3.7451586033552258,17.822990047316758,0.8674067724322423,2.272727272727273
64.0,3.691700870009497,17.901220585101107,0.8681258781085065,2.272727272727273
65.0,3.6415271545401526,17.98034491977552,0.8688378472448212,2.272727272727273
66.0,3.594425070094838,18.060339741320114,0.8695425341747273,2.2727272864336254
67.0,3.550137044291878,18.141220762412424,0.8702416785937425,2.2726922215042706
68.0,3.5099591577584466,18.221550168847333,0.8708725389819608,2.2737954225630888
69.0,3.476463284843321,18.299155950089407,0.8713408123821661,2.2778286964192005
70.0,3.4495527181575345,18.374649994255165,0.8716755855181757,2.284283670354241
71.0,3.4262897153664826,18.450982676087754,0.8719916761467297,2.2910083291464236
72.0,3.405294939239722,18.529089934139844,0.8723036992756129,2.2977237622963753
73.0,3.385710077209765,18.609283781185038,0.872611587859227,2.304427712455262
74.0,3.36720117397735,18.691370857637875,0.872915277656461,2.311117879010919
75.0,3.349660331600289,18.775008327990243,0.8732147069980324,2.3177919216899645
76.0,3.333123497314669,18.85984381261028,0.8735098175454004,2.32444744924243
77.0,3.3176311967936636,18.945559159023464,0.8738005528381578,2.3310820413090743
78.0,3.3032161650230507,19.031941424047385,0.8740868604298281,2.3376932163049826
79.0,3.2899004880616265,19.118819980335335,0.8743686895492145,2.344278467180012
80.0,3.2776492870412683,19.206088375630895,0.8746459926846751,2.3508352370651306
81.0,3.266415882178252,19.29367212375577,0.8749187247936342,2.3573609319323294
82.0,3.2561468161492724,19.38152259228668,0.8751868444938875,2.363852903168561
83.0,3.2467833030456474,19.469597535673515,0.875450312109255,2.3703084768700307
84.0,3.2382518092034696,19.557857925595524,0.8757090911591302,2.376724932142194
85.0,3.23048423718307,19.646263600411743,0.875963147699712,2.3830995114720817
86.0,3.2234209115902592,19.734771352153253,0.8762124509474153,2.389429412336597
87.0,3.2170026773306546,19.82333515773785,0.876456972173261,2.39571180364019
88.0,3.2111732059843674,19.91190536532827,0.8766966854838467,2.401943815498199
89.0,3.205881317757659,20.00042964334483,0.8769315677314995,2.4081225416782113
90.0,3.2010799270918078,20.08885350600931,0.8771615982227431,2.41424504395846
91.0,3.19672404602254,20.177120889524026,0.8773867586011784,2.4203083555435314
92.0,3.1927728740667827,20.265174527050632,0.8776070329273242,2.4263094806702408
93.0,3.1891865135427504,20.35295559112348,0.8778224081217895,2.432245391463834
94.0,3.1859246055103854,20.4404042008203,0.8780328728975857,2.438113040688741
95.0,3.182953765905124,20.527460190798095,0.8782384184129501,2.44390935765375
96.0,3.1802442794782246,20.614062982959823,0.8784390378630457,2.449631253138905
97.0,3.177761453485056,20.70015024775267,0.8786347271204129,2.455275616951248
98.0,3.1754686146694446,20.78565877471673,0.8788254834636384,2.460839329067122
99.0,3.1733420437591806,20.870525984390518,0.8790113064077834,2.4663192578085016
100.0,3.1713609145429444,20.954689107455877,0.879192197191368,2.4717122641004816
101.0,3.169495043808349,21.038083452551355,0.8793681593413123,2.4770152044680156
102.0,3.167708476431543,21.12064314069759,0.8795391975374672,2.482224934732038
103.0,3.1659862107838097,21.202304136211062,0.8797053182947601,2.487338315006995
104.0,3.164314610399306,21.283002314262443,0.8798665295526695,2.4923522111201297
105.0,3.162669847075622,21.362672029039818,0.880022841017109,2.4972635045657587
106.0,3.161013751340465,21.44124556648235,0.8801742633433692,2.5020690875302343
107.0,3.1593385556084366,21.51865853114223,0.8803208085102653,2.506765873623689
108.0,3.1576365669589226,21.59484655276759,0.8804624896108004,2.511350798609537
109.0,3.1558928192162603,21.66974468556821,0.8805993209172746,2.5158208346871334
110.0,3.1540654246133912,21.743284616302752,0.8807313174220328,2.520172981709885
111.0,3.152150819146879,21.815402649243005,0.8808584949100156,2.5244042754403693
112.0,3.150146927574067,21.88603554855099,0.8809808699269877,2.528511795047228
113.0,3.1480496556627093,21.955120732415782,0.8810984596282718,2.5324926743130707
114.0,3.145814259994282,22.022590957146328,0.88121128155552,2.5363441001339817
115.0,3.1434363126294618,22.0883841142899,0.8813193535870409,2.54006330376671
116.0,3.140920239124929,22.152439745508744,0.8814226939411088,2.5436475864969386
117.0,3.1382735648677156,22.21469917152182,0.8815213209654874,2.547094317291242
118.0,3.1354525787167704,22.275098345977334,0.8816152529151107,2.550400952792801
119.0,3.132464454454278,22.333579617172656,0.8817045081339492,2.5535649850695297
120.0,3.1293072653231997,22.39008590826055,0.8817891046332408,2.5565840412482728
121.0,3.1259487428440895,22.44455716629831,0.8818690602282444,2.5594557909232987
122.0,3.1224219497854273,22.4969429642105,0.8819443924089638,2.562178013623144
123.0,3.118684577488543,22.547185126224612,0.8820151179493074,2.5647485988121037
124.0,3.1147590343997558,22.595234300920367,0.8820812534692131,2.567165488799796
125.0,3.110636582779949,22.641039789149932,0.8821428144276683,2.5694267966435045
126.0,3.106293901840534,22.68454976634952,0.8821998159474396,2.571530680191004
127.0,3.101767912047928,22.725722270556005,0.8822522721638926,2.573475448578205
128.0,3.0970144172293304,22.764506995146032,0.8823001961357687,2.57525952567502
129.0,3.0920696542749933,22.80086499076197,0.8823436004641019,2.5768814134360736
130.0,3.086917365120777,22.834753871935558,0.8823824959776696,2.5783398078311053
131.0,3.0815460550255867,22.86613265028113,0.8824168931057322,2.579633451727797
132.0,3.0759921890309716,22.894969580593887,0.8824468006751723,2.580761276882015
133.0,3.070212573230866,22.921224724128066,0.8824722263301372,2.5817223237707174
134.0,3.064254563298711,22.944871490508117,0.8824931769111978,2.5825157395675356
135.0,3.058094262985261,22.965877815706353,0.8825096571753757,2.5831408727291314
136.0,3.0517344709801075,22.9842159628006,0.8825216714484014,2.583597122381028
137.0,3.045206500456183,22.999865788177214,0.882529222009728,2.5838841038659655
138.0,3.0384714826728847,23.01279996749136,0.8825323100540174,2.5840015272130725
139.0,3.031584238642859,23.02300570935976,0.8825309356597268,2.5839492367453127
140.0,3.0245138368799074,23.03046293252989,0.8825250968288829,2.5837272687537056
141.0,3.017279284127885,23.03515909544255,0.8825147911098296,2.5833357165162933
142.0,3.009902074675722,23.0370865054822,0.8825000138343729,2.582774901044695
143.0,3.0023511031061134,23.036232266933144,0.882480759473087,2.5820452202001984
144.0,2.99468438170787,23.03259818730563,0.8824570211973132,2.5811472273641995
145.0,2.9868657848893867,23.02617744950783,0.8824287903857471,2.580081644356073
146.0,2.9789297461391344,23.016973777057828,0.8823960579516901,2.5788492585869025
147.0,2.9708856202334,23.004992427875916,0.8823588127597464,2.577451077413225
148.0,2.9627126241939226,22.99023608770972,0.8823170430746331,2.575888168052373
149.0,2.954467428258355,22.97272124622379,0.8822707359001755,2.57416176307149
150.0,2.94611182478425,22.952455182467336,0.8822198769174582,2.572273230636257
151.0,2.937691522922422,22.929457853020516,0.8821644513821177,2.5702240128613663
152.0,2.9292046734953825,22.90374768054946,0.882104442989436,2.5680157459484585
153.0,2.92064199184251,22.875343263040815,0.8820398350791332,2.5656501124882136
154.0,2.9120544183728585,22.844275109701695,0.8819706100451481,2.563128955813914
155.0,2.9034049198232785,22.81056478857272,0.8818967495000305,2.5604542188356767
156.0,2.8947457888713055,22.774247620546678,0.8818182347932736,2.557627922569091
157.0,2.886065609505988,22.73535478879109,0.8817350464203365,2.554652243704352
158.0,2.87735008163588,22.693918475288207,0.8816471646984548,2.5515294041863736
159.0,2.868639277998332,22.649980975478588,0.8815545696575228,2.548261743653139
160.0,2.859945201836499,22.60358361666965,0.8814572411098717,2.544851686448025
161.0,2.8512765039374366,22.554770377300056,0.8813551587886048,2.541301740157324
162.0,2.842642864585221,22.503587301436973,0.8812483024616896,2.5376144910870138
163.0,2.8340546074590534,22.45008280348292,0.8811366520423525,2.5337925993415187
164.0,2.825521831320649,22.39430751026604,0.8810201876999383,2.529838793978476
165.0,2.817054172322707,22.33631419965346,0.8808988899733275,2.5257558680720917
166.0,2.8086613257982016,22.276157788746612,0.8807727398855401,2.521546673683446
167.0,2.8003527436768856,22.213895211082942,0.8806417190579342,2.5172141169129656
168.0,2.7921377603851916,22.14958534125248,0.8805058098244748,2.5127611529227507
169.0,2.7840253722587667,22.08328886203003,0.8803649953460525,2.5081907810411015
170.0,2.77602444357476,22.015068184104997,0.8802192597232915,2.503506039853185
171.0,2.768143505034533,21.94498730934717,0.8800685881095208,2.498710002419451
172.0,2.7603909075657103,21.873111738992016,0.879912966820668,2.493805771510402
173.0,2.7527746656083845,21.799508339302363,0.8797523834458366,2.488796474990669
174.0,2.745302562738221,21.724245239626768,0.8795868269528762,2.4836852612499456
175.0,2.737982074223147,21.64739170617186,0.8794162877952204,2.478475294797233
176.0,2.7308203633304986,21.56901802365636,0.8792407580127,2.473169751941777
177.0,2.7238243038378176,21.489195379782174,0.8790602313314689,2.4677718166347744
178.0,2.717000487515384,21.40799574817148,0.8788747032617645,2.4622846764449413
179.0,2.7103551430205304,21.325491758692387,0.8786841711902497,2.4567115186806325
180.0,2.703894246844959,21.241756592547553,0.8784886344712233,2.4510555266730916
181.0,2.697623388239144,21.156863845036238,0.8782880945124437,2.445319876218032
182.0,2.691547902384068,21.070887425188324,0.8780825548581623,2.439507732191456
183.0,2.6856727403227643,20.98390142043337,0.8778720212681812,2.433622245326337
184.0,2.6800025760426123,20.89597999513925,0.8776565017923796,2.427666549176248
185.0,2.674541739599771,20.80719726640825,0.877436006841866,2.4216437572426424
186.0,2.6692942705140967,20.717627198681914,0.8772105492547502,2.415556960294207
187.0,2.6642638734242325,20.627343486534468,0.876980144359143,2.409409223844926
188.0,2.6594539506652484,20.536419450787534,0.8767448100304146,2.4032035858257887
189.0,2.654867590913035,20.444927930758766,0.8765045667451679,2.396943054418027
190.0,2.6505075809436955,20.35294118292755,0.8762594376300737,2.3906306060683256
191.0,2.6463764105308014,20.26053078142316,0.876009448506552,2.384269183671202
192.0,2.6424762759744365,20.167767521877376,0.8757546279312839,2.3778616949148326
193.0,2.6388090905639596,20.07472132964796,0.8754950072315176,2.371411010801018
194.0,2.635376488167304,19.981461170763605,0.8752306205374016,2.364919964304677
195.0,2.63217983253667,19.88805496780884,0.874961504807999,2.3583913492147524
196.0,2.6292202251995267,19.794569519143415,0.8746876998556122,2.3518279190875004
197.0,2.626498511098277,19.701070422836565,0.8744092483627631,2.34523238638717
198.0,2.6240152901678275,19.607622004498545,0.8741261958986614,2.33860742171174
199.0,2.6217709223963572,19.514287250296434,0.8738385909276076,2.331955653207653
200.0,2.6197655355348144,19.4211277426145,0.8735464848176524,2.3252796660471073
201.0,2.6179990409201155,19.328203604171996,0.8732499318411603,2.3185820020862327
202.0,2.6164711194024823,19.235573439181795,0.8729489891754538,2.3118651595760475
203.0,2.6151812712854983,19.143294292045887,0.872643716896687,2.3051315930272263
204.0,2.614128747983557,19.051421589657945,0.872334177971801,2.2983837131435507
205.0,2.613312717876159,18.960009126255912,0.872020438248595,2.291623886832031
206.0,2.6127321027400745,18.8691090001196,0.8717025664369007,2.284854437378977
207.0,2.6125338275277383,18.778627393747637,0.8713735477702663,2.2782129752676368
208.0,2.6153487939068283,18.686227906240607,0.8709159472375133,2.2739323138097007
209.0,2.6224681340442513,18.591292967927334,0.8702959589128246,2.272618679251219
210.0,2.632490172344757,18.495753423651223,0.8696000882318575,2.272603195505681
211.0,2.6435115429137555,18.401521065080217,0.8688959682204485,2.2726031955056962
212.0,2.6547755776769533,18.30915254438891,0.8681845566128592,2.2726031955056962
213.0,2.665905226914344,18.218761980488853,0.8674659981233068,2.2726031955056962
214.0,2.676825435695627,18.130203763715418,0.8667404420385667,2.2726031955056962
215.0,2.6875753785701053,18.04325925860665,0.8660080420279661,2.2726031955056962
216.0,2.6982467327233044,17.95771718503497,0.8652689563210724,2.2726031955056962
217.0,2.708953362666446,17.873417699221786,0.864523347873668,2.2726031955056962
218.0,2.719774677249427,17.79025307000674,0.8637713843151105,2.2726031955056962
219.0,2.7307822623502003,17.70816333013931,0.8630132374858946,2.2726031955056962
220.0,2.7420110347479483,17.627127893181992,0.862249084789365,2.2726031955056962
221.0,2.7534887596297275,17.54714748171638,0.8614791070466363,2.2726031955056962
222.0,2.7652161323178923,17.468238679075412,0.8607034914090882,2.2726031955056962
223.0,2.7772272252594936,17.390429418442917,0.8599224286193421,2.2726031955056962
224.0,2.7894977927254554,17.31374247667993,0.8591361143119428,2.2726031955056962
225.0,2.802019081557134,17.238201914072285,0.8583447490724724,2.2726031955056962
226.0,2.814785620051799,17.163829477782986,0.8575485381899728,2.2726031955056962
227.0,2.82779128596013,17.090644392250415,0.8567476916909267,2.2726031955056962
228.0,2.8410300849619947,17.018663096347673,0.8559424243322856,2.2726031955056962
229.0,2.8544965349392095,16.94789951106948,0.8551329555840274,2.2726031955056962
230.0,2.8681854203259265,16.87836530108711,0.854319509608635,2.2726031955056962
231.0,2.882091822374215,16.810070208612835,0.8535023152298233,2.2726031955056962
232.0,2.896210945017244,16.743022302720256,0.8526816059022322,2.2726031955056962
233.0,2.910537979702409,16.677228170746947,0.8518576196690681,2.2726031955056962
234.0,2.925067961751935,16.612693044719652,0.8510305991194631,2.2726031955056962
235.0,2.939795649668271,16.549420876766828,0.8502007913417141,2.2726031955056962
236.0,2.954715864815881,16.48741445196465,0.8493684478663039,2.2726031955056962
237.0,2.9698232390041666,16.42667539022334,0.8485338245995585,2.2726031955056962
238.0,2.9851122205666063,16.36720417765913,0.8476971817552581,2.2726031955056962
239.0,3.000577066703918,16.309000191652718,0.8468587837803919,2.2726031955056962
240.0,3.0162118267726945,16.25206172624237,0.8460188992748413,2.2726031955056962
241.0,3.0320101082275244,16.196385987785387,0.8451778009067502,2.2726031955056962
242.0,3.0479655428138495,16.141969195728304,0.8443357653238412,2.2726031955056962
243.0,3.0640716490481403,16.08880659941673,0.8434930730495434,2.2726031955056962
244.0,3.080321767435699,16.036892506335747,0.8426500083773555,2.2726031955056962
245.0,3.0967090599102662,15.986220320151771,0.8418068592604986,2.2726031955056962
246.0,3.113226488185258,15.936782575919295,0.8409639171947189,2.2726031955056962
247.0,3.1298667654767165,15.888570971413728,0.8401214770960145,2.2726031955056962
248.0,3.146622226775565,15.841576384922838,0.8392798371738742,2.2726031955056962
249.0,3.1634852891137735,15.79578897951069,0.8384392987966319,2.2726031955056962
