Time,J,A,S,tau
0.0,100.0,10.0,0.6382991009409921,18.147013894311733
1.0,97.96386191583184,10.723353594060315,0.6354958924207613,18.676250172237765
2.0,95.99877427037102,11.406599488379877,0.6326009871722081,19.2220336395842
3.0,94.10099651139997,12.050873231596563,0.6296193726754874,19.783535422886022
4.0,92.26596874701373,12.657530843027159,0.6265530618474254,20.360503134948996
5.0,90.48985480316861,13.227902611117061,0.6234042761207048,20.952674383208038
6.0,88.76941917814369,13.763295978155238,0.6201754499728136,21.55977609610219
7.0,87.10192999453818,14.264997246209116,0.6168692400778237,22.18152352721111
8.0,85.48504518252504,14.734274908246032,0.6134885190821318,22.817620133670385
9.0,83.9167272279515,15.172381418096084,0.610036361428848,23.467757891835134
10.0,82.39519101741278,15.580553464228116,0.6065160429460189,24.131616840570008
11.0,80.91884823369455,15.960012201046153,0.6029310344136287,24.808864899455326
12.0,79.4862456824434,16.311965042239578,0.5992849654501341,25.49915964889583
13.0,78.09604526155553,16.637603547726894,0.5955816225433626,26.20214788324701
14.0,76.74698871170072,16.938102789386004,0.5918249257650873,26.917466527210863
15.0,75.43787100041291,17.214621850005464,0.5880188947609858,27.644744509031455
16.0,74.1675293954126,17.468300447081756,0.5841676359044272,28.383602948499092
17.0,72.93482662641985,17.700257245224073,0.5802753101232339,29.13365677307839
18.0,71.73864150366768,17.91159130601249,0.5763461063371248,29.894516533316608
19.0,70.57786531572116,18.103374734946936,0.5723842159104193,30.665789063350903
20.0,69.45139496688712,18.276656117070704,0.5683938059744459,31.447079659169887
21.0,68.35813424024312,18.432455121108227,0.5643789944153109,32.237993153591006
22.0,67.22796671437379,17.135863424578982,0.5603438274964204,33.03813551396235
23.0,66.12026344514433,15.644258417419042,0.5562922552684357,33.84711526910706
24.0,65.0501501339003,14.294751554617006,0.5522281129091029,34.66454485168514
25.0,64.01584680816597,13.072956897754846,0.548155102152728,35.49004189550724
26.0,63.0156446987504,11.966015607531219,0.5440767767827033,36.32323036657615
27.0,62.04790582070202,10.962441655767433,0.5399965283663358,37.16374167921047
28.0,61.11106124813621,10.051954940424917,0.5359175770306505,38.0112155713482
29.0,60.203610373604896,9.225364804622334,0.5318429619090891,38.865300989730436
30.0,59.32411886548748,8.474432481075768,0.5277755368190096,39.725656697590004
31.0,58.47121764832497,7.791785159967701,0.523717965027677,40.59195192482953
32.0,57.643600543409555,7.170809187528565,0.5196727194471759,41.4638667060211
33.0,56.840022936439766,6.605570557581395,0.5156420812500287,42.34109229668031
34.0,56.05929939982828,6.090746151336613,0.5116281431763879,43.223331305542864
35.0,55.30030177604862,5.621546861892162,0.5076328123777764,44.11029783256607
36.0,54.56195717112582,5.193675163361901,0.5036578148784361,45.00171750185662
37.0,53.84324543009757,4.803259031731633,0.49970470235580317,45.897327319570735
38.0,53.14319736350096,4.446815005487811,0.4957748574241473,46.796875618645174
39.0,52.4608921946906,4.12120751058311,0.49186950212881253,47.70012176972141
40.0,51.795455424007585,3.8236056975017676,0.48798970544612363,48.606835932134246
41.0,51.146056817135076,3.551459354463419,0.4841363910410593,49.51679877670534
42.0,50.51190797126226,3.3024664162509136,0.48031034661304417,50.42980106554558
43.0,49.89226027124359,3.074544657943731,0.47651223218411065,51.34564328357947
44.0,49.286402997241865,2.865814453396548,0.47274258826446647,52.26413526573033
45.0,48.69366108300475,2.6745763549558776,0.46900184513620735,53.18509570768468
46.0,48.113393178605946,2.499289670959436,0.4652903311604141,54.10835172436335
47.0,47.54498996944551,2.338561848300791,0.46160828053352715,55.0337384399593
48.0,46.98787220717836,2.191131090476411,0.4579558417308272,55.961098488346934
49.0,46.44148896834073,2.0558534187331627,0.45433308523399485,56.89028154875423
50.0,45.9053160024009,1.931690837052481,0.4507400109044525,57.8211438867579
51.0,45.37885421023453,1.817701103965889,0.44717655491324143,58.753547911798535
52.0,44.861628107550324,1.7130295331428111,0.44364259661404964,59.68736171609925
53.0,44.353184375805675,1.6169001691089728,0.4401379649924004,60.62245862529626
54.0,43.85309047270857,1.5286081144623138,0.43666244479705413,61.55871675396803
55.0,43.360933361215196,1.4475124881093866,0.43321578222842233,62.4960185807656
56.0,42.87631827768244,1.373030528293598,0.429797690381104,63.43425052469029
57.0,42.398867579317454,1.3046322778610924,0.4264078543523987,64.3733025326009
58.0,41.928219644586505,1.2418358196079764,0.42304593608084673,65.31306767211089
59.0,41.46402781260366,1.1842034708985292,0.4197115789328276,66.25344172866107
60.0,41.00595939698838,1.1313366944913998,0.41640441194411415,67.1943228149665
61.0,40.553694754297304,1.08287301121679,0.4131240538594415,68.13561098536847
62.0,40.106926385527785,1.0384825829998112,0.4098701169270285,69.07720785449948
63.0,39.66535813800025,0.9978657867110848,0.40664221049693633,70.01901622451135
64.0,39.22870436116792,0.9607504107061968,0.40343994441726755,70.96093970820498
65.0,38.796689174891185,0.9268890136054776,0.4002629322334208,71.90288236139638
66.0,38.369045739205184,0.8960568394797972,0.39711079422762874,72.84474831443674
67.0,37.94551560631029,0.8680500957437148,0.3939831603858207,73.78644140038888
68.0,37.52584802512823,0.8426844036546219,0.3908796731055893,74.72786478977225
69.0,37.109799348044334,0.8197927214393452,0.38779998986674596,75.66892061806033
70.0,36.69713242177236,0.7992235803311775,0.3847437857131124,76.6095096158343
71.0,36.28761607963222,0.7808419769737379,0.38171075594878445,77.5495307181908
72.0,35.881024542796744,0.7645252527788441,0.3787006182696305,78.48888069036674
73.0,35.47713695739634,0.7501639272777411,0.375713115420023,79.42745370758743
74.0,35.075736807641015,0.7376597014811026,0.37274801680484315,80.36514102315567
75.0,34.67661148487351,0.7269247529839851,0.369805120643664,81.30183057768737
76.0,34.27955196295082,0.7178838242031562,0.3668842574697645,82.23740643863535
77.0,33.884352218367034,0.7104683241298528,0.3639852914099997,83.17174842118851
78.0,33.4908087106283,0.7046178247199204,0.36110811946840304,84.1047320612401
79.0,33.09872035122606,0.7002851015118023,0.35825267975532865,85.03622738201878
80.0,32.707887708917966,0.6974222687633457,0.3554189470600517,85.96609916768722
81.0,32.3181129221156,0.6959980834454091,0.3526069368716242,86.89420645821608
82.0,31.92919924887005,0.6959770018333364,0.3498167110542685,87.82040118584929
83.0,31.540950807995202,0.6973459246471941,0.3470483725999473,88.74452920023055
84.0,31.15317213909005,0.7000755500140328,0.3443020702649184,89.66642875134592
85.0,30.765668127072434,0.7041694422744597,0.3415780090786204,90.58592927783918
86.0,30.378243619043722,0.7096101239049498,0.33887642585087413,91.50285448129235
87.0,29.990703149233752,0.7164042678078405,0.33619762868310826,92.41701598112462
88.0,29.602851032775167,0.7245485200643581,0.3335419543063633,93.32822005889811
89.0,29.214490724078264,0.7340556124655182,0.3309098149022608,94.23625924709263
90.0,28.825425324982007,0.7449352656448931,0.32830165143419876,95.14092053255418
91.0,28.435456821453784,0.7572030195564132,0.3257179799788694,96.04197611886796
92.0,28.044386680567516,0.770882909256524,0.3231593506979943,96.93919144103064
93.0,27.65201541791083,0.7859929735877191,0.32062637875566474,97.83231801400633
94.0,27.258142982354254,0.8025586070668683,0.3181197195794158,98.72109870282621
95.0,26.862568618818553,0.8206096428687234,0.3156400902774453,99.60526230409032
96.0,26.465091323851368,0.8401727073970535,0.3131882440909595,100.48452888680471
97.0,26.06550990032974,0.8612847598985551,0.31076499128851043,101.3586044211356
98.0,25.663623450519466,0.8839731742906013,0.30837117533391883,102.22718568410757
99.0,25.259231671693282,0.9082790500092099,0.30600768692965025,103.0899564366113
100.0,24.852135473469403,0.93423020221513,0.3036754465763141,103.94659059894062
101.0,24.442137318056936,0.9618686118386216,0.30137540915472066,104.79675095346884
102.0,24.029042293716145,0.9912221369493146,0.2991085530915232,105.64009011269177
103.0,23.61265806997081,1.0223300755730134,0.29687587729468623,106.47625182908266
104.0,23.19279690348542,1.0552199113597236,0.29467839347006825,107.30487014824031
105.0,22.769274715757845,1.0899244097315581,0.29251712022081144,108.12557256719678
106.0,22.3419144078836,1.1264702305145593,0.29039307346038595,108.9379784437683
107.0,21.910543848603016,1.1648792176799654,0.28830726221638747,109.74170255228393
108.0,21.47990468271715,1.298683251171585,0.28626067692101675,110.5363547690691
109.0,21.04754989867247,1.4619181443260416,0.28425428332233793,111.32154191336056
110.0,20.61243300288029,1.630084817994351,0.2822890128726682,112.09686910655665
111.0,20.17473431233563,1.8033134912646904,0.2803657566406057,112.86194119459678
112.0,19.73470170458577,1.9817249529308423,0.27848535488667675,113.61636424242786
113.0,19.292661905166295,2.1654294977593684,0.2766485880682538,114.35974726706026
114.0,18.84901699571366,2.3545276859774953,0.2748561802875982,115.09170281435382
115.0,18.40428624286305,2.549105923302502,0.2731087715658052,115.81185016389254
116.0,17.959074107077626,2.7492410201629585,0.27140694345106026,116.51981383650457
117.0,17.514149142122843,2.9549924933936165,0.2697511730051688,117.21522896133561
118.0,17.12522779856943,3.1114215416824558,0.2683916788345352,117.78551087680081
119.0,16.85692009149879,3.1527799887015004,0.26765999970161036,118.08044325610103
120.0,16.592381480846363,3.1959168780347857,0.26704805349229527,118.32772753223017
121.0,16.332645316000956,3.24050832597787,0.2665659330863208,118.52295120043391
122.0,16.078873111323407,3.2861790861687186,0.26622543192444004,118.66104635587077
123.0,15.832359811920227,3.33250234161821,0.26604044915140124,118.7361440986231
124.0,15.594543748967899,3.378997767740749,0.26602771946790194,118.74131271360595
125.0,15.367002302322405,3.425134537595417,0.2662075509818526,118.66830232732045
126.0,15.151446285994165,3.4703359397464295,0.26660472887483744,118.50722912519817
127.0,14.949718947307726,3.5139824469125083,0.26725003702937095,118.2460393464702
128.0,14.763788147380437,3.555416776976178,0.26818270484845663,117.86965890452811
129.0,14.595722827362357,3.593955079842535,0.26945257812682527,117.35925317888875
130.0,14.447679901655688,3.628894664804227,0.2711249718756821,116.690551468873
131.0,14.3218769534292,3.6595258817887575,0.2732867611594936,115.83177142733405
132.0,14.22055950889665,3.6851473725957944,0.27605657399078926,114.740174861925
133.0,14.145963839432792,3.705081283137035,0.27960043695663467,113.35683055896376
134.0,14.128616695945382,3.6898888471407436,0.28415831904650385,111.5978565906441
135.0,14.172554143071272,3.6330775352553815,0.29008769501654186,109.34035431919503
136.0,14.236564058966797,3.5761517278701325,0.2979430004209008,106.39751930889403
137.0,14.321773782331027,3.519122452088033,0.3086100466621814,102.47917346896429
138.0,14.42929838329683,3.4620014798321526,0.3235121372119953,97.14087251213535
139.0,14.560228449067651,3.4048013281502527,0.34472443404117104,89.8017704656263
140.0,14.7156167265885,3.3475352592156136,0.3740294786504664,80.18321339837755
141.0,14.896463730341864,3.2902172773007075,0.40947615108533447,69.43097014516287
142.0,15.103702515810328,3.2328621243594076,0.44447175665202915,59.81042689979302
143.0,15.338182802002924,3.1754852734479355,0.4742897670813475,52.360665482939744
144.0,15.600654640477693,3.1181029201265242,0.4984009227461663,46.78342028601372
145.0,15.891751882477687,3.0607319711284307,0.5178733011423522,42.52707306456386
146.0,16.21197576558155,3.003390031141629,0.5338358804087524,39.174301196404016
147.0,16.547909396313887,2.9612200095690246,0.5471537635552481,36.45211729043474
148.0,16.904789298543232,2.933071333323143,0.5584483740544947,34.1841606044626
149.0,17.283293214097988,2.9226979069299928,0.5681650479510677,32.25385469155318
150.0,17.686102393896128,2.9336079954225123,0.5766282583382559,30.58167254018089
151.0,18.122880269132118,2.962860712303259,0.5840793996967591,29.11165728360326
152.0,18.59801681065019,3.01338318860282,0.5907016810119672,27.803342892855238
153.0,19.11668121295079,3.088912178983087,0.5966369034158743,26.626716072100194
154.0,19.685583455040153,3.1933177205484844,0.6019966229682743,25.559045936605425
155.0,20.313015505729858,3.3304508051300976,0.606869976408126,24.582775154157854
156.0,21.008654127804796,3.5039665387764627,0.6113290482620963,23.684131270873714
157.0,21.783538393342376,3.7166377500336925,0.6154327825779513,22.852154130635984
158.0,22.65444140083574,3.9636950333542575,0.6192298946542859,22.077999472242162
159.0,23.630017013224784,4.244553530590064,0.6227609221581161,21.354460875481465
160.0,24.713491139686166,4.560721446774194,0.6260598502343789,20.675604277137644
161.0,25.903968949252864,4.913423578334348,0.6291553684879275,20.036493807918024
162.0,27.19513480561687,5.3035509837751125,0.6320718012177629,19.432993597353075
163.0,28.574223966870658,5.73162084020151,0.634829904268509,18.861604505473807
164.0,30.021134705670228,6.197728616806507,0.6374474307376863,18.319349203803753
165.0,31.506865298701886,6.702849496435483,0.6399396365759408,17.803674164999457
166.0,32.989526010296174,7.253464017437569,0.6423196609220829,17.312376889112958
167.0,34.41743009389445,7.858968278225657,0.6445988585551208,16.843544455542926
168.0,35.729814435154914,8.53106107078819,0.6467870659955518,16.39550550401586
169.0,36.85780483599707,9.283113150423318,0.6488928208444331,15.966791597194174
170.0,37.72374370359752,10.132002207800346,0.6509235514496068,15.556104765433469
171.0,38.243955451967224,11.097517225165925,0.65288573211666,15.162291618841843
172.0,38.334468391809125,12.200502270301781,0.6547850134706394,14.784322080304152
173.0,37.92283169152258,13.457415964968488,0.6566263370327294,14.421271187077117
174.0,36.961360879572815,14.876048307287704,0.658414030438504,14.072304335131323
175.0,35.436177055531516,16.45525307982792,0.6601518858476313,13.736665382440812
176.0,33.37418264605021,18.18237940483982,0.6618432347181962,13.413665562456561
177.0,30.84393267707415,20.031058804691966,0.6634910047299672,13.10267519465146
178.0,27.948037009946926,21.960684857107804,0.665097773187978,12.803116100628769
179.0,24.809655159728006,23.918190276585143,0.6666658107687811,12.514455502642827
180.0,21.55930049950523,25.839957172291232,0.6681971207937798,12.236200614065014
181.0,18.326323387829014,27.652932836832083,0.669693472518175,11.96789414829747
182.0,15.233741200051977,29.277053648471515,0.6711564304523459,11.709110401014481
183.0,12.394091878751434,30.630131070860415,0.672587379486542,11.459451946263231
184.0,9.90305990644411,31.636750847307876,0.6739875471367761,11.218546727878419
185.0,7.8278495536320785,32.242763903293536,0.6753580225858269,10.986045601137985
186.0,6.193989806805236,32.43095626066158,0.6766997735144802,10.761620164254298
187.0,4.979792744769077,32.22842447023957,0.6780136606735099,10.54496089168891
188.0,4.124126361578947,31.70004181585525,0.6793004508153501,10.335775472735879
189.0,3.545499106266781,30.930141595017506,0.6805608277840911,10.133787391522164
190.0,3.163322694960313,30.00170481104798,0.6817954023369107,9.93873466033892
191.0,2.9120572760853327,28.982477105363444,0.6830047207533515,9.750368701127021
192.0,2.745613431672889,27.920732248616194,0.6841892723894331,9.568453354198951
193.0,2.6350915280452463,26.847654219468385,0.6853494962990175,9.392763998815003
194.0,2.564065694166227,25.782152480867655,0.686485787065514,9.223086765630226
195.0,2.5241541427497434,24.735373331157792,0.6875984999402875,9.059217828290764
196.0,2.511826744119321,23.713953591129172,0.6886879553997205,8.90096275888961
197.0,2.5264056633391334,22.72206041421426,0.6897544429910643,8.748135996642288
198.0,2.5688978624282717,21.762576240683288,0.690798224524627,8.600560339531587
199.0,2.6413044870109506,20.837740660953912,0.6918195379838913,8.458066377145327
200.0,2.746182646198288,19.94952465565309,0.6928185997590022,8.32049211569767
201.0,2.886278094741729,19.099866604680933,0.6937956070480327,8.187682609382517
202.0,3.064167432796499,18.29084084752487,0.6947507399820302,8.059489582663424
203.0,3.281874761968549,17.524776024257946,0.6956841636300768,7.935771072354982
204.0,3.5404489452467125,16.80433387392126,0.6965960297281284,7.816391125503022
205.0,3.839538991017865,16.13255458811478,0.6974864779251527,7.701219564434683
206.0,4.177061598471668,15.512859595630378,0.6983556367801994,7.590131717875621
207.0,4.5486859139082325,14.94896817173696,0.6992036259562401,7.483008079582105
208.0,4.947707190607017,14.444798947104362,0.7000305564788016,7.379734148418235
209.0,5.364953337462819,14.004280945543666,0.7008365317555404,7.280200231298803
210.0,5.788972258783806,13.631089749928986,0.7016216484678601,7.184301212805411
211.0,6.206501462408355,13.328315334710965,0.7023859972716547,7.091936373683356
212.0,6.603223353073616,13.09806830696353,0.7031296634532006,7.0030092160841875
213.0,6.964781943154218,12.941058806646705,0.7038527274960932,6.917427295720061
214.0,7.277946277209673,12.856194821964046,0.7045552656004938,6.835102063900587
215.0,7.532099975743701,12.839964883488854,0.705221704569965,6.756390699327773
216.0,7.725776994189956,12.881280229708839,0.7055820163791618,6.68875012828115
217.0,7.8602672011801955,12.969188250125335,0.705548261174308,6.634306141891781
218.0,7.939242686557128,13.092949388530633,0.705131541646534,6.592413939679581
219.0,7.969937993694538,13.240985270495564,0.7043436375703443,6.562463622731058
220.0,7.962349074607658,13.401575062894448,0.7031969386281217,6.543877516023359
221.0,7.9283052915367485,13.56355022613891,0.7017037236206176,6.536126009807237
222.0,7.8774886244830915,13.719718837130968,0.6999841177038904,6.535830420271171
223.0,7.813928257418972,13.868882182489866,0.6983034459139144,6.535830420271171
224.0,7.7462885647534,14.005627651994915,0.6966738058212225,6.535830420271171
225.0,7.6821742010460285,14.12616731899783,0.6950962866869203,6.535830420271171
226.0,7.627457616031501,14.228611852432316,0.6935719445867379,6.535830420271171
227.0,7.586061903643837,14.312838470698944,0.6921018012205963,6.535830420271171
228.0,7.559950204650017,14.380233251715765,0.6906868433083583,6.535830420271171
229.0,7.549675120702983,14.432942996432821,0.6893280210117623,6.535830420271171
230.0,7.555100403112685,14.473180759260755,0.6880262480679253,6.535830420271171
231.0,7.575060499891669,14.503560241322809,0.6867824005907835,6.535830420271171
232.0,7.607506383950409,14.526917276540145,0.6855973159660679,6.535830420271171
233.0,7.649819786663935,14.546051765227675,0.6844717928331718,6.535830420271171
234.0,7.699059759719962,14.563516375172359,0.6834065899823348,6.535830420271171
235.0,7.752222870955635,14.581460495370985,0.6824024258651457,6.535830420271171
236.0,7.806409792908504,14.601574298551876,0.6814599780263895,6.535830420271171
237.0,7.858907636406648,14.625112707284789,0.6805798825759891,6.535830420271171
238.0,7.907299627442523,14.652886106987179,0.6797627337001395,6.535830420271171
239.0,7.949555718677719,14.68526599281698,0.6790090832156888,6.535830420271171
240.0,7.984083700874038,14.722219389099473,0.6783194402427181,6.535830420271171
241.0,8.009748487560323,14.763366130027876,0.6776942708512969,6.535830420271171
242.0,8.025856806068177,14.808049380688642,0.6771339975420139,6.535830420271171
243.0,8.032124853225909,14.85540975365221,0.6766389975465519,6.535830420271171
244.0,8.028606265436576,14.904465041082796,0.6762096077319647,6.535830420271171
245.0,8.015666548672828,14.95415833407561,0.6758461157374247,6.535830420271171
246.0,7.9938951928541,15.003437885812621,0.6755487681159112,6.535830420271171
247.0,7.96403223080392,15.051290182565529,0.6753177668745493,6.535830420271171
248.0,7.926919621109833,15.096806589385857,0.6751532655486581,6.535830420271171
249.0,7.883447827435003,15.1391859187647,0.675055378451579,6.535830420271171
