Time,J,A,S,tau
0.0,100.0,10.0,0.9819579990702754,17.070073180791933
1.0,98.9137334456673,11.39988478983387,0.9815168855349328,16.382070379670868
2.0,97.79685271554847,12.729379812788652,0.9811397362260265,15.754841204611925
3.0,96.66641755903161,13.990563781495359,0.9808202972080703,15.188121362573622
4.0,95.53697859525342,15.18578730989516,0.9805526183312748,14.68132108304992
5.0,94.42041749421763,16.31736199709848,0.9803311806008443,14.233728232983944
6.0,93.32607799341956,17.387564879606504,0.9801508863301792,13.844511656664688
7.0,92.26116908053304,18.398642743626155,0.980007035327642,13.512729225817921
8.0,91.23113830036036,19.35281436689628,0.97989531024001,13.237333914770554
9.0,90.24002296702018,20.252271683699988,0.9798117620225506,13.01718048990097
10.0,89.2907522501295,21.099179917246932,0.9797527944494283,12.851033263921831
11.0,88.38542112416432,21.89567764871791,0.9797151362186532,12.737577248886335
12.0,87.52547401676802,22.643875684091665,0.9796958234283238,12.67542665941855
13.0,86.88214204183507,23.176614777847572,0.9797853745067738,12.805149007202726
14.0,86.62449676492554,23.340387492884947,0.9800469848576518,13.2345705900876
15.0,86.4279191533269,23.46567728361545,0.9802921617277556,13.680436224690022
16.0,86.2882072038587,23.558499680421324,0.9805217988215196,14.142844219891508
17.0,86.20182326470352,23.62411395117162,0.9807367557518358,14.621853008125376
18.0,86.16590799897016,23.667027702875604,0.9809378583329108,15.117480635601254
19.0,86.17822551437219,23.691066448106955,0.9811258984292619,15.629704832249649
20.0,86.2370948457413,23.699447067300767,0.98130163400005,16.15846297112136
21.0,86.34129860866865,23.694870467552885,0.9814657896737471,16.703653219681854
22.0,86.4900007635709,23.679598904915693,0.9816190579531918,17.265136177810597
23.0,86.6826793326366,23.65551100403907,0.9817620979066124,17.84273456785272
24.0,86.91903763365458,23.62418128220694,0.9818955360779903,18.43623572045864
25.0,87.1989389576458,23.58693520467695,0.9820199707346081,19.045396443385272
26.0,87.52235921361874,23.54485807363503,0.9821359660030702,19.669939450356953
27.0,87.88931849157451,23.49888212266894,0.9822440595292713,20.30956184164731
28.0,88.29983539306639,23.449766474125106,0.9823447585962827,20.963934273280163
29.0,88.75389497543622,23.398164760417764,0.9824385435228488,21.63270416142869
30.0,89.2513832349115,23.344608085976695,0.9825258669156824,22.315500222435567
31.0,89.79210960038223,23.289562145200094,0.9826071583353235,23.011933106617494
32.0,90.37567794026234,23.233392436029213,0.9826828160435119,23.721598998234505
33.0,91.00162918537207,23.176436061305967,0.9827532260298475,24.44408538886309
34.0,91.66921186863273,23.11894806950614,0.9828187368717204,25.17896581376714
35.0,92.377556963427,23.06115937103838,0.9828796874383343,25.925814943513153
36.0,93.12561473121765,23.00326413571712,0.982936392356155,26.68419636226486
37.0,93.91203848316354,22.94541312923404,0.9829891404289729,27.453677791870543
38.0,94.73542072269422,22.8877486824768,0.9830382138426755,28.233825264372893
39.0,95.59405700710238,22.830377714193556,0.9830838648736391,29.02420673435112
40.0,96.48610359625633,22.77339390082428,0.9831263353395867,29.82439847717965
41.0,97.40959857600274,22.716878469243653,0.9831658529693988,30.63397622383172
42.0,98.3623491029569,22.660891471762618,0.9832026225141902,31.45253089164805
43.0,99.34211310691023,22.605488585663334,0.9832368432834229,32.27965774380363
44.0,99.68003849228188,21.177445176674347,0.9832686968404338,33.1149609219029
45.0,99.6308358158122,19.119545266560284,0.9832983528075675,33.95805631950289
46.0,99.58427051352635,17.26475708431761,0.9833259692385558,34.80857108086826
47.0,99.54017439137776,15.592760505103502,0.9833516931714611,35.66614411748128
48.0,99.49839118231299,14.085292317033357,0.9833756613016111,36.530426548372944
49.0,99.45877548083534,12.725937461260427,0.9833980006801774,37.40108195828652
50.0,99.42119186898319,11.499952384159934,0.9834188293121954,38.27778662855818
51.0,99.38551408703165,10.394074332975633,0.983438256765371,39.16022959028496
52.0,99.35162429693763,9.396379768630013,0.983456384747982,40.04811260462588
53.0,99.31941245952967,8.49614994300751,0.9834733076142232,40.94115012383588
54.0,99.28877571984908,7.683736350366114,0.9834891128904817,41.839069090897006
55.0,99.25961788300629,6.950463036387719,0.9835038817432079,42.74160874596784
56.0,99.23184894335526,6.288522166117982,0.9835176894095139,43.64852038974233
57.0,99.20538462137586,5.690883394437133,0.9835306056358188,44.559567039479596
58.0,99.1801459770233,5.151222549923514,0.9835426950539071,45.47452313281985
59.0,99.1560590444791,4.663842766157405,0.9835540175476715,46.39317416220676
60.0,99.1330486146415,4.22361830241745,0.9835646286082319,47.315316267160426
61.0,99.1109961175161,3.825983476752398,0.983574579631792,48.24075590010881
62.0,99.08983182969486,3.466776534186956,0.98358391824185,49.16930935366324
63.0,99.06950711617156,3.142236671827556,0.9835926885459919,50.10080241632595
64.0,99.04997576471214,2.848971690569695,0.9836009314115927,51.0350699095848
65.0,99.03119394502905,2.583929240422537,0.9836086846939867,51.97195532168225
66.0,99.01312008169509,2.344355253019134,0.9836159834693989,52.91131037062266
67.0,98.99571474661761,2.1277706781767822,0.9836228602376621,53.85299462728037
68.0,98.97894054569015,1.9319382903299498,0.9836293451178537,54.796875112217386
69.0,98.96276201415061,1.754843375544549,0.9836354660280892,55.74282591731747
70.0,98.94714551586985,1.5946675824068457,0.9836412488492331,56.69072783962277
71.0,98.9320591422188,1.4497725598597593,0.9836467175838366,57.64046800946701
72.0,98.91747262272162,1.3186796399405403,0.9836518944929588,58.591939561161084
73.0,98.90335722830419,1.2000557464926631,0.98365680023601,59.5450412743369
74.0,98.88968569179748,1.0926978382887436,0.983661453985262,60.49967727903429
75.0,98.87643211639617,0.9955206233549792,0.983665873548159,61.45575671569968
76.0,98.86357190468807,0.9075448356562894,0.9836700754635697,62.41319347082703
77.0,98.8510816732015,0.8278864422445278,0.9836740751079941,63.371905859853314
78.0,98.8389391883504,0.7557479383963501,0.9836778867770819,64.33181638871577
79.0,98.82712328775293,0.6904089001746064,0.9836815237770641,65.2928514628421
80.0,98.81561382160515,0.6312195060160537,0.9836849984945311,66.25494116968761
81.0,98.80439158124108,0.5775924234646642,0.9836883224744275,67.21801901572474
82.0,98.79343824473587,0.528997895423273,0.9836915064804377,68.18202172582662
83.0,98.78273631250558,0.4849568470134769,0.9836945605611905,69.14688900751777
84.0,98.77226905722851,0.44503722322264566,0.9836974941022479,70.11256336756
85.0,98.76202046457452,0.40884828469629664,0.9837003158834104,71.07898989638532
86.0,98.75197518810623,0.3760373624435111,0.9837030341224527,72.04611610436788
87.0,98.74211849455784,0.34628571475707387,0.9837056565250804,73.01389172409156
88.0,98.73243622146124,0.31930522997272426,0.9837081903229778,73.98226855808917
89.0,98.72291472948704,0.29483584987938516,0.9837106423150612,74.95120030791564
90.0,98.71354085951742,0.2726422225226576,0.9837130189031905,75.92064242129204
91.0,98.70430189247664,0.25251199649869077,0.9837153261247765,76.89055194961416
92.0,98.69518550625087,0.23425299625830498,0.983717569686444,77.86088739565655
93.0,98.68617974009888,0.21769167865060782,0.9837197549906532,78.83160858907209
94.0,98.67727295389182,0.20267114110778034,0.9837218871657043,79.8026765434992
95.0,98.66845379351497,0.18904954076958705,0.9837239710896608,80.77405333690595
96.0,98.65971115466222,0.17669880313439265,0.9837260114148972,81.74570198650707
97.0,98.65103414694384,0.16550310689987327,0.9837280125916837,82.71758632525825
98.0,98.64241206062293,0.15535769359260085,0.9837299788886253,83.6896708888918
99.0,98.63383433268649,0.1461680352652853,0.9837319144130309,84.66192080102907
100.0,98.62529051276707,0.1378486526484442,0.9837338231309312,85.63430165802475
101.0,98.61677023055046,0.13032232652177733,0.9837357088847555,86.60677942044508
102.0,98.60826316248615,0.12351935212678462,0.9837375754108988,87.57932030266026
103.0,98.59975899841878,0.11737680650010422,0.9837394263568933,88.5518906625819
104.0,98.5912474083087,0.11183789314249382,0.9837412652976396,89.52445689269885
105.0,98.58271800857489,0.10685131198603103,0.9837430957510632,90.49698531075025
106.0,98.57416032741322,0.10237090329211934,0.983744921193357,91.4694420481353
107.0,98.56556376985341,0.09835506643266714,0.9837467450741649,92.44179293771217
108.0,98.55691758203118,0.09476634646923882,0.9837485708312977,93.41400340011441
109.0,98.5482108136481,0.09157109288380845,0.9837504019053427,94.38603832541894
110.0,98.5394322802606,0.08873910772494226,0.9837522417541185,95.35786195467206
111.0,98.53057052361346,0.08624329699635717,0.9837540938670603,96.32943775642254
112.0,98.52161376877574,0.08405947717569386,0.9837559617799791,97.30072829442625
113.0,98.5125498822188,0.0821660703325761,0.9837578490894296,98.27169509861662
114.0,98.50336632644373,0.0805438688127004,0.9837597594673791,99.24229852675705
115.0,98.49405010837557,0.07917591288725327,0.9837616966770051,100.21249760840337
116.0,98.48458773349759,0.07804724698820446,0.98376366458693,101.18224990652791
117.0,98.47496514665124,0.07714476323615166,0.9837656671879924,102.1515113409493
118.0,98.4651676824981,0.07645712919654249,0.9837677086075864,103.1202360409178
119.0,98.45518000013955,0.07597458589239771,0.9837697931270214,104.08837615252664
120.0,98.4449860021403,0.07568898748396213,0.9837719252023668,105.05588160119238
121.0,98.43456877740849,0.07559340627781168,0.9837741094785477,106.02269992700427
122.0,98.42391058526731,0.07568227397018677,0.9837763507938855,106.98877624002382
123.0,98.41299259726803,0.07595171731893215,0.9837786542409488,107.95405246902807
124.0,98.40179510146923,0.07639788580776334,0.9837810251145691,108.91846797077322
125.0,98.39029693998147,0.07702024540353822,0.9837834690476662,109.8819578866227
126.0,98.37847608198994,0.07781736918449891,0.9837859918670018,110.84445483625642
127.0,98.36630878795728,0.07879015216562278,0.9837885997876635,111.80588649316148
128.0,98.35377007276533,0.07993947070620243,0.9837912992960114,112.76617695458923
129.0,98.34083318664668,0.08126856066325275,0.9837940972675886,113.72524524733484
130.0,98.3274696405589,0.08278057865730154,0.9837970009411897,114.6830054498675
131.0,98.31364909643838,0.08448096866375929,0.9838000179459019,115.63936637757566
132.0,98.29933899726986,0.08637543921672762,0.9838031563527945,116.59423059326747
133.0,98.28450464979029,0.08847099203788245,0.9838064246507817,117.5474946641061
134.0,98.26910878155711,0.09077634430528364,0.983809831818892,118.49904795744558
135.0,98.25311133760754,0.09330115591698057,0.9838133873361201,119.44877214573012
136.0,98.23646948293691,0.0960563665390943,0.9838171011637292,120.39654125976456
137.0,98.21913695283088,0.09905501300137527,0.9838209838341939,121.3422199665351
138.0,98.20106401659973,0.10231106595940254,0.9838250464155516,122.28566357571333
139.0,98.18219704363429,0.10584038304939243,0.9838293005503252,123.22671694491468
140.0,98.16247817355921,0.10966068492935326,0.9838337584624868,124.16521370546685
141.0,98.14184482870338,0.11379185453633298,0.9838384329771829,125.10097509511594
142.0,98.12022924655429,0.1182559150700208,0.9838433375217867,126.03380888775149
143.0,98.0975580165052,0.12307728133513755,0.9838484861174295,126.96350836266267
144.0,98.0737515157486,0.12828303237680713,0.9838538933696941,127.88985105001413
145.0,98.04872321294263,0.13390346477246245,0.9838595744571976,128.8125971863346
146.0,98.02237891524476,0.13997191202982134,0.983865545095466,129.7314881187683
147.0,97.99461596742812,0.1465255489904072,0.9838718214945421,130.6462446303004
148.0,97.96532230965964,0.15360570911989194,0.9838784202969897,131.5565650174979
149.0,97.9343754128806,0.1612584068553818,0.983885358497145,132.46212296822387
150.0,97.90164106811827,0.16953493775686831,0.9838926533370385,133.36256520687738
151.0,97.86697200438682,0.17849257550417935,0.9839003221749011,134.25750887489835
152.0,97.83020627422623,0.18819543836329913,0.9839083823209209,135.14653854218432
153.0,97.79116555159169,0.19871532638911873,0.9839168508388164,136.02920319383523
154.0,97.74965287087124,0.21013283951103476,0.9839257442964309,136.90501222805315
155.0,97.70545028769403,0.22253879748469327,0.9839350784729557,137.77343153683884
156.0,97.65831603180344,0.23603572657552097,0.9839448680035917,138.63387882794964
157.0,97.60798120450177,0.2507396919601142,0.9839551259574226,139.4857183776863
158.0,97.55414589994712,0.2667824842129284,0.9839658633376583,140.3282550746679
159.0,97.49647457821268,0.2843144099511605,0.9839770884884823,141.16072752968137
160.0,97.43459087582517,0.3035068809453762,0.9839888064234725,141.98230072048574
161.0,97.36807085500348,0.3245567330775293,0.9840010179952,142.7920564999125
162.0,97.29643541830804,0.34769076665278925,0.984013718968369,143.58898352220953
163.0,97.21914112534789,0.3731712288318173,0.9840268989460502,144.3719654320203
164.0,97.1355690132527,0.40130266625162614,0.9840405401282244,145.1397669882827
165.0,97.07712184922846,0.4482644745927778,0.9840546158549534,145.89101734095297
166.0,97.07806452717188,0.5276112042370168,0.9840690890199058,146.62419139949665
167.0,97.09096077153878,0.6143193772570413,0.984083910174142,147.33758647047594
168.0,97.11747640189022,0.7093644167380843,0.984099015439759,148.02929516495377
169.0,97.1594155851798,0.8138937808832217,0.9841143241397012,148.69717249180002
170.0,97.21870862307848,0.9292657322346257,0.9841297361467481,149.33879602025735
171.0,97.29738718000094,1.0570987093647106,0.9841451289287905,149.95141711679022
172.0,97.39754079321479,1.199334795786031,0.9841603542793897,150.53190075343895
173.0,97.52124557056179,1.358322331583803,0.9841752347277795,151.07665048346541
174.0,97.67045227407182,1.5369243568337136,0.9841895596308219,151.5815139092042
175.0,97.8468149461869,1.738662328173048,0.9842030809603888,152.04166205862018
176.0,98.0514314050119,1.9679091206112163,0.9842155088501101,152.45143395843039
177.0,98.284454599034,2.230151910508356,0.9842265069480287,152.80413302609225
178.0,98.54451510604737,2.5323528984138073,0.9842356877355067,153.09175745799996
179.0,98.82785802776304,2.8834568133749277,0.9842426079407481,153.3046346503066
180.0,99.12706470136797,3.2951114363735496,0.9842467643670244,153.43091860469121
181.0,99.42914992442635,3.7827126113233502,0.9842475905669407,153.4558826679945
182.0,99.71272358996413,4.366950156900039,0.9842444551043441,153.3609005740277
183.0,99.94378727278759,5.076141912358968,0.9842366622856387,153.12193740771758
184.0,100.06947093633246,5.949857500977249,0.9842234571934508,152.70723632011135
185.0,100.00880331952251,7.044681502373585,0.9842040376344904,152.07364477896314
186.0,99.63918934434336,8.443673981202117,0.984177577597162,151.1604992824358
187.0,98.77680471396474,10.272417609864661,0.9841432704008911,149.87887511122457
188.0,97.14825149601644,12.727213089722188,0.9841004068438222,148.09135087554768
189.0,94.40859787532996,16.066057981511804,0.9840485190099819,145.57050302344913
190.0,94.98882737502649,15.93536796569651,0.9839876562710793,141.90393943900062
191.0,95.54609160240769,15.801865300870707,0.983918948886002,136.2413287424942
192.0,96.08096750623903,15.66552737443517,0.9838458094019015,126.48897252660333
193.0,96.59405814120181,15.52633163746968,0.9837756009457862,106.6772317159846
194.0,97.08598162349477,15.384258944100416,0.9837067667894692,73.44281047441697
195.0,97.55736382120635,15.23929379262978,0.9836052568646212,51.552963729737755
196.0,98.00883172877303,15.091424569131185,0.9834640421284564,40.445129899232434
197.0,98.44100756006223,14.940643792462227,0.9832904924694226,33.72855340843465
198.0,98.30768071298485,15.31997202346773,0.9830890635901287,29.11903826604639
199.0,97.51418851420509,16.277809420416535,0.9828619849869317,25.702355126624997
200.0,96.11745660344359,17.73002123564233,0.9826102986427802,23.04037206215971
201.0,94.11979127854792,19.659124726478943,0.9823343730455497,20.893735834711016
202.0,91.61341515579775,21.972693681612725,0.9820341622427528,19.118831870382376
203.0,88.85783410572445,24.42509083595729,0.9817093457275872,17.623274848115397
204.0,86.358272615398,26.534080225350024,0.9813594097311729,16.34437985534462
205.0,84.68564976116151,27.75564877185953,0.9809836981357638,15.23779234278351
206.0,83.34742715925857,28.600977517707882,0.9805814446437296,14.271038557124488
207.0,82.12182911742423,29.29690633879608,0.9801517991524511,13.419686581076936
208.0,80.98433878374945,29.870748741405997,0.9796938407952008,12.664906035364153
209.0,79.91575374309473,30.343599178475525,0.9792065909809732,11.99189291820654
210.0,78.94396357959432,30.689042272554076,0.9786890269794135,11.388821513491612
211.0,78.16897268727433,30.809572545024782,0.9781400837027685,10.846089748638452
212.0,77.60530441115148,30.693957853131092,0.977558667258063,10.355814897673852
213.0,77.19981593813449,30.398261269946044,0.9769436605017149,9.911444425928599
214.0,76.87403376516852,30.002811454001595,0.9762939273644926,9.507479766780953
215.0,76.57102877452809,29.565317468043162,0.9756083205839844,9.139264674092466
216.0,76.27174132268868,29.105063327881545,0.9748856881033201,8.802826965942746
217.0,75.96944615181933,28.62886304668812,0.9741248827133043,8.49475312417961
218.0,75.66014470146912,28.140763808768984,0.973324762622108,8.21208893266438
219.0,75.3408210717461,27.64382202034704,0.9724842029634299,7.952265533861662
220.0,75.00884925853777,27.140707176647474,0.9716020999978529,7.713035756575422
221.0,74.6623640192043,26.633344144165783,0.9706773782687236,7.492424789246959
222.0,74.30024196432537,26.122950351560853,0.9697090018134755,7.288690266776618
223.0,73.9218136489805,25.61034043869181,0.9686959767018599,7.100287784626629
224.0,73.52657320532855,25.096228198233128,0.967637364640873,6.925844645506968
225.0,73.11409198008731,24.581320712638913,0.9665322865373969,6.764135818980599
226.0,72.68400432303532,24.06633922206815,0.9653799317668299,6.6140646369623965
227.0,72.23600708507723,23.552027135647176,0.9641795698326682,6.474647726080368
228.0,71.76985692368972,23.039157010136815,0.9629305556938453,6.3449994478826595
229.0,71.28536702481212,22.528538851589015,0.9616323382023514,6.22432088752102
230.0,70.78240441080952,22.02102731438967,0.9602844759453041,6.11189030501598
231.0,70.26088862221194,21.517524756190088,0.9588866383482252,6.0070543919003585
232.0,69.72078815428752,21.018982972033307,0.9574386173154122,5.909220136926193
233.0,69.16211465386031,20.526402482503947,0.955940332724434,5.817847103467425
234.0,68.58491980321307,20.040836334913354,0.954391850360041,5.7324445008812805
235.0,67.98928510322322,19.563386193570476,0.9527933848003758,5.65256542112366
236.0,67.37530935478766,19.095194393343707,0.9511452964999618,5.577799511762521
237.0,66.74310290553322,18.637446116096935,0.9494481210760657,5.507773040012375
238.0,66.092768242982,18.19135260929133,0.9477025655734777,5.442144510855287
239.0,65.42439225088094,17.758141379827727,0.9459094994119795,5.380598359559769
240.0,64.73803569245874,17.33904450562977,0.9440700002055316,5.322847922637331
241.0,64.03371343074103,16.93526799817083,0.9421853130020114,5.268627987801698
242.0,63.311408138993656,16.54798740043685,0.9402568846646905,5.217694929924811
243.0,62.57104881868156,16.178298729847153,0.9382863681592506,5.169825754340202
244.0,61.81252507511219,15.827213862656965,0.936275594852874,5.124813228636567
245.0,61.035711944647765,15.49561672578974,0.9342266227355743,5.0824679532883295
246.0,60.24045855642748,15.184231707796561,0.9321416983242468,5.042614530243383
247.0,59.42663670972437,14.893624922219082,0.9300232626689955,5.005090411944421
248.0,58.59418235186503,14.624120917850782,0.9278739921267782,4.96974740711572
249.0,57.74306970480059,14.375881498054197,0.925696707455646,4.936445700752754
250.0,56.87345457170131,14.148761473073556,0.9234944951009671,4.9050594614120335
