Time,J,A,S,tau
0.0,100.0,10.0,0.6697949336030063,38.58263154351515
1.0,99.76544629976057,8.978674356718429,0.6685982093536569,39.567322404995664
2.0,99.53705225868977,8.063564422391247,0.6674191484183818,40.553104004814465
3.0,99.3143222494518,7.243770274281244,0.6662573591274034,41.53967218956948
4.0,99.09690556615142,6.509268202324402,0.6651122447740615,42.526961240738
5.0,98.88447381235834,5.851096780590169,0.663983202584656,43.51491109961177
6.0,98.67671895839533,5.261244557644284,0.662869626070264,44.50346681992997
7.0,98.4733516029176,4.73255040344319,0.6617709070286636,45.49257808005934
8.0,98.27409939998196,4.258612725046819,0.6606864372511968,46.48219874379636
9.0,98.07870558452684,3.8337049986845866,0.6596156099589542,47.47228645283987
10.0,97.88692764471996,3.4527056646557384,0.658557820993695,48.46280226235671
11.0,97.69853612574434,3.111035279231977,0.657512469803714,49.45371031466386
12.0,97.51331352588795,2.804596640591965,0.6564789602450565,50.44497754087862
13.0,97.33105326823754,2.529723423108114,0.6554567012073921,51.43657338638285
14.0,97.15155877242188,2.2831347043796795,0.6544451070986951,52.42846956504364
15.0,96.97464262429763,2.0618973264443894,0.6534435982217711,53.420639840678575
16.0,96.80012576138247,1.8633832208601266,0.6524516010059325,54.41305981677162
17.0,96.62783675816773,1.6852419827037524,0.6514685481626616,55.40570675310278
18.0,96.45761116995611,1.5253690439965286,0.6504938787686264,56.398559398741426
19.0,96.28929088478043,1.3818797677818668,0.6495270382325106,57.3915978308398
20.0,96.12272357456243,1.2530882938771393,0.6485674782542317,58.38480331769059
21.0,95.95776214105994,1.137483766141144,0.6476146566849221,59.378158183658826
22.0,95.79426421478935,1.0337142024839623,0.6466680373555165,60.37164568801504
23.0,95.63209169726395,0.9405688735522695,0.6457270898864461,61.36524991460121
24.0,95.47111029981997,0.8569630194660688,0.6447912894196356,62.358955663291056
25.0,95.31118914078036,0.7819261241311817,0.64386011637134,63.35274835451877
26.0,95.15220034178252,0.7145883078620997,0.6429330561317564,64.34661393520696
27.0,94.99401864758462,0.654170933228501,0.6420095987505795,65.34053879067396
28.0,94.83652107309693,0.5999767883447081,0.6410892386327396,66.33450966212641
29.0,94.67958654529686,0.5513813365026937,0.6401714741871288,67.32851356455394
30.0,94.52309557645427,0.5078260832213972,0.6392558075116532,68.32253770992376
31.0,94.3669299286344,0.46881036430975676,0.6383417440344192,69.31656942990351
32.0,94.21097230118903,0.4338868148525726,0.6374287921975419,70.3105961012193
33.0,94.05510601142699,0.4026546265884314,0.6365164631075025,71.30460507076202
34.0,93.89921468660853,0.3747559367180955,0.635604270226796,72.29858358010632
35.0,93.74318195386276,0.34987032579607197,0.6346917290473176,73.2925186904898
36.0,93.58689112807149,0.32771223874613153,0.6337783568047969,74.28639720323193
37.0,93.4302249044052,0.3080265548821001,0.6328636721842102,75.28020558250343
38.0,93.27306503581435,0.2905858020785207,0.631947195070767,76.27392986920329
39.0,93.11529201426399,0.2751876950324756,0.6310284463067612,77.26755559600957
40.0,92.95678474180326,0.26165232245578224,0.6301069474862246,78.26106769628457
41.0,92.79742017878947,0.24982027742919435,0.6291822207819171,79.25445040334367
42.0,92.63707300009713,0.23955059143142574,0.6282537888047109,80.24768715058268
43.0,92.47561522352738,0.23071912666481204,0.6273211745088354,81.24076045954736
44.0,92.31291582421358,0.22321683155191782,0.6263839011447434,82.23365182059919
45.0,92.14884031656416,0.2169486672933181,0.6254414922644018,83.22634156001686
46.0,91.98325033806871,0.2118324663657478,0.6244934717850352,84.21880870442108
47.0,91.8160031794501,0.2077977612992667,0.6235393641248459,85.21103082343231
48.0,91.646951320924,0.20478493694079292,0.6225786944072146,86.20298387053461
49.0,91.47594188107045,0.20274450765050167,0.6216109887593806,87.19464199003703
50.0,91.30281607092316,0.20163651160795418,0.6206357746996535,88.18597732078935
51.0,91.12740862414026,0.20142964863599525,0.6196525816238506,89.17695978612826
52.0,90.94954727097017,0.20210119383456818,0.6186609413433425,90.16755689534527
53.0,90.76905143103481,0.20363831369160398,0.6176603890949355,91.15773326596403
54.0,90.58573235530388,0.20603328538721558,0.6166504640940307,92.14745063691123
55.0,90.3993919292164,0.20928888105133456,0.6156307105935864,93.13666742656699
56.0,90.2098212672824,0.2134142162214427,0.6146006795800524,94.12533817794348
57.0,90.01680058296633,0.2184253961789174,0.613559929653439,95.11341346710567
58.0,89.82009781937346,0.22434829823614755,0.6125080287541252,96.10083936437535
59.0,89.61946725354407,0.23121519775329546,0.6114445563800466,97.08755684901634
60.0,89.41464846655002,0.23906716166705058,0.6103691055359448,98.07350136423652
61.0,89.2053649780546,0.24795384255154246,0.6092812851962212,99.05860222856501
62.0,88.9913227645217,0.2579339158307707,0.6081807230722521,100.04278199058558
63.0,88.77220862657867,0.2690761944117473,0.6070670687347969,101.0259557129887
64.0,88.54768833970951,0.2814587144048981,0.6059399972967516,102.00803014575342
65.0,88.31740477663608,0.2951708446277517,0.6047992132799145,102.9889028817622
66.0,88.08097578380449,0.3103136313073688,0.6036444550770402,103.96846138931994
67.0,87.83799187808901,0.3270007058726411,0.6024754999010256,104.94658195292293
68.0,87.58801373903646,0.34535930023288025,0.6012921692834902,105.92312850845231
69.0,87.33056948220468,0.3655313733315574,0.6000943351640013,106.89795136418753
70.0,87.06515169885981,0.3876748563343116,0.5988819266117199,107.87088579866719
71.0,86.79121418142077,0.4119656204582969,0.5976549373226061,108.84175050011426
72.0,86.5081686877796,0.4385970328486873,0.5964134333612869,109.81034598433364
73.0,86.21538093545321,0.46778357159592526,0.5951575624270838,110.77645266355938
74.0,85.91216671156391,0.4997618254474018,0.5938875632641608,111.73982891931492
75.0,85.59778759184114,0.5347923047905899,0.5926037760217425,112.70020897016747
76.0,85.27144638578203,0.5731613523090605,0.591306653384572,113.65730057797215
77.0,84.9322823186111,0.6151831336999536,0.5899967724533105,114.6107825930423
78.0,84.57936597191669,0.6612016545581728,0.5886748473272765,115.56030234349936
79.0,84.21169398342657,0.7115926282689453,0.5873417423830666,116.50547286310913
80.0,83.82818352459648,0.7667659587421413,0.5859984861882985,117.44586996338552
81.0,83.42766681560482,0.8271676068297255,0.5846462855006043,118.38102926217957
82.0,83.00888556472071,0.8932813969607992,0.5832865395363689,119.31044311352115
83.0,82.57048548135668,0.9656306696872987,0.5819208541585179,120.2335575028599
84.0,82.11101100628446,1.044779627348017,0.5805510556269686,121.1497689699491
85.0,81.62890042248047,1.1313342583267039,0.5791792034970453,122.05842163202455
86.0,81.12248154426486,1.225942350641909,0.57780760216945,122.95880439543978
87.0,80.58996809248589,1.3292934978671342,0.5764388107611115,123.85014840337642
88.0,80.02945733551142,1.4421181711061044,0.5750756499230208,124.73162500041585
89.0,79.43892912224318,1.5651851367215046,0.5737212052273538,125.60234426975055
90.0,78.81624658965741,1.6992979068464025,0.5723788263690224,126.46135428172845
91.0,78.15915896269603,1.845289727017983,0.5710521211324175,127.3076412586449
92.0,77.46530682785102,2.0040169053509724,0.5697449431441559,128.14013084634837
93.0,76.73223026672201,2.1763500776630873,0.5684613724262287,128.95769068810526
94.0,75.95738017129153,2.3631632796912774,0.5672056879061385,129.7591344597419
95.0,75.13813319603106,2.565322654123949,0.5659823307084215,130.54322761767136
96.0,74.27333396831473,2.784081431430946,0.5647958576299115,131.30869495603824
97.0,74.4898923630396,3.3037937061363993,0.5636508846837218,132.05423027602916
98.0,74.8904748801309,3.8643054483752057,0.5625520209794821,132.77850751031514
99.0,75.47449562023782,4.464252735050713,0.5615037919389168,133.48019416268107
100.0,76.25155741213666,5.1056179290067085,0.5605105553104657,134.1579662667569
101.0,77.22766157408712,5.790277140936757,0.5595764074561819,134.81052497894433
102.0,78.40413210927177,6.519964455945432,0.558705085520533,135.436614271408
103.0,79.77651854934834,7.296235931219017,0.5578998667411244,136.03503920465516
104.0,81.3335614243149,8.120433519169564,0.5571634674525281,136.6046843492035
105.0,83.05634813599819,8.993652078841492,0.5564979479547294,137.1445312609882
106.0,84.91767089011756,9.916706394443453,0.5559046162266075,137.65367598595645
107.0,86.88189725428977,10.890106278300669,0.5553839568084692,138.13134243060202
108.0,88.90523408038275,11.914034206538066,0.5549355574131675,138.57689558764014
109.0,90.9366357100792,12.988330477434697,0.5545580602694008,138.98985047223772
110.0,92.91932043108382,14.112485714345652,0.55424913126869,139.3698776838967
111.0,94.7928560466135,15.285639584889172,0.5540054463010237,139.71680569047678
112.0,96.49574921178723,16.506588318520908,0.5538226997112417,140.03061902423656
113.0,97.96832075390881,17.773797979134372,0.5536956299865717,140.3114532411218
114.0,99.155707438199,19.085423474682262,0.5536180605213082,140.55958701351187
115.0,100.0106538651777,20.439334735654892,0.5535829612145887,140.7754305746469
116.0,100.49585303997631,21.833146065663342,0.5535825200707847,140.9595123498111
117.0,100.58561376773494,23.264248490833573,0.5536082243269609,141.11246398180776
118.0,100.26672972661711,24.729843518528902,0.5536509469469342,141.2350045192736
119.0,99.53856942575979,26.226976982745235,0.5537010336375955,141.3279244699452
120.0,98.41178692568998,27.752576419756377,0.5537484082533909,141.39206790238185
121.0,96.90706808587865,29.30348100073688,0.5537826495337071,141.4283186078027
122.0,95.05285500752484,30.87647155123197,0.5537930841101215,141.43758465830635
123.0,92.88299694157446,32.46829983675589,0.5537688666770645,141.42078533296197
124.0,90.43435992973518,34.07571267022676,0.5536990558131012,141.3788393050987
125.0,87.74464720548572,35.69547328887867,0.5535726829774492,141.31265445313795
126.0,84.85058312623158,37.324379438280204,0.5533788147269286,141.22311929283512
127.0,81.78654868406294,38.95927826016576,0.5531066082915258,141.1110959935715
128.0,78.58368954648505,40.59707817485075,0.5527453608883638,140.97741489327151
129.0,75.26946209756126,42.23475801607832,0.5522845533258823,140.8228703923935
130.0,71.86754488603154,43.86937371856969,0.5517138885589041,140.6482180858583
131.0,68.39802366563222,45.49806287994046,0.5510233259096498,140.45417298086872
132.0,64.87775567668469,47.118047522988036,0.5502031116794471,140.24140864626986
133.0,61.32083126925658,48.726635187373006,0.5492438063606254,140.01055720318644
134.0,57.739049401754684,50.32121964753595,0.5481363120844847,139.76220966288307
135.0,54.14239883881757,51.899279310508014,0.5468718932914628,139.49691735930625
136.0,50.539461652111875,53.458375978219316,0.5454422017368695,139.21519319329764
137.0,46.93776598179525,54.99615318227846,0.5438392951179952,138.91751357969605
138.0,43.34406239204499,56.510334471506475,0.5420556639139912,138.60432005227807
139.0,41.31485974735636,56.45138451353217,0.6045795744750397,68.55908681343466
140.0,40.58374234667762,55.10327392457096,0.6289226023777326,50.37209073820993
141.0,39.42856251961333,54.19078218674938,0.6358975466611583,44.39739335491698
142.0,33.83824129374263,57.70930911356374,0.638028634480661,40.933119002176674
143.0,27.24864032005967,62.21119981333804,0.6377300330240607,38.54953796281747
144.0,20.50358540050474,66.85615375018871,0.6359317287131891,36.762288558315916
145.0,14.142610723842433,71.11143328181393,0.6330998457674912,35.34994271546669
146.0,8.491845955503456,74.65905106374011,0.629505367679931,34.193166288952575
147.0,3.714310316088227,77.34428378441994,0.625321984045782,33.220483571275174
148.0,0.0,79.13427941721403,0.6206690912013384,32.38581852018606
149.0,0.0,80.08061977932672,0.6156332817907081,31.657803053430545
150.0,0.0,80.2863046239725,0.6102800611937758,31.014182902921355
151.0,0.0,79.87852791801853,0.6046607344837139,30.438643501000676
152.0,0.0,78.98831773097157,0.5988166637952221,29.918906646288903
153.0,0.0,77.7370389672253,0.5927820238005262,29.445531515428808
154.0,0.0,76.22894292860359,0.5865856504651492,29.011128957260585
155.0,0.0,74.54842280183232,0.5802523195717421,28.609829118933348
156.0,0.0,72.76049311324108,0.5738036551407036,28.236909977344123
157.0,0.0,70.91313097495524,0.5672587886640822,27.888531828440133
158.0,0.0,69.04040351928766,0.5606348459658389,27.561543728338957
159.0,0.0,67.165678340221,0.5539473151702824,27.253338757747272
160.0,0.0,65.30447037230154,0.5472103259125941,26.96174506944083
161.0,0.0,63.46676229646118,0.5404368647870421,26.68494234335897
162.0,0.0,61.65878801060495,0.533638947307549,26.42139546842707
163.0,0.0,59.88429599980333,0.5268277464207779,26.169804723817442
164.0,0.0,58.14544934101247,0.5200137031160381,25.92906352048029
165.0,0.0,56.44375245676065,0.5132066092289455,25.69822615358485
166.0,0.0,54.78055114650618,0.5064156741772482,25.476481829427367
167.0,0.0,53.15492300591766,0.49964958381363767,25.263131822127793
168.0,0.0,51.56556211314916,0.49291654351141495,25.057572352510707
169.0,0.0,50.012970987487996,0.4862243158032654,24.85927982095537
170.0,0.0,48.49725201103504,0.4795802489815379,24.667798583555058
171.0,0.0,47.018148143247814,0.4729913128824384,24.4827300550087
172.0,0.0,45.57527965175156,0.4664640837499021,24.303728962152377
173.0,0.0,44.16821179783188,0.4600048406479133,24.13048413209651
174.0,0.0,42.79650899207529,0.4536194419744989,23.962733327401214
175.0,0.0,41.45971590406285,0.4473135613559143,23.80023126998661
176.0,0.0,40.15734359459395,0.4410924099455897,23.642770755471997
177.0,0.0,38.888926241522576,0.43496103299494865,23.49016082927687
178.0,0.0,37.65395144421242,0.4289240943726378,23.342233737757702
179.0,0.0,36.45191310229823,0.4229860238011429,23.198837567170706
180.0,0.0,35.28229426869895,0.41715095765651516,23.059836543126295
181.0,0.0,34.14456804812959,0.4114227671617131,22.92510777748477
182.0,0.0,33.038202725349905,0.40580507597980214,22.79453954697378
183.0,0.0,31.962657133741043,0.4003012476770581,22.6680303971589
184.0,0.0,30.917386725204942,0.3949144053608498,22.54548762808099
185.0,0.0,29.90184045955411,0.3896474339976665,22.426826245516757
186.0,0.0,28.915464406570894,0.3845029900971485,22.311968067813368
187.0,0.0,27.957702183370632,0.37948350901552824,22.20084091749083
188.0,0.0,27.02799521377556,0.3745912114984897,22.093377940789633
189.0,0.0,26.125785268789368,0.3698281132773768,21.989517005396525
190.0,0.0,25.250514829149623,0.3651960313103464,21.889200201050173
191.0,0.0,24.40162993673822,0.3606965935829761,21.79237338215545
192.0,0.0,23.578581349358096,0.3563312465287025,21.698985784895203
193.0,0.0,22.780826916894092,0.3521012639204663,21.608989685652393
194.0,0.0,22.00783460592207,0.3480077553344592,21.522340113796375
195.0,0.0,21.259085032672985,0.34405167480109256,21.438994590653454
196.0,0.0,20.534075364819603,0.3402338294961372,21.358912910211526
197.0,0.2652991667753263,19.83232314006399,0.3365548884860588,21.28205694192198
198.0,0.682264924838996,19.15337080237981,0.33301539132542457,21.208390461534457
199.0,1.1367271460494588,18.496790796040653,0.32961575669700865,21.13787900164705
200.0,1.6314088530442452,17.86219100037234,0.32635629092409973,21.070489720335978
201.0,2.1687609165811095,17.2492205444345,0.3232371963253811,21.006191286192422
202.0,2.7508906135599966,16.65757576709631,0.3202585794379308,20.944953776948402
203.0,3.3794997417786874,16.087006669899278,0.3174204591036058,20.88674858903529
204.0,4.0558073814886235,15.537322256947958,0.31472277432393686,20.83154835830205
205.0,4.780495026671626,15.008396917956938,0.31216539160492435,20.77932689329293
206.0,5.553627053094464,14.50017423556202,0.30974811264779656,20.730059111519683
207.0,6.37468513183774,14.012673678316006,0.3074706812245442,20.68372096873084
208.0,7.2424563927064955,13.54599495256629,0.305332787738222,20.640289454036765
209.0,8.154971841580847,13.100310636755024,0.30333408024337905,20.599742482025004
210.0,9.109528049110663,12.67587365257619,0.30147416683172457,20.562058902046186
211.0,10.102695611230354,12.273013600701304,0.299752622256653,20.52721844247131
212.0,11.13033436670937,11.8921331157517,0.298168992918012,20.495201679173835
213.0,12.187566547737681,11.533699924745829,0.29672280252643063,20.46599001247939
214.0,13.268873491900711,11.198240681894077,0.2954135558529409,20.439565634093718
215.0,14.368137604054821,10.886330357233293,0.2942407430486915,20.41591150436914
216.0,15.478717202112644,10.598580489607098,0.29320384332287946,20.395011329712414
217.0,16.59353448893321,10.335625864944152,0.2923023282113159,20.376849541780402
218.0,17.705173703719158,10.098109863833963,0.2915356644344252,20.361411278257805
219.0,18.80598579190881,9.886668743246846,0.2909033163450533,20.34868236504093
220.0,19.888195505644983,9.701915129680366,0.29040474796795185,20.338649299677748
221.0,20.944006815344686,9.544421008406898,0.2900394246342087,20.331299235938033
222.0,21.96570296181801,9.414700482579695,0.28980681421522037,20.326619969408007
223.0,22.945738386120503,9.31319257191123,0.2897063879620522,20.324599924022785
224.0,23.876821088827626,9.240244304122713,0.2897376209572102,20.325228139466844
225.0,24.75197989220801,9.196094357832745,0.28989999231037805,20.328494259147227
226.0,25.56464563851954,9.180857605971926,0.29019298451597314,20.33438852015894
227.0,26.308690276541835,9.194510783647262,0.29061608321826504,20.34290174117877
228.0,26.978505496609387,9.236878967984985,0.2911687758015611,20.354025315677976
229.0,27.56904346494446,9.307625094537952,0.2918505504137756,20.367751199610538
230.0,28.07589144488945,9.40623945825275,0.29266089419937763,20.384071908569137
231.0,28.49532826402863,9.53203542178227,0.29359929153342945,20.40298050366723
232.0,28.824433474007094,9.684146264964461,0.29466522076402873,20.424470582283195
233.0,29.06117621279607,9.8615155970212,0.2958581517463501,20.448536296729927
234.0,29.204375950643957,10.062912001581402,0.29717754559601306,20.475172320438084
235.0,29.25387663162723,10.28693354668576,0.2986228483275941,20.5043738404368
236.0,29.210587598070248,10.532004859445363,0.3001934883052541,20.536136595710776
237.0,29.07641776908079,10.796403228558031,0.30188887503752715,20.570456841476595
238.0,28.85433955294352,11.078271921685237,0.30370839264552785,20.607331338194495
239.0,28.548330671416178,11.375630850364756,0.3056513976266777,20.646757389842694
240.0,28.163303254086767,11.686400273443509,0.30771721414789593,20.688732825198862
241.0,27.70500042002925,12.008419981863698,0.30990513014953874,20.73325600232037
242.0,27.179876860799958,12.339467919306093,0.3122143931384686,20.780325814431635
243.0,26.594960896032084,12.677277594464464,0.3146442053584223,20.82994169798907
244.0,25.957712789561707,13.01955614894777,0.31719372006294405,20.88210365129553
245.0,25.275872244475252,13.363999346049884,0.31986203648923844,20.936812239525118
246.0,24.557319460550076,13.708305933538435,0.32264819555171637,20.994068613047084
247.0,23.809945215514997,14.050190967868295,0.32555117531944905,21.053874526552455
248.0,23.041535647235264,14.387398874668142,0.3285698865192976,21.116232361832125
249.0,22.259673317388426,14.717717192863889,0.3317031680729452,21.18114515454597
250.0,21.471655150995716,15.038991644328775,0.334949782687138,21.248616625441482
251.0,20.684426495401883,15.349143318497852,0.3383084125155621,21.318651216532942
252.0,19.904530072041485,15.646188263215725,0.3417776549097061,21.391254132810346
253.0,19.138068241049275,15.928259480173868,0.34535601827477685,21.466431390111726
254.0,18.3906771100052,16.19363076878362,0.3490419180452408,21.54418986986384
255.0,17.667510581404265,16.440742093885046,0.3528336727928464,21.624537381475303
256.0,16.973234568724006,16.66822404314954,0.35672950047804575,21.707482733253368
257.0,16.31202962304081,16.874920909615785,0.3607275148535688,21.793035812812004
258.0,15.687601042787954,17.05991119144326,0.3648257220257451,21.881207678182456
