Time,J,A,S,tau
0.0,100.0,10.0,0.756318736455271,26.220371154253822
1.0,97.87265650741335,15.306874338457506,0.7542865676194992,26.161370526649133
2.0,92.76308587542819,20.40420246819731,0.7521877353390987,26.100524815167883
3.0,86.47506586488085,25.298189178964073,0.7500230745980441,26.037855179949194
4.0,79.79631722180507,29.995201552098365,0.7477932787172971,25.97337787131908
5.0,73.0324071818586,34.50142254980757,0.7454990936771866,25.907109761298784
6.0,66.29819911546873,38.82285619978886,0.7431413177715454,25.83906834033973
7.0,59.637098598113546,42.96533497738173,0.7407208011639349,25.769271713488493
8.0,53.065965575444935,46.934521002392536,0.7382384453840916,25.697738597169995
9.0,46.591722265651256,50.735910104032094,0.7356952028652287,25.624488317031908
10.0,40.21747584120472,54.3748450023248,0.7330920761718929,25.549540802159637
11.0,33.9448031382459,57.85650919644899,0.7304301158591715,25.472916565159203
12.0,27.7746215614819,61.1859135283017,0.7277104229410263,25.394636739494803
13.0,21.707560188983127,64.36796169350485,0.7249341447619382,25.314723030735625
14.0,15.744083822780556,67.4074133476273,0.7221024732411944,25.233197705164017
15.0,9.88454956510842,70.30884092637935,0.7192166486758469,25.150083651338193
16.0,4.129232374180764,73.07675156592339,0.7162779533191324,25.065404297322136
17.0,0.0,75.71547444066087,0.71328771073688,24.979183622707552
18.0,0.0,78.22922576612616,0.7102472890595176,24.891446208389457
19.0,0.0,80.62214359966696,0.7071580925381545,24.802217132413194
20.0,0.0,82.89814952049277,0.7040215659614045,24.711522059131017
21.0,0.0,85.06115641169605,0.7008391900821289,24.619387170004526
22.0,0.0,87.11489091233149,0.6976124782476525,24.525839146674215
23.0,0.0,89.0630166778429,0.694342981791044,24.430905262800735
24.0,0.0,90.90901475261904,0.691032277937768,24.334613226423922
25.0,0.0,91.65504256865161,0.6890120689511788,24.27938994455371
26.0,0.0,89.80459523023757,0.68758219976405,24.243028472450458
27.0,0.0,86.87976922416527,0.6861710298600345,24.207317060089522
28.0,0.0,83.64075332421362,0.6847792069251665,24.172263326145742
29.0,0.0,80.37259054054041,0.6834073716359913,24.13787466725529
30.0,0.0,77.17523554265489,0.6820561571627983,24.104158259575495
31.0,0.0,74.08164166783034,0.6807261886771362,24.071121060377767
32.0,0.0,71.10093744567676,0.6794180828765379,24.038769809824693
33.0,0.0,68.23378182448126,0.6781324475469582,24.0071110334356
34.0,0.0,65.47781556559788,0.6768698807661185,23.976151036900802
35.0,0.0,62.8296280292568,0.6756309714101739,23.94589592829802
36.0,0.0,60.285544452597335,0.6744162968801928,23.91635158119495
37.0,0.0,57.84175624070945,0.6732264248579362,23.887523683543204
38.0,0.0,55.494599404928366,0.672061911429296,23.85941770671358
39.0,0.0,53.24042976320953,0.6709233005655881,23.832038911236623
40.0,0.0,51.07576391620775,0.6698111255690057,23.805392375568605
41.0,0.0,48.997223605938494,0.6687259052491031,23.77948294504406
42.0,0.0,47.001516676818326,0.6676681480406355,23.754315303228953
43.0,0.0,45.08552660326642,0.6666383468012711,23.729893900271282
44.0,0.0,43.24616911292605,0.6656369827435764,23.70622301930627
45.0,0.0,41.48054738376834,0.6646645221579319,23.683306734251325
46.0,0.0,39.78579982971748,0.663721417102165,23.66114892873911
47.0,0.0,38.15922709816374,0.6628081058127582,23.639753305069444
48.0,0.0,36.59817938140695,0.6619250110326674,23.619123369948166
49.0,0.0,35.10011553028912,0.6610725406214233,23.59926244733069
50.0,0.0,33.662593729435635,0.6602510871607223,23.5801736785131
51.0,0.0,32.283253243823204,0.6594610274247219,23.561860021045213
52.0,0.0,30.959823854393957,0.6587027222669805,23.54432425212696
53.0,0.0,29.690120377165144,0.6579765163126384,23.527568969642672
54.0,0.0,28.47203375968095,0.6572827380131384,23.511596596867513
55.0,0.0,27.30353635851265,0.6566216991497412,23.496409381054203
56.0,0.0,26.182678106483042,0.6559936947501984,23.4820093963256
57.0,0.0,25.10758639547506,0.6553990028893785,23.468398545126956
58.0,0.0,24.07646349313353,0.6548378845634233,23.45557856025019
59.0,0.0,23.087591691161858,0.6543105835035153,23.44355100606706
60.0,0.0,22.139335472819926,0.6538173260958227,23.4323172806253
61.0,0.0,21.230148336626108,0.6533583212100115,23.421878616691956
62.0,0.0,20.358583441350003,0.6529337600892997,23.412236083229697
63.0,0.0,19.52330780264002,0.6525438163518492,23.403390587702905
64.0,0.0,18.72312421498732,0.6521886457630798,23.39534287613641
65.0,0.0,17.956996808688004,0.6518683863234812,23.388093535857514
66.0,0.0,17.224085267427874,0.65158315812221,23.381642995968523
67.0,0.0,16.52378677957016,0.6513330633430982,23.37599152901244
68.0,0.0,15.855785076679547,0.651118186236039,23.37113925216473
69.0,2.517296859837738,15.220106533170664,0.6509385931114996,23.367086128467733
70.0,6.30337754846246,14.61718222212639,0.6507943323545803,23.363831968071214
71.0,10.393057850460353,14.047913966935852,0.6506854344577077,23.36137642947054
72.0,14.782995964406016,13.513748825284337,0.6506119119311422,23.359719019554166
73.0,19.463488073750156,13.01674104772884,0.6505737594681943,23.3588590956636
74.0,24.417600396320456,12.55961521189957,0.65057095401117,23.358795866636463
75.0,29.620223874139818,12.145819629418039,0.6506034548259787,23.35952839378268
76.0,35.03725129342713,11.779574392609128,0.6506712034746945,23.361055590852878
77.0,40.62498390477873,11.465893849763834,0.6507741240099568,23.36337622570853
78.0,46.329577093826394,11.210592200019022,0.6509121230769832,23.366488921082063
79.0,52.0868726056296,11.020273299067073,0.6510850899576874,23.3703921546931
80.0,57.82239905074741,10.90228314360875,0.6512928968165861,23.37508426092131
81.0,63.45182717287414,10.864651981571878,0.6515353987375132,23.38056343056837
82.0,68.88168155695031,10.915997989445312,0.6518124339357421,23.386827711961445
83.0,74.01077729465361,11.065413595093466,0.6521238239241363,23.393875011524443
84.0,78.73233163029792,11.32232426232845,0.6524693736401111,23.401703093874694
85.0,82.93732557341752,11.69632483840099,0.6528488717173296,23.410309583024702
86.0,86.5193584568777,12.196999281390676,0.6532620905938944,23.419691962030644
87.0,89.38090911109504,12.833714587383518,0.6537087867932894,23.42984757401233
88.0,91.44090129268423,13.61540479785601,0.6541887011264333,23.440773622351948
89.0,92.64247012724323,14.55032653000125,0.6547015588895995,23.452467170710968
90.0,92.95943024334836,15.645804883168985,0.655247070130558,23.46492514352513
91.0,92.39971853572858,16.907947778092108,0.6558249299225359,23.4781443264611
92.0,91.00489031115995,18.34134038403193,0.6564348185584657,23.49212136597725
93.0,88.8448756997978,19.94869345070443,0.6570764019250318,23.506852770497677
94.0,86.00939694287767,21.73048083362792,0.657749331673013,23.52233490945527
95.0,82.59749792854377,23.684544889357493,0.6584532456040323,23.538564014355856
96.0,78.707788587094,25.80565776441951,0.6591877679132921,23.55553617829863
97.0,74.43100695222364,28.08508451163072,0.6599525094726747,23.573247355726416
98.0,69.84618688606449,30.510174309883972,0.6607470682220175,23.591693363228114
99.0,65.02007358372258,33.06395861589051,0.6615710294601774,23.61086987918513
100.0,60.00902596196376,35.724810827026474,0.6624239661286928,23.630772443143357
101.0,54.862328971954064,38.466239934130506,0.6633054392268973,23.651396456582603
102.0,49.625657305321745,41.25676997233045,0.6642149981471797,23.67273718271029
103.0,44.344113504720234,44.05993662609354,0.6651521809681002,23.694789745553845
104.0,39.064463852583614,46.83448397405554,0.6661165148763076,23.717549130535378
105.0,33.83648944919349,49.53471840971408,0.6671075165513685,23.74101018457421
106.0,28.713570660005796,52.11105027667326,0.6681246924735857,23.765167614975294
107.0,23.75247467535932,54.5109173398844,0.6691675393599221,23.790015989980756
108.0,19.012395451652353,56.6801529916732,0.6702355445337242,23.815549738332816
109.0,14.553127426642991,58.56501486183888,0.6713281863114672,23.841763148951294
110.0,10.432292290100023,60.115017271327694,0.6724449344095461,23.868650370856606
111.0,6.701657233147172,61.28653488848496,0.6735852503385372,23.896205412793044
112.0,3.4028357314729165,62.046909945329865,0.6747485878162492,23.924422143106604
113.0,0.5629409151600959,62.37849298066709,0.6759343931729047,23.953294289407197
114.0,0.0,62.28176547395433,0.6771421057640884,23.98281543829462
115.0,0.0,61.77668029191783,0.678371158390326,24.012979035177832
116.0,0.0,60.90161281542312,0.6796209777124654,24.04377838393924
117.0,0.0,59.70981292576707,0.6808909846734211,24.075206646697914
118.0,0.0,58.263915032143586,0.682180594920355,24.107256843549845
119.0,0.0,56.62955518636453,0.6834892192280778,24.139921852314465
120.0,0.0,54.869346100519245,0.6848162639231604,24.173194408288197
121.0,0.0,53.03825835095309,0.6861611313084338,24.207067104015074
122.0,0.0,51.18096923525842,0.6875232200868537,24.24153238904732
123.0,0.0,49.33118083023675,0.688901925784775,24.276582569724404
124.0,0.0,47.51247422813865,0.6902966411748631,24.31220980899843
125.0,0.0,45.74005837137757,0.6917067566966961,24.34840612629174
126.0,0.0,44.022805269666634,0.6931316608735596,24.38516339714301
127.0,0.0,42.36516345100116,0.6945707407312762,24.42247335355037
128.0,0.0,40.76868344927679,0.6960233822061745,24.460327583244847
129.0,0.0,39.233152054239014,0.6974889705577125,24.49871753003899
130.0,0.0,37.75734409225073,0.6989668907827418,24.53763449192336
131.0,0.0,36.33950486196433,0.7004565280051187,24.57706962517593
132.0,0.0,34.97761712983197,0.7019572678702757,24.617013940437193
133.0,0.0,33.6695726340506,0.7034684969435958,24.657458304521715
134.0,0.0,32.41325312419469,0.7049896030871972,24.69839343994917
135.0,0.0,31.206580407364903,0.7065199758517127,24.739809924975596
136.0,0.0,30.04753602571496,0.7080590068290907,24.781698194494023
137.0,0.0,28.934172003566765,0.7096060900296484,24.824048539320255
138.0,0.0,27.86461686508482,0.7111606222529662,24.866851106259226
139.0,0.0,26.837073763492416,0.7127220034032451,24.910095899576085
140.0,0.0,25.849821635484012,0.7142896368671182,24.953772779889338
141.0,0.0,24.901213217103884,0.71586292982319,24.997871465463806
142.0,0.0,23.98967399451093,0.7174412935747042,25.042381532234387
143.0,0.0,23.11370203637327,0.7190241438681428,25.087292414240373
144.0,0.0,22.271867699962044,0.7206109011914265,25.132593404267407
145.0,0.0,21.462815808133442,0.7222009910770094,25.178273654279224
146.0,0.0,20.685268587264886,0.723793844383833,25.224322176107314
147.0,0.18282016554942881,19.938030898081845,0.7253888975737621,25.270727842113253
148.0,1.4782859541927618,19.21999761120493,0.7269855929776536,25.317479385905646
149.0,2.950331304432696,18.53016348472702,0.7285833790504752,25.36456540313788
150.0,4.614178872213038,17.867635784228593,0.7301817106158933,25.411974352363238
151.0,6.4847343801654755,17.231649812918317,0.7317800490980318,25.45969455597525
152.0,8.576299094387476,16.62158793413313,0.7333778627446127,25.507714201192616
153.0,10.902240210519613,16.037002014378622,0.7349746268394508,25.556021341087337
154.0,13.474616993748661,15.477638910636205,0.7365698238907832,25.604603895893554
155.0,16.303769280959493,14.943470872937809,0.7381629438431253,25.65344965386754
156.0,19.397837369523657,14.434725802428137,0.7397534842109103,25.70254627319043
157.0,22.7622394686669,13.951924016151763,0.7413409502914109,25.751881282593285
158.0,26.39908382907464,13.495915329790908,0.742924855323515,25.801442082751887
159.0,30.306592854195905,13.067912108887255,0.7445047205489727,25.851215949055373
160.0,34.478510585810426,12.669535657679683,0.7460800754840932,25.90119003141626
161.0,38.90320744561328,12.302836018314695,0.7476504578698846,25.951351357552795
162.0,43.56324431926399,11.9703372265897,0.7492154139143938,26.001686833642033
163.0,48.43463247297075,11.67505484883964,0.7507744982883869,26.05218324711933
164.0,53.486342415556685,11.420525067293598,0.7523272742956897,26.102827267704004
165.0,58.67986033801886,11.210816153851136,0.7538733139117426,26.15360544985387
166.0,63.96890324401976,11.050535218741368,0.7554121978569454,26.204504234774774
167.0,69.29930878483664,10.944821015338343,0.7569435156071208,26.255509953100386
168.0,74.60908854495759,10.899331985991326,0.7584668654791802,26.306608826625002
169.0,79.8288860887153,10.92022358691742,0.7599818546797661,26.357786970612967
170.0,84.8827388564172,11.014107340330732,0.7614880992671565,26.409030396943688
171.0,89.6892265884884,11.188002742440277,0.762985224200034,26.46032501621439
172.0,94.16340401792253,11.449279152960983,0.7644728633568022,26.511656640323334
173.0,98.21937124808265,11.80557964979905,0.7659506594700778,26.563010985834172
174.0,101.77369960941422,12.264736130759093,0.7674182641578557,26.614373676313583
175.0,104.74980731343844,12.83467394873534,0.7688753378969775,26.66573024540372
176.0,107.08264852748479,13.5232993978697,0.7703215499381653,26.717066140349164
177.0,108.72362562239773,14.338374068477485,0.7717565783180278,26.76836672462947
178.0,109.64473984125861,15.287379351476837,0.7731801097956394,26.819617281450455
179.0,109.840962172495,16.37735848824748,0.7745918397571542,26.870803017391218
180.0,109.33055972594045,17.614744542967674,0.7759914721805495,26.921909065656173
181.0,108.15271259407079,19.005162952829732,0.7773787195492602,26.97292048974319
182.0,106.36277303744636,20.553218506639077,0.7787533027831807,27.0238222871285
183.0,104.02594952657994,22.262251132446064,0.7801149511315082,27.07459939318731
184.0,101.2106337468324,24.134069986721148,0.7814634020827582,27.125236685099626
185.0,97.98253664286383,26.168661991084814,0.7827984012625211,27.175718985898094
186.0,94.40055616293266,28.363877521291624,0.7841197023253013,27.22603106862477
187.0,90.51478152019074,30.7150987307591,0.7854270668407427,27.276157660597157
188.0,86.36650535918989,33.214901576980054,0.7867202641745519,27.32608344778372
189.0,81.98973288331193,35.85272162002124,0.787999071364423,27.375793079288982
190.0,77.41351937926002,38.61453644134385,0.7892632729912725,27.425271171948243
191.0,72.6645135932322,41.482585243753725,0.7905126610460866,27.474502315031906
192.0,67.76927084057989,44.43513975384432,0.7917470347926844,27.52347107505922
193.0,62.756100986961115,47.44634726820593,0.7929662006269136,27.572162000719718
194.0,57.65639049164717,50.4861599487393,0.7941699719347863,27.620559627911994
195.0,52.50542143215433,53.52038366169159,0.7953581689424801,27.66864848487235
196.0,47.342766969471555,56.51085092162892,0.7965306185655426,27.71641309745354
197.0,42.212305459784666,59.41577090743881,0.7976871542463407,27.76383799445669
198.0,37.161892536362274,62.190295569314586,0.7988276158125224,27.81090771307555
199.0,32.242651568508435,64.78736329811366,0.7999518493177179,27.857606804510795
200.0,27.507816426440233,67.15893467435066,0.8010597068753575,27.903919839607113
201.0,23.01108265136206,69.25765734343787,0.8021510464982853,27.949831414615822
202.0,18.804399109521256,71.03903226824413,0.8032257319450055,27.995326157130652
203.0,14.935249119687938,72.46402536757311,0.8042836325484318,28.04038873202352
204.0,11.443584134737783,73.50195417686086,0.8053246230508202,28.085003847498633
205.0,8.35869300459564,74.13336604970115,0.8063485834435832,28.129156261303436
206.0,5.696464330243918,74.35245903886894,0.8073553988045761,28.17283078703471
207.0,3.457591727067639,74.16850822437995,0.8083449591250311,28.216012300416054
208.0,1.6271178448880577,73.60594480614648,0.8093171591494484,28.25868574577449
209.0,0.17560603698759938,72.7028198329744,0.8102718982110916,28.300836142605757
210.0,0.0,71.50773842216375,0.8112090800673423,28.34244859218793
211.0,0.0,70.07568263016078,0.8121286127364639,28.383508284292823
212.0,0.0,68.46338218476166,0.8130304083354336,28.42400050397996
213.0,0.0,66.72497845194845,0.8139143829185173,28.463910638456674
214.0,0.0,64.90861877401994,0.8147804563175401,28.503224184021025
215.0,0.0,63.054356806963995,0.8156285519834746,28.541926753075195
216.0,0.0,61.19341649466199,0.8164585968295918,28.58000408119474
217.0,0.0,59.348596900528705,0.817270521076809,28.61744203428417
218.0,0.0,57.53544029098656,0.818064258099859,28.65422661573433
219.0,0.0,55.76374531928022,0.8188397442778589,28.69034397373536
220.0,0.0,54.039096940881045,0.8195969188443105,28.725780408522922
221.0,0.0,52.36419066522062,0.8203357237431513,28.760522379835567
222.0,0.0,50.73986632639665,0.8210561034782777,28.794556513891827
223.0,0.0,49.16583912006666,0.8217580049824043,28.82786961124132
224.0,0.0,47.641188765467334,0.8224413774804006,28.860448654799523
225.0,0.0,46.16466218132303,0.8231061723368202,28.892280814830745
226.0,0.0,44.734856826201025,0.8237523429240423,28.92335346133848
227.0,0.0,43.35030778142883,0.8243798445221735,28.953654166170807
228.0,0.0,42.00954977403263,0.8249886341703869,28.983170714276216
229.0,0.0,40.71114156782154,0.8255786705315813,29.01189110749068
230.0,0.0,39.45367906266878,0.8261499138056352,29.03980357615779
231.0,0.0,38.235802413152726,0.8267023255895996,29.066896584891964
232.0,0.0,37.05619642931601,0.8272358687687168,29.093158838922065
233.0,0.0,35.91359112509018,0.8277505074144611,29.118579292964167
234.0,0.0,34.80676148197438,0.8282462066752784,29.143147158832242
235.0,0.0,33.734525694628324,0.828722932673578,29.16685191178412
236.0,0.0,32.69574377518042,0.8291806524108795,29.189683298214973
237.0,0.0,31.68931662325128,0.8296193336712961,29.211631343205024
238.0,0.0,30.714183987587315,0.8300389449363693,29.232686357505234
239.0,0.0,29.769323694373117,0.830439455294577,29.25283894446927
240.0,0.0,28.85375015356317,0.8308208343638857,29.27208000744016
241.0,0.0,27.96651360660098,0.8311830522116199,29.290400756534726
242.0,0.0,27.106699184871527,0.8315260792834701,29.307792715566773
243.0,0.0,26.2734265784632,0.8318498863333132,29.324247728629267
244.0,0.0,25.465849947134796,0.8321544443597315,29.339757966933302
245.0,0.4270143195926666,24.683158378709077,0.8324397245457811,29.354315935188268
246.0,1.0875955501718086,23.924576965944524,0.8327056982035388,29.367914478002287
247.0,1.846864773247098,23.189368684514047,0.8329523367226361,29.380546786155765
248.0,2.7151991670377305,22.476837141078576,0.8331796115240302,29.39220640266758
249.0,3.703352429821413,21.786330449264344,0.8333874940183341,29.402887228634416
250.0,4.822370830770305,21.11724653727991,0.8335759555681984,29.41258352919743
251.0,6.083493284240979,20.469039929561788,0.8337449674560529,29.42128993886787
252.0,7.4980354009000365,19.841230416634925,0.8338945008562845,29.42900146706326
253.0,9.077254906034495,19.233413766447303,0.8340245268121247,29.43571350338213
254.0,10.832195186324931,18.645274554954632,0.8341350162182264,29.4414218224396
255.0,12.7735090057228,18.076601434494282,0.8342259398058548,29.446122588346498
256.0,14.911246251362558,17.527305134129403,0.834297268136277,29.44981236055663
257.0,17.254624436460674,16.99743824275616,0.8343489715951405,29.452488096306432
258.0,19.81174682763638,16.487217756984048,0.8343810203982933,29.45414715581069
259.0,22.58929600675691,15.997050631295673,0.8343933845933363,29.454787306664475
260.0,25.592179831314635,15.527559853171555,0.8343860340744171,29.45440672639562
261.0,28.82311996123367,15.079613712131422,0.8343589386004295,29.453004007428863
262.0,32.282230956430766,14.65434630085695,0.834312067835467,29.450578151180814
263.0,35.96662008962841,14.253219390903066,0.8342453912681905,29.447128597707128
264.0,39.86970627905447,13.87800384773076,0.8341588784208835,29.442655190150163
265.0,43.98076857987723,13.530840900074153,0.8340524987743764,29.437158204423618
266.0,48.28448892818525,13.214257212848452,0.8339262218236998,29.430638339276637
267.0,52.760286108720436,12.931190800652256,0.8337800171495025,29.423096724105527
268.0,57.38194479651509,12.68500964340772,0.8336138544519804,29.41453491691039
269.0,62.11717659661379,12.47952659865418,0.8334277036153906,29.404954906698737
270.0,66.92733008157661,12.319005404068378,0.8332215347733297,29.394359112465843
271.0,71.76719387099763,12.20816393219151,0.8329953183812129,29.382750385394395
