Time,J,A,S,tau
0.0,100.0,10.0,0.6570586548518361,6.692238300161051
1.0,120.30417376959979,28.411608727013384,0.6533117596394212,6.585580915037015
2.0,181.12987904020125,45.14068954600997,0.649453915983545,6.475703911415839
3.0,275.25216738457885,60.32055365319322,0.6454867139872692,6.36262272898413
4.0,396.2835703141653,74.07445596081851,0.6414111532047317,6.2463351465742845
5.0,538.5957848567512,86.51605437663974,0.6372283515857872,6.126839866038653
6.0,697.2657738708956,97.73247365527018,0.6329562752983467,6.004630755858649
7.0,864.3134584196921,119.14101381643411,0.6322113991062651,5.986661809123134
8.0,1070.830904653768,165.69775943825218,0.6314845664325069,5.969391145433534
9.0,1368.1015701877775,232.2818487918948,0.6307556413779539,5.952221176376854
10.0,1791.3741973701024,314.43909716119623,0.6300248614998545,5.935156059896464
11.0,2362.713774957721,408.3270239082679,0.6292924669177158,5.918199851650768
12.0,3093.5250722502938,510.608214220771,0.6285587001960006,5.901356506177459
13.0,3983.27987418808,625.5862924159225,0.6278238062251453,5.884629878087005
14.0,5045.817704753661,785.1008161218465,0.6270880320970592,5.868023723390211
15.0,6365.936209529288,1017.4367245097307,0.6263516269821817,5.8515417007758375
16.0,8078.409666264542,1340.3823964297,0.625614842002047,5.835187372990515
17.0,10340.695273823607,1763.345949190183,0.6248779300998609,5.8189642082572535
18.0,13312.722587143258,2289.1179608147804,0.6241411459094631,5.802875581717585
19.0,17139.68803384424,2920.817849791939,0.6234047456225086,5.78692477690163
20.0,21954.176183818363,3696.580199627422,0.6226689868535463,5.7711149872507965
21.0,27959.703713036306,4695.446651923254,0.6219341285038616,5.755449317631241
22.0,35504.785775189805,6016.9355367117305,0.6212004306237293,5.739930785895384
23.0,45106.29455860629,7765.000639679596,0.6204681542735466,5.724562324443787
24.0,57437.64037152409,10036.718941934658,0.619737561383719,5.709346781798994
25.0,73292.41489930372,12920.222459716815,0.6190089146134427,5.694286924204561
26.0,93544.57789036169,16533.690453729436,0.6182824772087894,5.679385437216716
27.0,119203.59286999448,21081.348187637166,0.617558512860003,5.6646449272972585
28.0,151573.6384190406,26876.714794391988,0.6168372855581165,5.650067923424875
29.0,192436.36838212507,34337.832701328276,0.6161190594510986,5.635656878691605
30.0,244200.4145565142,43963.4997405871,0.6153975039225428,5.6215399733149685
31.0,309982.2644371349,56277.23531279903,0.614579159685657,5.609499220617907
32.0,393541.94250667543,71878.5547772141,0.6136357655034521,5.60005629051335
33.0,499351.8718973261,91534.59365041606,0.6125683351536862,5.59317463723608
34.0,632823.8265803738,116283.83115622406,0.6113780141800732,5.588817618468253
35.0,800707.8454641647,147522.34709450297,0.6100660781627256,5.58694851936495
36.0,1011585.9625542572,187084.15998108257,0.608669283657127,5.586868423013161
37.0,1276512.700879255,237291.14392326606,0.6072788849079468,5.586868423013142
38.0,1609569.1552375422,300828.1146014045,0.6058996499598541,5.586868423013142
39.0,2028138.8039726831,380932.1427176166,0.6045320786493737,5.586868423013142
40.0,2553480.1651087254,481629.19765601255,0.6031766683408382,5.586868423013142
41.0,3211661.106119501,608036.8859723093,0.6018339136587136,5.586868423013142
42.0,4034893.934309127,766719.721446124,0.6005043062205325,5.586868423013142
43.0,5063380.06563984,966043.74825278,0.5991883343722944,5.586868423013142
44.0,6347522.447766646,1216356.2909722035,0.5978864829238826,5.586868423013142
45.0,7950109.937903544,1530312.964256298,0.5965992328879232,5.586868423013142
46.0,9948787.756695522,1923419.7213443683,0.5953270612197045,5.586868423013142
47.0,12439087.218410518,2414830.3656561803,0.5940704405595648,5.586868423013142
48.0,15538441.858726552,3028415.001922274,0.5928298389788818,5.586868423013142
49.0,19391508.91497082,3794062.7447143723,0.5916057197269406,5.586868423013142
50.0,24177026.589231085,4749003.623594508,0.5903985409832617,5.586868423013142
51.0,30116037.8602824,5939266.49444952,0.5892087556110639,5.586868423013142
52.0,37481355.132524416,7421484.318485975,0.5880368109153786,5.586868423013142
53.0,46608870.08631366,9265255.640587658,0.5868831484050476,5.586868423013142
54.0,57911134.15694058,11556284.10217881,0.5857482035568904,5.586868423013142
55.0,71894383.95846191,14400401.30966223,0.5846324055866595,5.586868423013142
56.0,89180051.01383305,17928402.825048737,0.5835361772211115,5.586868423013142
57.0,110531201.95609152,22301681.456396673,0.5824599344769138,5.586868423013142
58.0,136885063.23790082,27718864.681580033,0.5814040864429351,5.586868423013142
59.0,169391760.54542208,34423890.274038985,0.5803690350666967,5.586868423013142
60.0,209460913.9033342,42716054.31230593,0.5793551749467121,5.586868423013142
61.0,258818756.33159298,52962626.01586057,0.5783628931291827,5.586868423013142
62.0,319577778.94843584,65614510.75118357,0.577392568909162,5.586868423013142
63.0,394322392.90448564,81225291.1661874,0.5764445736373797,5.586868423013142
64.0,486214104.3099644,100474138.19507149,0.5755192705322089,5.586868423013142
65.0,599119602.8911052,124193411.83678155,0.574617014496691,5.586868423013142
66.0,737766250.032911,153402200.27784035,0.573738151940841,5.586868423013142
67.0,907930907.6329104,189347429.27546853,0.572883020609049,5.586868423013142
68.0,1116668880.7152092,233554447.2095456,0.572051949412948,5.586868423013142
69.0,1372593808.0729458,287888970.99044293,0.5712452582701258,5.586868423013142
70.0,1686219441.012751,354632581.84027743,0.5704632579479978,5.586868423013142
71.0,2070376820.6746151,436574367.2264268,0.5697062499131275,5.586868423013142
72.0,2540723485.1315913,537122108.1215475,0.568974526185936,5.586868423013142
73.0,3116361476.578682,660437645.121271,0.5682683692006023,5.586868423013142
74.0,3820589975.313981,811601919.142226,0.5675880516711521,5.586868423013142
75.0,4681822291.774817,996816540.4593755,0.5669338364627851,5.586868423013142
76.0,5734703405.784332,1223649833.731333,0.5663059764685774,5.586868423013142
77.0,7021474582.361082,1501336629.2692873,0.5657047144916353,5.586868423013142
78.0,8593637345.222113,1841143341.9365425,0.5651302831322904,5.586868423013142
79.0,10513979060.03242,2256812374.044844,0.5645829046812064,5.586868423013142
80.0,12859047508.698736,2765103141.976091,0.5640627910180054,5.586868423013142
81.0,15722167056.237064,3386451816.613271,0.5635701435149927,5.586868423013142
82.0,19217119764.76249,4145776101.3079286,0.5631051529462112,5.586868423013142
83.0,23482644762.814377,5073457054.013284,0.5626679994015348,5.586868423013142
84.0,28687915547.979748,6206537594.512535,0.5622588522060078,5.586868423013142
85.0,35039245471.91245,7590183161.797603,0.5618778698450285,5.586868423013142
86.0,42788280029.64347,9279463713.257387,0.5615251998943415,5.586868423013142
87.0,52242009982.659706,11341528384.408794,0.5612009789551363,5.586868423013142
88.0,63775035170.97392,13858260026.551128,0.5609053325941877,5.586868423013142
89.0,77844531151.47478,16929520579.343561,0.5606383752886566,5.586868423013142
90.0,95008576875.84174,20677115041.95012,0.5604002103767578,5.586868423013142
91.0,115948678800.74004,25249631812.584457,0.5601909300137196,5.586868423013142
92.0,141497114787.57904,30828378713.81233,0.5600106151305024,5.586868423013142
93.0,172670824637.87665,37634618905.765274,0.5598593354003447,5.586868423013142
94.0,210712734446.68005,45938442136.36159,0.5597371492084168,5.586868423013142
95.0,257142510035.61444,56069622564.90925,0.559644103626882,5.586868423013142
96.0,313818881387.1214,68430918471.929794,0.5595802343948018,5.586868423013142
97.0,383016208097.5339,83514370893.33199,0.5595455659029038,5.586868423013142
98.0,467518592454.97675,101921298412.39,0.5595401111832033,5.586868423013142
99.0,570735655458.9169,124386819721.78073,0.5595638719034648,5.586868423013142
100.0,696845027817.0837,151809956314.37814,0.5596168383665049,5.586868423013142
101.0,850967837741.8595,185290606671.89523,0.5596989895143321,5.586868423013142
102.0,1039384980572.4517,226174985468.65393,0.5598102929371275,5.586868423013142
103.0,1269803825947.9055,276111499263.42065,0.5599507048870749,5.586868423013142
104.0,1551687348701.4658,337119505658.5892,0.5601201702970472,5.586868423013142
105.0,1896660592645.206,411673974122.58923,0.5603186228041668,5.586868423013142
106.0,2319012994037.3076,502809792534.9788,0.5605459847782538,5.586868423013142
107.0,2836319622162.7275,614250366017.1888,0.5608021673551882,5.586868423013142
108.0,3470210059180.015,750566273403.198,0.5610870704752017,5.586868423013142
109.0,4247320723305.448,917371142917.8969,0.5614005829261337,5.586868423013142
110.0,5200475303964.183,1121563655367.0686,0.561742582391675,5.586868423013142
111.0,6370149096032.751,1371626755222.0903,0.5621129355046321,5.586868423013142
112.0,7806286953890.156,1677997864635.5022,0.5625114979052472,5.586868423013142
113.0,9570562071754.201,2053527293942.296,0.5629381143046029,5.586868423013142
114.0,11739184765583.621,2514046293532.4736,0.5633926185531548,5.586868423013142
115.0,14406398052935.117,3079071517182.6123,0.5638748337144216,5.586868423013142
116.0,17688831585434.22,3772679346965.874,0.5643845721438725,5.586868423013142
117.0,21730929276508.42,4624591909761.587,0.5649216355730484,5.586868423013142
118.0,26711721139109.34,5671527138660.837,0.5654858151989514,5.586868423013142
119.0,32853279408394.71,6958878465870.799,0.5660768917787351,5.586868423013142
120.0,40431287728376.65,8542806332232.839,0.5666946357297394,5.586868423013142
121.0,49788262016507.83,10492844729868.16,0.5673388072348857,5.586868423013142
122.0,61350103467251.06,12895152348343.324,0.5680091563534684,5.586868423013142
123.0,75646841984103.53,15856571237806.268,0.5687054231373668,5.586868423013142
124.0,93338654210527.33,19509697980423.168,0.5694273377526993,5.586868423013142
125.0,115248526968133.64,24019225537768.047,0.5701746206069334,5.586868423013142
126.0,142403300890382.47,29589881211338.98,0.5709469824814686,5.586868423013142
127.0,176085291698165.25,36476371327218.85,0.5717441246696949,5.586868423013142
128.0,217897275194453.1,44995851201585.25,0.5725657391205307,5.586868423013142
129.0,269844371655806.75,55543575877289.414,0.5734115085874334,5.586868423013142
130.0,334437320778296.25,68612560986542.9,0.5742811067828716,5.586868423013142
131.0,414822857369403.6,84818304055792.2,0.5751741985382409,5.586868423013142
132.0,514948454705345.7,104929897644739.81,0.5760904399691942,5.586868423013142
133.0,639770692284669.6,129909223590414.28,0.5770294786463551,5.586868423013142
134.0,795519050444482.9,160960373723166.38,0.5779909537713691,5.586868423013142
135.0,990030194302532.2,199592024236245.0,0.5789744963582418,5.586868423013142
136.0,1233171988021260.0,247696233773329.53,0.5799797294199036,5.586868423013142
137.0,1537381841228327.0,307648084726911.25,0.5810062681599298,5.586868423013142
138.0,1918350873463345.8,382431801777147.44,0.5820537201693387,5.586868423013142
139.0,2395894230703092.5,475800536825607.8,0.5831216856283746,5.586868423013142
140.0,2995059271226220.0,592479002565256.2,0.5842097575131794,5.586868423013142
141.0,3747537996055404.5,738420693710319.5,0.5853175218072412,5.586868423013142
142.0,4693468991354438.0,921134717882572.2,0.5864445577174999,5.586868423013142
143.0,5883738521808564.0,1150101477505724.8,0.587590437894981,5.586868423013142
144.0,7382921883105072.0,1437301871926789.8,0.5887547286598139,5.586868423013142
145.0,9273046791930298.0,1797891677993721.8,0.5899369902304864,5.586868423013142
146.0,1.1658413201251684e+16,2251061774823606.2,0.5911367769571726,5.586868423013142
147.0,1.4671772043102708e+16,2821136498189296.0,0.5923536375589615,5.586868423013142
148.0,1.8482253669329184e+16,3538977413191681.0,0.5935871153648071,5.586868423013142
149.0,2.3305551247910404e+16,4443779183726225.0,0.5948367485580052,5.586868423013142
150.0,2.941701299825042e+16,5585369299176338.0,0.5961020704239988,5.586868423013142
151.0,3.716849026318294e+16,7027155893317238.0,0.5973826096012986,5.586868423013142
152.0,4.701003955533027e+16,8849909974648659.0,0.5986778903353012,5.586868423013142
153.0,5.951790360070365e+16,1.115662297419974e+16,0.5999874327347734,5.586868423013142
154.0,7.543062224681376e+16,1.4078751384237188e+16,0.6013107530307701,5.586868423013142
155.0,9.569567934157146e+16,1.7784252347210188e+16,0.602647363837738,5.586868423013142
156.0,1.215298162583871e+17,2.2487933818139736e+16,0.6039967744165523,5.586868423013142
157.0,1.5449708908406563e+17,2.8464798822248176e+16,0.605358490939231,5.586868423013142
158.0,1.9660998351791395e+17,3.6067266443582376e+16,0.6067320167550573,5.586868423013142
159.0,2.5046051989468413e+17,4.574741704019138e+16,0.6081168526578413,5.586868423013142
160.0,3.1938987818370336e+17,5.8085880042734536e+16,0.6095127875550842,5.586863113543256
161.0,4.077208849658865e+17,7.380605411347008e+16,0.6108697219760032,5.587760965896632
162.0,5.209730784957922e+17,9.380069467869259e+16,0.6121038838567742,5.591097480738902
163.0,6.661718945888995e+17,1.192365703413871e+17,0.6132139417683304,5.596906870819688
164.0,8.523314208711414e+17,1.5160051293877078e+17,0.6141996125924801,5.605206244175239
165.0,1.091019607161779e+18,1.9278668382981178e+17,0.6150607641840912,5.616011959125096
166.0,1.39707825428179e+18,2.452135033082277e+17,0.6158005403371097,5.6292814518366
167.0,1.7895471279445391e+18,3.121114975195401e+17,0.6165064334140661,5.643398788984368
168.0,2.293247231942717e+18,3.9754593783940954e+17,0.6172152202257463,5.657675395653509
169.0,2.940182443822123e+18,5.066483783417186e+17,0.6179266473472914,5.672108908288194
170.0,3.771509839209159e+18,6.459763292027589e+17,0.6186404625001393,5.686696883371239
171.0,4.840164903093948e+18,8.239103617095671e+17,0.6193564139484703,5.70143680967119
172.0,6.214237666372844e+18,1.0511661941512015e+18,0.6200742506271119,5.716326106901253
173.0,7.981325422886772e+18,1.3415803700522865e+18,0.6207937222687375,5.731362124342907
174.0,1.0254492294996013e+19,1.7129917538535045e+18,0.62151457952973,5.7465421394970155
175.0,1.3179862327250039e+19,2.1882414576820925e+18,0.6222365741147315,5.76186335672571
176.0,1.6946118394804998e+19,2.7965789399975434e+18,0.622959458900148,5.777322905892806
177.0,2.1796796886311727e+19,3.575463454270676e+18,0.6236829880555721,5.792917841035571
178.0,2.8046128913351303e+19,4.572880934308066e+18,0.6244069171643422,5.80864513901048
179.0,3.6099403884078924e+19,5.850417487058166e+18,0.6251310033416707,5.824501698189873
180.0,4.647968132116914e+19,7.487303546468832e+18,0.6258550053514147,5.8404843371433905
181.0,5.986246264903258e+19,9.585432327938138e+18,0.6265786837208334,5.856589793351318
182.0,7.712065962088933e+19,1.2275752677917757e+19,0.6273018008528898,5.872814721945637
183.0,9.938235300413237e+19,1.572649980212679e+19,0.6280241211372162,5.889155694449065
184.0,1.2810532848330652e+20,2.0153735185062724e+19,0.6287454110577314,5.905609197580746
185.0,1.6517341424428604e+20,2.5834973432049033e+19,0.6294654392989215,5.922171632050918
186.0,2.130203595002142e+20,3.312691965586216e+19,0.6301839768489087,5.938839311423265
187.0,2.7479136731440385e+20,4.248834534316385e+19,0.6309007971001153,5.955608460999732
188.0,3.54551362675365e+20,5.450948981191251e+19,0.6316156759476852,5.972475216740414
189.0,4.5755543909219854e+20,6.994970277873927e+19,0.6323283918840941,5.989435624257109
190.0,5.905982981509052e+20,8.978589263904198e+19,0.6330387260922298,6.006485637814486
191.0,7.624647445445929e+20,1.1527464415365012e+20,0.6337464625341268,6.02362111943084
192.0,9.845141382846693e+20,1.48032315449044e+20,0.6344513880375979,6.040837838000951
193.0,1.271431572129807e+21,1.9013848379863106e+20,0.6351532923793877,6.058131468498742
194.0,1.6422043358404152e+21,2.4426911520451487e+20,0.6358519683646002,6.075497591254028
195.0,2.12138098471584e+21,3.138684832172371e+20,0.6365472119039544,6.092931691271898
196.0,2.740700916618976e+21,4.033698470903269e+20,0.6372388220860321,6.110429157673047
197.0,3.541206181577421e+21,5.1847980874352316e+20,0.6379266012476157,6.127985283168233
198.0,4.575958687710994e+21,6.665437328707743e+20,0.63861035503929,6.145595263656937
199.0,5.913569825408893e+21,8.570158324226734e+20,0.6392898924878246,6.163254197899318
200.0,7.642738289276506e+21,1.1020655814400745e+21,0.6399650260553125,6.180957087277923
201.0,9.878131707482894e+21,1.4173569242658502e+21,0.6406355716932879,6.198698835690639
202.0,1.2767982249931316e+22,1.8230542218467816e+21,0.6413013488947681,6.216474249505
203.0,1.6503879677353042e+22,2.345114673148242e+21,0.6419621807406305,6.234278037673008
204.0,2.133347707626284e+22,3.0169528793998237e+21,0.6426178939434042,6.252104811924163
205.0,2.757681546760247e+22,3.881583201098498e+21,0.6432683188865738,6.26994908709907
206.0,3.5647503853566757e+22,4.994371667852793e+21,0.6439132896594445,6.287805281616603
207.0,4.607997783377911e+22,6.426585082832362e+21,0.6445526440892719,6.305667718044178
208.0,5.9564704398510695e+22,8.269946722066717e+21,0.6451862237674932,6.323530623849749
209.0,7.699372055921267e+22,1.0642509607530725e+22,0.6458138740737547,6.341388132249185
210.0,9.951914853606094e+22,1.3696206241213173e+22,0.646435444194409,6.3592342832384485
211.0,1.2862909080022145e+23,1.7626556412551213e+22,0.6470507871375021,6.377063024759937
212.0,1.662450842681708e+23,2.268517124125725e+22,0.6476597597440344,6.394868214020133
213.0,2.1484817410901335e+23,2.919579474549426e+22,0.6482622226938234,6.412643618995895
214.0,2.776414112857012e+23,3.757498043489843e+22,0.6488580405091123,6.430382920065488
215.0,3.587589163139083e+23,4.835862226835175e+22,0.6494470815521465,6.448079711853575
216.0,4.635364960532529e+23,6.2236093631545244e+22,0.6500292180201683,6.465727505215801
217.0,5.988586560726511e+23,8.009414759690807e+22,0.6506043259357032,6.483319729417811
218.0,7.73607825485538e+23,1.0307325537756452e+23,0.6511722851324987,6.500849734500366
219.0,9.992414032590764e+23,1.3264017444288553e+23,0.6517329792387108,6.518310793805639
220.0,1.290535420460581e+24,1.7068096204314332e+23,0.6522862956543588,6.535696106726401
221.0,1.666544358635051e+24,2.1962070433526785e+23,0.6528321255267762,6.552998801608853
222.0,2.1518317981092033e+24,2.825771701239057e+23,0.6533703637207606,6.5702119388767395
223.0,2.7780626343314536e+24,3.635581065369048e+23,0.6539009087856531,6.587328514336395
224.0,3.5860430818010394e+24,4.677149871008047e+23,0.6544236629189755,6.6043414626746655
225.0,4.628353344803634e+24,6.016681240034258e+23,0.6549385319253388,6.621243661172131
226.0,5.972733204751639e+24,7.739251205158203e+23,0.6554454251734919,6.638027933588201
227.0,7.706427950215551e+24,9.954170000049027e+23,0.6559442555481324,6.654687054271678
228.0,9.94180041667307e+24,1.2801870623003592e+24,0.6564349393997919,6.671213752449284
229.0,1.2823511538856272e+25,1.646275231992041e+24,0.6569173964907712,6.687600716721387
230.0,1.65377931928856e+25,2.1168512679146592e+24,0.6573915499377644,6.703840599755982
231.0,2.1324332783898967e+25,2.7216721151905004e+24,0.6578573261524221,6.719926023167326
232.0,2.7491553340925254e+25,3.4989470753736237e+24,0.6583146547775145,6.735849582601343
233.0,3.5436289246016306e+25,4.4977352241113143e+24,0.6587634686219139,6.751603852997853
234.0,4.566895855672638e+25,5.781017602629681e+24,0.6592037035916206,6.767181394048181
235.0,5.884605536741575e+25,7.429636377604869e+24,0.659635298618951,6.782574755831683
236.0,7.581169225504883e+25,9.547353776477189e+24,0.6600581955894329,6.797776484630616
237.0,9.76510918714191e+25,1.2267324520713294e+25,0.6604723392656793,6.812779128918692
238.0,1.2575923016532106e+26,1.5760414956405456e+25,0.6608776772104499,6.827575245518199
239.0,1.6192876703506427e+26,2.024584679841385e+25,0.6612741597063873,6.842157405914275
240.0,2.0846335129933416e+26,2.600485564068515e+25,0.6616617396751486,6.856518202728562
241.0,2.6832231135275312e+26,3.339820214448821e+25,0.6620403725942979,6.87065025633598
242.0,3.453071217600654e+26,4.288858513925531e+25,0.6624100164127652,6.884546221617702
