Time,J,A,S,tau
0.0,100.0,10.0,0.889030934430583,10.736651250558793
1.0,94.76145912926884,19.124943479488103,0.8583399186599103,10.338632264297567
2.0,94.75122457663545,27.51828813308965,0.8265199501769033,9.942867601725238
3.0,98.81022769196575,35.197792877806215,0.7937056568073757,9.547102939152554
4.0,105.88574303698138,42.16831958521561,0.7600201713787474,9.151338276579875
5.0,115.02058128132381,48.43755166579618,0.7255982030018945,8.755573614007194
6.0,125.35967551162469,54.016032677983326,0.6905850878550522,8.35980895143451
7.0,136.15428968232166,58.91717621507066,0.6551355766641102,7.964044288861831
8.0,147.40399927297764,62.46244206810959,0.6259953006473635,7.691351064783297
9.0,156.74528135871628,66.21844241410861,0.6113418320199026,7.692465065695942
10.0,162.71971474763654,72.35333231886017,0.5964690583299969,7.692465065695942
11.0,166.69954481574612,80.09229354706741,0.5813636119891892,7.692465065695942
12.0,169.53114156374056,88.77112129212182,0.566048711938784,7.692465065695942
13.0,171.67571471303273,97.82709755278825,0.5505492435097147,7.692465065695942
14.0,173.32241645866486,106.794748337694,0.5348916530919846,7.692465065695942
15.0,174.4816685999205,115.30013744809773,0.5191038222503302,7.692465065695942
16.0,175.13956398955025,122.96805756619499,0.5032149195204518,7.692465065695942
17.0,175.08225198320164,129.61990228162603,0.4872552326736416,7.692465065695942
18.0,173.68613698474445,135.6656402773654,0.4712559829622121,7.692465065695942
19.0,170.72336058255635,141.3002681420003,0.45524912065688156,7.692465065695942
20.0,166.23228532040912,146.5409412996174,0.43926711012173064,7.692465065695942
21.0,160.39219806174484,151.30154129416766,0.423342696512662,7.692465065695942
22.0,153.4442403019447,155.44797190752834,0.40750866558022963,7.692465065695942
23.0,145.6437655676528,158.83746280468984,0.39179759749462467,7.692465065695942
24.0,137.2395196139564,161.33869919011937,0.37624162075462053,7.692465065695942
25.0,128.45445579166213,162.85186389549227,0.36087216171210035,7.692465065695942
26.0,119.44373218637315,163.35864227418105,0.34571970051126366,7.692465065695942
27.0,110.3308699166018,162.89255628251777,0.3308135413826142,7.692465065695942
28.0,101.23242606658103,161.51034107332723,0.3161815806526945,7.692465065695942
29.0,92.2635440646081,159.2787327677272,0.3018501082081958,7.692465065695942
30.0,83.53483889184632,156.26948548532903,0.2878436145965949,7.692465065695942
31.0,75.14635643535262,152.55810785979986,0.2741846202223958,7.692465065695942
32.0,67.18305649810807,148.2235266174971,0.2608935439123985,7.692465065695942
33.0,59.7111177983203,143.34786271696072,0.24798857083409107,7.692465065695942
34.0,53.14111438898519,137.64848642380676,0.23257950713396194,7.768994154472559
35.0,50.56499710556363,127.65125353441286,0.18695599272433658,8.768991952487964
36.0,47.05897960937756,118.25060141380891,0.14918332025408498,9.768991183257198
37.0,43.00643245638631,109.42320038713697,0.11816167290596993,10.768990414026433
38.0,38.70418661528395,101.14555582914713,0.092891166764553,11.768989644795667
39.0,34.375078668224525,93.39411999476086,0.07247426503342867,12.768988875564903
40.0,30.179900653796643,86.1453902524714,0.05611507033825453,13.768988106334136
41.0,26.22847980862188,79.37600215005062,0.04311624115652448,14.768987337103372
42.0,22.589727764242983,73.06281677563193,0.03287398256546545,15.768986567872606
43.0,19.300558468997586,67.18300221531129,0.024871590016162983,16.768985798641843
44.0,16.373631589110232,61.71410900935886,0.01867199573254684,17.768985029411084
45.0,13.80388325377941,56.63413450355579,0.013909545536230998,18.76898426018033
46.0,11.574001504657591,51.92158915546121,0.010281987587718009,19.76898349094957
47.0,9.658782149929642,47.555547642894474,0.007542143494042593,20.76898272171881
48.0,8.02858683496518,43.515698678045155,0.005490173910624266,21.768981952488048
49.0,6.6519183508553255,39.78238260667154,0.003966204395997276,22.76898118325728
50.0,5.497337345253168,36.33662698362563,0.002843757066239759,23.768980414026515
51.0,4.5347704561007065,33.160173784296006,0.0020238388385787963,24.768979644795753
52.0,3.7363467805587978,30.235500148937508,0.001429780950944995,25.768978875564986
53.0,3.0768717325383728,27.545833572284305,0.0010028233465162895,26.76897810633422
54.0,2.5340240928938442,25.07516125770296,0.0006983918441552941,27.76897733710346
55.0,2.088353588044017,22.808233599115546,0.00048301049536541776,28.768976567872702
56.0,1.7231553309231948,20.73056443216869,0.00033179343086466224,29.76897579864194
57.0,1.4242510190121618,18.82842534267952,0.0002264176933229461,30.76897502941118
58.0,1.1797298811414942,17.088836459686203,0.00015352114766036895,31.768974260180418
59.0,0.9796732199765592,15.499553660748887,0.00010345030751070102,32.76897349094967
60.0,0.8158819082489867,14.049052571559844,6.929444744549396e-05,33.768972721718924
61.0,0.681619276414141,12.726509642150262,4.614995026710866e-05,34.76897195248818
62.0,0.5713780202316089,11.521781051256982,3.056744618863367e-05,35.76897118325744
63.0,0.4806736451680166,10.42537963195655,2.0140834777924198e-05,36.7689704140267
64.0,0.4058651764325988,9.428450116521104,1.3205269361967901e-05,37.76896964479595
65.0,0.34400249546162476,8.522743139174707,0.0,38.76896887556517
66.0,0.2926982567100435,7.700588413374515,0.0,39.76896810633439
67.0,0.25002142671606065,6.954867258869961,0.0,40.76896733710361
68.0,0.21440964600792936,6.278984716955856,0.0,41.768966567872866
69.0,0.18459803557763974,5.666841854812433,0.0,42.768965798642114
70.0,0.15956095480339882,5.112807768270519,0.0,43.76896502941136
71.0,0.13846552410936555,4.611692468016958,0.0,44.76896426018059
72.0,0.1206337361624469,4.158719650856198,0.0,45.768963490949815
73.0,0.10551280874989576,3.74950114238446,0.0,46.768962721719056
74.0,0.09265031147603835,3.380010640872727,0.0,47.768961952488304
75.0,0.08167522300784341,3.0465596402949116,0.0,48.76896118325756
76.0,0.07228227273649113,2.7457733491187444,0.0,49.7689604140268
77.0,0.06421962586329483,2.4745682789573404,0.0,50.768959644796034
78.0,0.05727904776329572,2.2301311263653028,0.0,51.76895887556527
79.0,0.05128770413279207,2.0098978360602007,0.0,52.7689581063345
80.0,0.04610178082138842,1.8115344005060485,0.0,53.76895733710372
81.0,0.041601325981441555,1.6329189028239985,0.0,54.76895656787295
82.0,0.03768592115299058,1.4721239946948355,0.0,55.76895579864217
83.0,0.03427130500144857,1.3274008977892733,0.0,56.768955029411394
84.0,0.031286621315883056,1.1971647619605899,0.0,57.76895426018062
85.0,0.028672098603364185,1.0799803783033284,0.0,58.76895349094985
86.0,0.02637719787811213,0.9745492519697888,0.0,59.768952721719074
87.0,0.024359090549488822,0.8796975307248454,0.0,60.76895195248831
88.0,0.022581380252175157,0.7943651529417097,0.0,61.76895118325754
89.0,0.0210130817689807,0.7175953004018268,0.0,62.76895041402678
90.0,0.019627772810794725,0.6485248638815567,0.0,63.76894964479602
91.0,0.018402862855858442,0.5863759354431778,0.0,64.76894887556524
92.0,0.017318958733141196,0.5304480359779076,0.0,65.76894810633446
93.0,0.016359480320800996,0.48011027906699605,0.0,66.76894733710368
94.0,0.015510122389167472,0.43479516834738174,0.0,67.7689465678729
95.0,0.014758587097850323,0.39399235188891085,0.0,68.76894579864212
96.0,0.014094328309604652,0.3572428275116341,0.0,69.76894502941134
97.0,0.013508152136333555,0.32413440934681803,0.0,70.76894426018056
98.0,0.012992202654260395,0.29429667064618187,0.0,71.76894349094978
99.0,0.012539680360017173,0.267396950269164,0.0,72.768942721719
100.0,0.012144658118985045,0.24313675351020939,0.0,73.76894195248822
101.0,0.011802107067921253,0.22124799298463826,0.0,74.76894118325744
102.0,0.01150763021200973,0.2014901723495481,0.0,75.76894041402666
103.0,0.011257463415863702,0.18364752643615295,0.0,76.76893964479589
104.0,0.01104838086395653,0.16752641927738374,0.0,77.76893887556511
105.0,0.010877589322056038,0.1529532513285846,0.0,78.76893810633435
106.0,0.01074278354466216,0.13977216312976223,0.0,79.76893733710357
107.0,0.0106419438671707,0.12784347110699973,0.0,80.7689365678728
108.0,0.010573465074930689,0.11704175261380054,0.0,81.76893579864202
109.0,0.010535943246507876,0.10725459825168572,0.0,82.76893502941125
110.0,0.010528331162202444,0.09838105614675585,0.0,83.76893426018047
111.0,0.01054972476886182,0.09033062935814865,0.0,84.7689334909497
112.0,0.010599529902386976,0.08302202333738014,0.0,85.76893272171893
113.0,0.01067725797447852,0.07638233382697697,0.0,86.76893195248816
114.0,0.010782706200771259,0.07034603744575633,0.0,87.7689311832574
115.0,0.010915713451337815,0.06485437029155489,0.0,88.76893041402663
116.0,0.011076363108359173,0.059854483515441086,0.0,89.76892964479586
117.0,0.011264854367604731,0.055298924388410886,0.0,90.7689288755651
118.0,0.011481493722758206,0.051145032331217866,0.0,91.76892810633434
119.0,0.011726775504223217,0.047354435406268124,0.0,92.76892733710358
120.0,0.012001228656400536,0.04389264635820725,0.0,93.76892656787281
121.0,0.01230549703288343,0.040728625989529164,0.0,94.31305506348149
122.0,0.012640471067934212,0.03783438732220229,0.0,94.313055063415
123.0,0.013006987990245156,0.03518477246396627,0.0,94.313055063415
124.0,0.013405944769001067,0.03275711691933165,0.0,94.313055063415
125.0,0.013838389595619872,0.03053096874033958,0.0,94.313055063415
126.0,0.014305422581090162,0.028487893844329114,0.0,94.313055063415
127.0,0.014808190684264365,0.026611256631125013,0.0,94.313055063415
128.0,0.015347882969572573,0.02488603861795678,0.0,94.313055063415
129.0,0.01590409072242799,0.023324150310795065,0.0019227876898228063,7.692873255472124
130.0,0.016522701922896742,0.021866358906477285,0.002023149878504435,7.692873255472124
131.0,0.017182311213558354,0.02052316887069661,0.002126549226011299,7.692873255472124
132.0,0.01788428004450274,0.019284571295211585,0.0022328465384673945,7.692873255472124
133.0,0.018629991824328916,0.018141502449345946,0.0023418850748361223,7.692873255472124
134.0,0.0194208364561459,0.017085751448646165,0.0024534914125612013,7.692873255472124
135.0,0.020258166516606235,0.01610987891127941,0.0025674766070255366,7.692873255472124
136.0,0.02114328829304282,0.015207139706631585,0.002683637462742067,7.692873255472124
137.0,0.02207744337365881,0.014371418083128695,0.0028017580082583715,7.692873255472124
138.0,0.023061824799385348,0.013597150376330174,0.002921611031635688,7.692873255472124
139.0,0.024097536013124754,0.012879284786831913,0.003042959828245261,7.692873255472124
140.0,0.025185581453494015,0.012213228551869572,0.003165560016775323,7.692873255472124
141.0,0.026326863020371846,0.01159480232381777,0.0032891614129470555,7.692873255472124
142.0,0.027522110385862938,0.011020203246226622,0.0034135100343632594,7.692873255472124
143.0,0.028771918794683167,0.010485965282175592,0.0035383499720466004,7.692873255472124
144.0,0.030076713548440902,0.009988928170723785,0.0036634253385840567,7.692873255472124
145.0,0.03143673336530145,0.009526208286439096,0.003788482149698364,7.692873255472124
146.0,0.03285201752071199,0.009095172140083973,0.0039132701311245036,7.692873255472124
147.0,0.034322389735646136,0.008693413192956235,0.004037544455098544,7.692873255472124
148.0,0.035847426002108676,0.008318730551054573,0.004161067327388659,7.692873255472124
149.0,0.037426467970003714,0.007969109129439385,0.0042836094700437945,7.692873255472124
150.0,0.039058600960398926,0.007642702574932792,0.004404951453761282,7.692873255472124
151.0,0.04074264512622218,0.007337817521668046,0.00452488487210764,7.692873255472124
152.0,0.04247716032057493,0.007052899161214659,0.004643213375012004,7.692873255472124
153.0,0.044260398895830964,0.0067865193602500255,0.004759753463259768,7.692873255472124
154.0,0.04609032514800643,0.006537376996321832,0.0048745791966547025,7.692200511164613
155.0,0.0479646487590516,0.006304277564323235,0.004987748481418593,7.6901799487395115
156.0,0.04988082718746439,0.0060860731147301655,0.005098504415386655,7.688512201296492
157.0,0.05183601890759832,0.005881717184354817,0.005206483182217539,7.6879386249806885
158.0,0.053827090511489435,0.005690240434403253,0.005311367546937482,7.689192296504059
159.0,0.05585064022712811,0.0055107421536162,0.00541287725237835,7.693027808693439
160.0,0.057903005675114,0.005342384683643497,0.0055107710060992065,7.700218331610222
161.0,0.059980263930295874,0.0051843883850927475,0.005604847634298267,7.711552219941183
162.0,0.062078252266468924,0.005035997197114438,0.005694587239039444,7.729100883460704
163.0,0.06419262148824585,0.004896544134849434,0.005780060788045891,7.75310096486657
164.0,0.066318789998112,0.004765426911320652,0.005861533413129903,7.783124009407934
165.0,0.06845204048262997,0.004642071803419598,0.00593910601498299,7.819342929107038
166.0,0.07058752925558155,0.0045259441373091645,0.00601288974840068,7.861929836450854
167.0,0.07272031978657195,0.004416546429298657,0.006083004311313404,7.911055700207087
168.0,0.07484545039368262,0.004313414623933412,0.006149575820230091,7.9668901457555386
169.0,0.07695794830200682,0.004216115983448571,0.006212735130421754,8.029601066190544
170.0,0.07905284600364458,0.004124246391315715,0.006272616367818298,8.09935429065602
171.0,0.08112523502822425,0.0040374299122678,0.006329355697932852,8.176313027911547
172.0,0.08317033958790719,0.003955315395583239,0.006383089784905851,8.260637762229456
173.0,0.08518351757183609,0.0038775747868902547,0.006433954920562257,8.352485839447697
174.0,0.08716027239814333,0.003803903357028107,0.006482086331314301,8.452010617472393
175.0,0.08909636874205328,0.003734016967327365,0.006527616846307485,8.559361436414536
176.0,0.09098779318875407,0.0036676499655411924,0.0065706767500329916,8.674683317101207
177.0,0.09283080493351636,0.0036045560915609195,0.006611393112792089,8.798115958597817
178.0,0.09462200271222225,0.0035445063528292933,0.006649888929004355,8.929793532002764
179.0,0.09635826457114702,0.0034872866228696413,0.006686283653852129,9.069844780635085
180.0,0.09803685800589068,0.0034326998398993788,0.006720692007200887,9.21839131882526
181.0,0.09965539814301257,0.0033805616975453308,0.006753224261258109,9.375548507385279
182.0,0.10121185434700254,0.003330701722284507,0.006783986397974063,9.541424425148342
183.0,0.10270462681689158,0.00328296293893044,0.006813078981522666,9.716118706144487
184.0,0.10413242046854744,0.0032371984023662113,0.00684059881706653,9.899724198334079
185.0,0.10549439661308446,0.0031932743562757522,0.006866637086755591,10.092323715953343
186.0,0.10679000989298819,0.0031510651329082753,0.006891281048322425,10.293992712656632
187.0,0.10801914603226917,0.003110457137732009,0.006914612892341971,10.504795992639178
188.0,0.10918195965886597,0.003071343444851226,0.006936710836264504,10.724790225458339
189.0,0.11027899414879744,0.0030336275627797435,0.006957648422787277,10.954021177702908
190.0,0.11131103561272025,0.0029972189459850722,0.006977495275936378,11.192525357766584
191.0,0.1122792146175036,0.0029620363032846343,0.006996316754869039,11.4403282221277
192.0,0.11318483860862213,0.002928002771897762,0.007014174883082833,11.697446142765797
193.0,0.11402952134583617,0.0028950499683110943,0.0070311272690842894,11.963883061596805
194.0,0.11481499504849049,0.0028631127764636396,0.00704722896551636,12.239634712186502
195.0,0.11554324707228496,0.002832133948281763,0.007062530421450317,12.524682538793112
196.0,0.11621633607004245,0.0028020585701133477,0.007077080578748362,12.819002579172297
197.0,0.1168364841022006,0.0027728378506167994,0.007090923701238485,13.12255404256161
198.0,0.11740598734113739,0.002744426198451099,0.0071041025482021436,13.435291170886385
199.0,0.1179272030221605,0.0027167815610615906,0.007116656459191503,13.757153471559775
200.0,0.11840254545526102,0.0026898660411993564,0.007128622405916333,14.08807225781925
201.0,0.11883443774406831,0.002663643444678174,0.007140035427888669,14.427968847632528
202.0,0.11922530537015931,0.002638081786664295,0.007150927491259636,14.776751992850786
203.0,0.11957756711514757,0.0026131502013329896,0.0071613295739819385,15.134325281140992
204.0,0.11989358879361015,0.002588821058556121,0.007171269595136949,15.500576911668418
205.0,0.12017570812229224,0.0025650681939961098,0.007180774556230945,15.87539183222911
206.0,0.12042619158235202,0.002541867332617397,0.007189869180575118,16.258640937449798
207.0,0.12064723125504459,0.0025191961399323474,0.007198576783241305,16.650189999270054
208.0,0.12084096624056524,0.0024970331339896072,0.0072069193848219,17.049894958535187
209.0,0.12100940008033367,0.0024753589868413074,0.007214917031052628,17.457602645832658
210.0,0.12115450506081121,0.0024541548005066363,0.007222589304826628,17.87315694087574
211.0,0.12127811509703332,0.0024334031525690015,0.007229953808231404,18.296387867216534
212.0,0.12138197482268935,0.0024130876254958825,0.007237027381932715,18.727124033139503
213.0,0.12146776952865622,0.0023931922362680717,0.007243825955366059,19.165184900975827
214.0,0.12153701302677666,0.0023737024201200873,0.007250363894809377,19.610382384919887
215.0,0.12159118788626856,0.0023546038714217818,0.007256655340426076,20.06252782535345
216.0,0.12163166569150696,0.002335882942570368,0.00726271319408902,20.52142080057306
217.0,0.12165968267102538,0.0023175269154869717,0.007268549414282334,20.986858448496154
218.0,0.12167645778420494,0.002299523154918329,0.007274175758332626,21.458635333680455
219.0,0.12168306731055105,0.0022818597731491925,0.007279602720234695,21.936535317587897
220.0,0.12168049334990945,0.0022645254629169577,0.007284840263411211,22.42034281051669
221.0,0.12166970629986906,0.0022475089479713807,0.00728989819075781,22.909839436493396
222.0,0.12165154671343659,0.002230799551113354,0.007294785203901508,23.404796374655255
223.0,0.12162677184787715,0.00221438707751341,0.00729950955834986,23.90498584846503
224.0,0.12159613024386735,0.0021982613530227603,0.007304079401826918,24.410178038246194
225.0,0.1215602659625362,0.002182412660172397,0.0073085020105596145,24.920133916630007
226.0,0.12151974995039451,0.002166831696697658,0.007312784250929728,25.434615055492134
227.0,0.12147514664076889,0.002151509176691823,0.007316932915610814,25.95338155556878
228.0,0.12142693921215783,0.002136436174205037,0.007320954108346611,26.47618523449678
229.0,0.12137554874962919,0.002121604128845473,0.007324853556950673,27.002777774365292
230.0,0.12132139148798134,0.0021070044948252103,0.007328636938354699,27.532909827704202
231.0,0.12126482225001234,0.002092629017867293,0.007332309384798787,28.066324355815034
232.0,0.1212061445658067,0.002078469771550989,0.0073358756834155025,28.602763106429254
233.0,0.12114565832650491,0.0020645188439033803,0.007339340585373214,29.141967115924317
234.0,0.12108361812726955,0.0020507685648774106,0.00734270841058003,29.6836699901931
235.0,0.12102023718062026,0.0020372115618616906,0.007345983161036519,30.22760263824425
236.0,0.12095572592758115,0.0020238404770531702,0.007349168812157169,30.773495456885463
237.0,0.12089026209981159,0.002010648156459256,0.007352268996940168,31.32107135863807
238.0,0.12082399071270555,0.001997627718418372,0.007355287053651999,31.87004859702852
239.0,0.12075705463083357,0.001984772296748125,0.007358226299456971,32.420144992033606
240.0,0.12068957353465555,0.0019720751982269364,0.007361089778410925,32.971070536475764
241.0,0.12062164169372008,0.001959529979378061,0.007363880258647641,33.522528034121635
242.0,0.12055335167738052,0.0019471302129215236,0.0073666004898966,34.07421980339162
243.0,0.12048477989401463,0.0019348696189228172,0.007369253002602553,34.625839733225014
244.0,0.12041598332182454,0.001922742146153142,0.007371840065388087,35.17707131517
245.0,0.12034701757480742,0.001910741760174037,0.007374363929089745,35.727597351893905
246.0,0.12027792717311517,0.0018988625516801344,0.007376826666825213,36.277091385382334
247.0,0.12020874199042435,0.0018870988195983643,0.0073792300988839215,36.82521253535367
248.0,0.12013949079516618,0.0018754448800831975,0.007381576026705717,37.37161884126968
