Time,J,A,S,tau
0.0,100.0,10.0,0.7138645119099156,14.451565618514815
1.0,116.56851211275448,16.170146458404975,0.7029502239388863,13.31960014833216
2.0,145.83593287230366,21.836784066642377,0.6916521304812887,12.152264821086336
3.0,186.00317987319002,27.014756752781615,0.6799812921666398,10.9493767438184
4.0,235.28629042885674,31.719898856044935,0.6679496052240409,9.710700076601892
5.0,291.9359589159183,35.96864694219437,0.6555705062966253,8.436012912112048
6.0,354.2562406999165,39.77796874449694,0.6428589539103582,7.125108081570487
7.0,418.0103691822493,49.432858824142244,0.6353820439660355,6.425202234611075
8.0,503.6704576441547,71.91408467227895,0.6329828034557615,6.318563146565971
9.0,636.230030509138,102.24098381491915,0.6305978419330754,6.2149519454795525
10.0,829.3937098514405,138.68327905906992,0.6282283660674879,6.114290677742122
11.0,1091.3193122826656,179.62500302324958,0.6258755432631805,6.016504212489304
12.0,1425.1613720670073,223.57572697318355,0.6235405046582501,5.921520050089268
13.0,1827.540948043191,273.40612039093713,0.6212243477758599,5.829268158435156
14.0,2306.8729595249238,350.84655256014923,0.6189281386907675,5.739680824402723
15.0,2920.510565178747,469.18832827313724,0.6166529141191445,5.652692532487429
16.0,3746.3579640483827,635.3186073588269,0.6143996831092212,5.568239853555274
17.0,4866.357669507117,851.4664389875403,0.6121694285289736,5.486261347871471
18.0,6354.459723463978,1116.043783710974,0.6099631083595546,5.406697479823658
19.0,8264.110592729765,1436.6994263525012,0.6077816568172066,5.3294905421690215
20.0,10659.546511906163,1856.2906867453698,0.6056259852791833,5.254584587113719
21.0,13689.348478548729,2433.605714879876,0.6034969831265601,5.18192536608263
22.0,17601.959979299834,3227.580866127015,0.6013955184347153,5.11146027401044
23.0,22726.06321556774,4287.37310119106,0.5993224385661011,5.043138299099146
24.0,29429.29328401342,5651.457871259751,0.5972785706706671,4.976909976558612
25.0,38079.11751045856,7389.982055008751,0.595264722116502,4.912727346199145
26.0,49110.000804055606,9646.535908832073,0.5932816808345613,4.850543912782492
27.0,63152.791681998955,12633.649265383077,0.5913302156089899,4.790314608916609
28.0,81124.46567358873,16604.99959320958,0.5894110763274252,4.731995760706273
29.0,104238.440943442,21823.648671544986,0.5875249941749404,4.675545054919857
30.0,133934.88307666112,28584.944080316905,0.5856726817981311,4.620921508190832
31.0,171869.62403077615,37309.21903100675,0.5838548334296315,4.56808543730931
32.0,220074.68470061812,48617.62968755178,0.5820721249911477,4.5169984310989255
33.0,281214.84184169467,63345.60013873729,0.5803252141721185,4.46762332342445
34.0,358798.4205262419,82501.6646324258,0.5786147404881644,4.419924167182289
35.0,457235.37170869345,107265.86517449895,0.5769416813264732,4.373861146561282
36.0,581942.5648618846,138923.548270979,0.5750564576634892,4.3329207697766465
37.0,739063.6543400658,178856.02431213384,0.5725224970338169,4.303015217944123
38.0,935460.956954138,229059.75526276787,0.5693431515257349,4.283762735486086
39.0,1179428.9665333126,291919.08769215853,0.5655330908813474,4.274693625583581
40.0,1480730.0093801573,370368.2135211736,0.5612242652982431,4.2738135111600855
41.0,1851067.7390763802,468633.4913820693,0.5569495406540813,4.2738135111600855
42.0,2305566.8650011136,590960.3546068792,0.5527766123936104,4.2738135111600855
43.0,2861688.375800373,742333.7462967858,0.5487086544859338,4.2738135111600855
44.0,3539611.607866107,928654.4672467244,0.5447487290159013,4.2738135111600855
45.0,4362499.292737122,1157176.9545208665,0.5408997845118428,4.2738135111600855
46.0,5357568.0520741325,1436931.1147290505,0.537164654690581,4.2738135111600855
47.0,6557390.957523387,1778328.5632947583,0.5335460575910018,4.2738135111600855
48.0,8000244.436130877,2193381.0234829225,0.5300465950735512,4.2738135111600855
49.0,9730637.186307145,2695984.6219107658,0.526668752671834,4.2738135111600855
50.0,11799853.899996458,3302581.0558474194,0.523414899755028,4.2738135111600855
51.0,14267436.076187715,4032718.772224127,0.5202872900069876,4.2738135111600855
52.0,17202992.928170994,4909276.845663157,0.517288062171559,4.2738135111600855
53.0,20687877.62622011,5958792.233490773,0.5144192410430243,4.2738135111600855
54.0,24816887.67435342,7211959.594871324,0.5116827386770354,4.2738135111600855
55.0,29700014.050881237,8704529.740938652,0.5090803557838032,4.2738135111600855
56.0,35465099.80887617,10478315.1108746,0.5066137832572659,4.2738135111600855
57.0,42261317.30286948,12582132.274663107,0.5042846039035019,4.2738135111600855
58.0,50262930.95407291,15072817.915383214,0.5020942942039693,4.2738135111600855
59.0,59673816.250066236,18016449.9381091,0.5000442261385927,4.2738135111600855
60.0,70732670.10035999,21489989.950675383,0.49813566913024687,4.2738135111600855
61.0,83719044.2184713,25583338.52634026,0.4963697919281345,4.2738135111600855
62.0,98961327.92637555,30401675.68238787,0.49474766447404045,4.2738135111600855
63.0,116846008.22530738,36068143.59089272,0.49327025982520895,4.2738135111600855
64.0,137829028.7162756,42727050.74842654,0.491938455854126,4.2738135111600855
65.0,162449524.33871448,50547739.00698709,0.49075303706252343,4.2738135111600855
66.0,191346051.03275013,59729440.65279546,0.4897146960691875,4.2738135111600855
67.0,225276687.50946918,70507047.25609303,0.4888240351832517,4.2738135111600855
68.0,265143977.9856805,83158113.3203118,0.48808156763775346,4.2738135111600855
69.0,312024473.63109076,98011243.69856282,0.48748771883723857,4.2738135111600855
70.0,367206735.31610835,115456315.49257512,0.48704282727989834,4.2738135111600855
71.0,432235038.6085054,135957075.91032904,0.4867471454219495,4.2738135111600855
72.0,508967571.43450236,160066416.7250558,0.4866008402449462,4.2738135111600855
73.0,599642510.9190931,188445368.4563291,0.4866039936990986,4.2738135111600855
74.0,706967857.8527703,221885964.66187602,0.4867566028885968,4.2738135111600855
75.0,834222785.1116242,261340026.04211947,0.4870585800755945,4.2738135111600855
76.0,985396958.1137007,307953878.2605656,0.48750975247384704,4.2738135111600855
77.0,1165348171.7913089,363112542.0788435,0.4881098618145769,4.2738135111600855
78.0,1380020282.7793179,428493118.5592474,0.48885856375677045,4.2738135111600855
79.0,1636692103.0138195,506133219.9110195,0.48975542703529795,4.2738135111600855
80.0,1944321477.2275016,598513932.6317692,0.4907999325143144,4.2738135111600855
81.0,2313943550.8789635,708666884.3245045,0.491991471956559,4.2738135111600855
82.0,2759219319.784819,840304818.1830375,0.49332934676392376,4.2738135111600855
83.0,3297081405.8625503,997991014.9226018,0.49481276642453886,4.2738135111600855
84.0,3948618108.210705,1187347338.8449955,0.49644084700115637,4.2738135111600855
85.0,4740134234.880721,1415325310.5380044,0.49821260932915157,4.2738135111600855
86.0,5704592050.3803625,1690541696.441866,0.5001269773283731,4.2738135111600855
87.0,6883376109.483836,2023717309.510792,0.5021827760402257,4.2738135111600855
88.0,8328669693.597626,2428225245.9854856,0.5043787298515253,4.2738135111600855
89.0,10106427736.104677,2920809762.818523,0.5067134604719165,4.2738135111600855
90.0,12300304753.64223,3522497126.393198,0.5091854851497765,4.2738135111600855
91.0,15016843967.149357,4259775244.5093803,0.5117932147761641,4.2738135111600855
92.0,18392059120.11216,5166130831.000907,0.5145349521129308,4.2738135111600855
93.0,22600228378.344196,6284036153.751668,0.5174088901267244,4.2738135111600855
94.0,27865409913.57783,7667543515.365203,0.5204131104463613,4.2738135111600855
95.0,34476638770.8912,9385675712.270071,0.5235455819801832,4.2738135111600855
96.0,42808034394.113335,11526871311.962921,0.5268041597227175,4.2738135111600855
97.0,53345466998.60149,14204841293.302824,0.5301865837782728,4.2738135111600855
98.0,66721951336.887634,17566310599.403667,0.5336904786236786,4.2738135111600855
99.0,83765464291.25433,21801222501.716686,0.5373133526789967,4.2738135111600855
100.0,105562370667.87006,27156353780.870033,0.5410525981323063,4.2738135111600855
101.0,133542587695.38301,33953457382.55349,0.544905491114739,4.2738135111600855
102.0,169594734815.9954,42613480478.74558,0.5488691922301083,4.2738135111600855
103.0,216221873349.27396,53689069438.17743,0.5529407474392577,4.2738135111600855
104.0,276752010411.84216,67908320530.41177,0.557117089330629,4.2738135111600855
105.0,355624201758.53986,86233799988.57458,0.5613950388159881,4.2738135111600855
106.0,458808897644.8633,109899182705.02902,0.5656919117378794,4.27483677352456
107.0,594270152952.1129,140173890074.19772,0.5694453022230371,4.284147824138137
108.0,771904074790.395,178830637763.76743,0.572551464937282,4.30322352969165
109.0,1004547877734.7667,228182146334.03183,0.5750146376184538,4.332202873886291
110.0,1308920050635.04,291175238254.5756,0.5768471602531758,4.371163022457183
111.0,1706601663330.4934,372213471292.2539,0.5784437892626195,4.415064531489029
112.0,2227286771519.2725,476866703765.8192,0.5800719476121016,4.460392121368972
113.0,2910417549735.3555,611824979633.0747,0.5817308255471206,4.507169057143208
114.0,3807377496244.116,785655748453.9165,0.583419680555328,4.555418069977919
115.0,4985042532440.192,1009335281222.6123,0.5851377564995744,4.60516243108116
116.0,6530309557414.371,1297438197151.592,0.5868842838564999,4.656425945882577
117.0,8557407793743.131,1669153322140.2644,0.588658479954458,4.709232947987797
118.0,11216769356355.04,2149038078128.122,0.590459549208733,4.763608292946781
119.0,14705416376492.33,2768469655049.907,0.5922866833517548,4.8195773518861325
120.0,19280209418270.86,3567495897461.07,0.5941390616557397,4.877166005067503
121.0,25274637068606.92,4597473954288.273,0.5960158511448898,4.936400635448045
122.0,33121017839997.125,5924724449194.062,0.5979162067939615,4.997308122334387
123.0,43379851684487.766,7634564264093.193,0.5998392717096754,5.059915835239267
124.0,56776697095699.05,9836209105305.34,0.6017841772910699,5.124251628069682
125.0,74248099317474.31,12668886406917.621,0.6037500433645036,5.190343833797735
126.0,96998554239014.72,16309487297498.365,0.6057359782885935,5.2582212597903215
127.0,126571030494087.9,20982509278076.574,0.6077410790239176,5.327913184001786
128.0,164935089059649.84,26972711599709.11,0.6097644311618302,5.3994493522650036
129.0,214596723587989.12,34640590132183.555,0.6118051089062175,5.472859976951306
130.0,278733655074374.8,44441177437369.6,0.613862175001469,5.548175737308613
131.0,361360339822280.06,56946797300067.23,0.6159346805977712,5.625427781791271
132.0,467526185125342.5,72874590246287.42,0.6180216650538055,5.704647732974288
133.0,603553688390898.5,93119961610964.4,0.6201221556518475,5.7858676951467745
134.0,777320771683982.1,118797298828448.69,0.6222351672323632,5.869120265382353
135.0,998594249959882.6,151289054258638.38,0.6243597017323586,5.954438548667198
136.0,1279421962964669.0,192304247590323.34,0.6264947476109367,6.041856177579462
137.0,1634588000114208.5,243947484307998.4,0.628639279157696,6.13140733726914
138.0,2082131756985143.8,308799861457293.44,0.6307922556786795,6.223126796927102
139.0,2643943768810025.5,390012759931123.9,0.6329526205146101,6.3170499477856215
140.0,3346421479327475.5,491416633277258.44,0.6351192999255916,6.413212849888782
141.0,4221203360345248.0,617645728601403.8,0.6372912017778243,6.511652287378157
142.0,5305954376998036.0,774281121402371.0,0.6394672140592377,6.612405835120786
143.0,6645211767553170.0,968011885514486.9,0.6416462031790889,6.715511936553543
144.0,8291275333494134.0,1206815648641738.8,0.6438270120356704,6.821009995065412
145.0,1.030511491142697e+16,1500158531683860.0,0.6460084578465185,6.928940480690672
146.0,1.2757272543500526e+16,1859213482624164.2,0.6481893297149115,7.039345053654632
147.0,1.572871906408919e+16,2297096012428923.5,0.6503683859190039,7.152266707037269
148.0,1.9311653622708436e+16,2829114925776583.5,0.6525443508784939,7.267749930239721
149.0,2.36101677278159e+16,3473035804905523.5,0.6547159118079047,7.385840896280355
150.0,2.8740730092039524e+16,4249353740190462.0,0.6568817150219434,7.506587675479218
151.0,3.483244541056604e+16,5181568937156530.0,0.6590403618791568,7.6300404777352995
152.0,4.2027038566016056e+16,6296459736786974.0,0.6611904043232765,7.75625192695715
153.0,5.047849251042806e+16,7624345007036585.0,0.663330340016313,7.885277370945646
154.0,6.035228595879233e+16,9199324668572986.0,0.6654586070708731,8.017175228805367
155.0,7.182415842593317e+16,1.1059491298691202e+16,0.667573578331095,8.1520073815076
156.0,8.507848097259349e+16,1.3247096896205196e+16,0.6696735551560955,8.289839608101511
157.0,1.0030591244121182e+17,1.5808666297161402e+16,0.6717567608538623,8.430742070903461
158.0,1.177008932748762e+17,1.879503438411232e+16,0.6738213335118777,8.574789852069436
159.0,1.374580888228542e+17,2.2261316564009184e+16,0.6758653184836967,8.722063554783098
160.0,1.5976889318750928e+17,2.6266764515659492e+16,0.6778866603907718,8.872649953412509
161.0,1.8481704418202458e+17,3.0874530708568696e+16,0.6798831946962064,9.02664271963135
162.0,2.1277431437560854e+17,3.615129776761284e+16,0.6818526389009386,9.184143205322613
163.0,2.437953746479379e+17,4.216679821209456e+16,0.6837925834163316,9.345261308079998
164.0,2.7801325651284986e+17,4.89931720361871e+16,0.6857004821770389,9.510116391369115
165.0,3.1553399865458464e+17,5.670420846019823e+16,0.687573643041719,9.678838299283983
166.0,3.5643232561127635e+17,6.537441770851167e+16,0.6894092181427627,9.851568423305865
167.0,4.007470240853309e+17,7.507798735294696e+16,0.6912041946370909,10.028460830238682
168.0,4.4847660501960096e+17,8.588759816189827e+16,0.6929553849343454,10.20968352094922
169.0,4.995773624674564e+17,9.787308326677464e+16,0.6946594183469739,10.395419631529194
170.0,5.53959071202201e+17,1.1110006255755818e+17,0.6963127326508535,10.585868833453347
171.0,6.114851215370985e+17,1.2562842720449707e+17,0.6979115677932515,10.781248578458941
172.0,6.719719476252918e+17,1.4151074270164211e+17,0.699451958832722,10.981795591445584
173.0,7.35188185628779e+17,1.5879076310718672e+17,0.7009297331060137,11.187767204470713
174.0,8.008584295078433e+17,1.775018114587763e+17,0.7023405081220984,11.399442661338618
175.0,8.686657278031514e+17,1.9766529546238845e+17,0.7036796924548262,11.617124409760759
176.0,9.382558625659973e+17,2.1928929419967686e+17,0.7049424897012145,11.84113927571927
177.0,1.0092426720512563e+18,2.4236727000563997e+17,0.7061239059068091,12.071839518022696
178.0,1.0812137070649106e+18,2.6687699538228016e+17,0.7072187617056622,12.309603686651748
179.0,1.1537374329476214e+18,2.927797088521085e+17,0.7082217093660785,12.554837158242535
180.0,1.2263706856592448e+18,3.2001952994272666e+17,0.7091272550508341,12.807972387794543
181.0,1.2986666261317105e+18,3.4852318416127066e+17,0.7099297869097687,13.069468744958236
182.0,1.3701820097056973e+18,3.7820004755533216e+17,0.7106236097837233,13.339812028442445
183.0,1.440485439928358e+18,4.0894259053605325e+17,0.7112029865284653,13.619513249634434
184.0,1.5091648369634862e+18,4.40627159766786e+17,0.7116621860595568,13.909106917099525
185.0,1.5758334651328975e+18,4.7311519523752224e+17,0.7119955394675394,14.209148739379874
186.0,1.640136727802099e+18,5.062547719639502e+17,0.7121975012623181,14.520212426987316
187.0,1.701757016931765e+18,5.398825150473954e+17,0.7122627177655877,14.842885877136426
188.0,1.7604177710547643e+18,5.7382583597811706e+17,0.7121861006457975,15.17776655678488
189.0,1.815886407462098e+18,6.0790543687232e+17,0.7119629046445382,15.52545612778122
190.0,1.8679760908626683e+18,6.419380218395547e+17,0.7115888079794167,15.886554353222724
191.0,1.9165463446176717e+18,6.757391451004589e+17,0.7110599935749434,16.26165235758004
192.0,1.9615025363600425e+18,7.091261314262464e+17,0.7103732289757775,16.65132534867567
193.0,2.0027943286097782e+18,7.419209753507597e+17,0.7095259424249546,17.056124950802605
194.0,2.040413300386065e+18,7.739531260329903e+17,0.7085162928226254,17.47657126625902
195.0,2.0743895374803569e+18,8.050620713381687e+17,0.7073432314152884,17.913145107646617
196.0,2.1047879963354593e+18,8.350996653965404e+17,0.7060065491558134,18.366280258891216
197.0,2.1317042063763395e+18,8.63932196313722e+17,0.7045069203272853,18.836356073401262
198.0,2.1552597113938365e+18,8.914418923358957e+17,0.7028459138600787,19.323691229136614
199.0,2.175597554299213e+18,9.175283558673181e+17,0.7010260122085178,19.82853725456623
200.0,2.1928773925775962e+18,9.421089517655493e+17,0.699050577266912,20.351075352137446
201.0,2.2072712153434657e+18,9.651189598918802e+17,0.6969238217911423,20.89141413329161
202.0,2.2189596912956923e+18,9.865129227669969e+17,0.6946508201483608,21.44958131565996
203.0,2.2281276631284887e+18,1.0062619375682764e+18,0.6922373430020917,22.025532678794278
204.0,2.2349613920677307e+18,1.0243540601216822e+18,0.689689854798396,22.619148111555344
205.0,2.2396453015821243e+18,1.0407938210707914e+18,0.6870154276657332,23.23023035314458
206.0,2.2423600588809196e+18,1.0555989898780535e+18,0.6842215884657278,23.858517736397285
207.0,2.2432801734266568e+18,1.0688006173597388e+18,0.6813162786800453,24.503681465202806
208.0,2.2425724085312458e+18,1.0804410716949462e+18,0.6783077206973811,25.165332340975123
209.0,2.2403955618934449e+18,1.0905715143618922e+18,0.6752043117460407,25.843032150410185
210.0,2.2368984593107587e+18,1.0992513307471428e+18,0.6720145402516766,26.536294213953113
211.0,2.2322201821881434e+18,1.1065458993079008e+18,0.6687468729294805,27.244593801612986
212.0,2.2264904917801336e+18,1.1125249531137988e+18,0.6654096922260478,27.967376563572387
213.0,2.2198278891889073e+18,1.1172615867963927e+18,0.6620111734156955,28.70406203586034
214.0,2.2123424181458798e+18,1.1208305653383674e+18,0.6585592772590125,29.45405429890041
215.0,2.1730027941029294e+18,1.0311588446038504e+18,0.655061640280445,30.216745788464788
216.0,2.1306385104671892e+18,9.36775073714331e+17,0.6515255532050539,30.99152426017108
217.0,2.0902493651088026e+18,8.51930792233379e+17,0.6479579148990685,31.777778207168033
218.0,2.0517223944624067e+18,7.7558627755754e+17,0.6443652062468743,32.57490147089893
219.0,2.0149485409907282e+18,7.068238353329711e+17,0.6407534732155081,33.38229732203643
220.0,1.97982302533203e+18,6.448332376856183e+17,0.6371283144548092,34.19938198823776
221.0,1.9462455725396137e+18,5.888970303818088e+17,0.6334948804240912,35.02558743093499
222.0,1.914120577317461e+18,5.383804601123109e+17,0.6298578758067813,35.86036365836352
223.0,1.8833571810110756e+18,4.9272016329929056e+17,0.6262215679049593,36.70318046005403
224.0,1.8538692626864046e+18,4.5141627216810765e+17,0.6225898010503796,37.553528593727876
225.0,1.825575414379145e+18,4.1402447693476486e+17,0.6189660107114953,38.41092071390937
226.0,1.79839881061285e+18,3.8014925634830765e+17,0.6153532454263957,39.27489164587332
227.0,1.7722671107602563e+18,3.494382106166767e+17,0.611754184755755,40.14499866561316
228.0,1.74711226534904e+18,3.215770251797663e+17,0.6081711641337,41.020821168192775
229.0,1.7228703657089708e+18,2.962849418687322e+17,0.6046061952444971,41.90196042906807
230.0,1.6994814205555308e+18,2.7331099631902576e+17,0.6010609912912033,42.788038874465485
231.0,1.6768891781026255e+18,2.524305752550515e+17,0.5975369879270614,43.67869949287304
232.0,1.6550409023287283e+18,2.3344268039486733e+17,0.5940353669026015,44.573604911622574
233.0,1.6338871613847872e+18,2.1616674004490077e+17,0.5905570779448528,45.47243644901447
234.0,1.613381640265675e+18,2.0044095427798698e+17,0.5871028583916774,46.374893244274155
235.0,1.5934809133633508e+18,1.861199257424978e+17,0.5836732547833716,47.280691087297285
236.0,1.5741442663476298e+18,1.73072795692481e+17,0.5802686405026897,48.18956147581507
237.0,1.555333503796452e+18,1.611820715969143e+17,0.5768892338032058,49.101250545862456
238.0,1.5370127567673958e+18,1.5034188867205664e+17,0.5735351150760035,50.01551795220805
239.0,1.5191483237883459e+18,1.4045679670193842e+17,0.5702062415652308,50.93213590628493
240.0,1.501708502603276e+18,1.3144089196687104e+17,0.5669024621013097,51.85088812834836
