Time,J,A,S,tau
0.0,100.0,10.0,0.8466579685679458,1.9743304394642438
1.0,60.921384161405264,31.09567468084986,0.6425044449028227,1.8548863533079023
2.0,53.69496250498116,34.54426807251514,0.5204533417420678,1.7636663139968705
3.0,51.87697828841911,31.87099855938188,0.520544687160086,1.7636663139968705
4.0,47.64660439445864,33.37587020052977,0.5207070470273834,1.7636663139968705
5.0,46.41830119805379,33.07059797915141,0.5209403383220315,1.7636663139968705
6.0,45.12039055322146,33.362315351031974,0.5212444429248946,1.7636663139968705
7.0,44.500233961493,33.60017496360131,0.5216192076290996,1.7636663139968705
8.0,44.243953083812464,33.850907617218226,0.5220644441442678,1.7636663139968705
9.0,44.24559065838142,34.18360671852517,0.5225799291049283,1.7636663139968702
10.0,44.49434789923063,34.55506722864995,0.5231654040895618,1.76366631399687
11.0,44.93115941324238,34.997765559754086,0.5238205757074833,1.7636663139968702
12.0,45.54729656938936,35.512610247313404,0.5245451153721767,1.7636663139968705
13.0,46.332040497368986,36.11103661955938,0.5253386596745027,1.7636663139968702
14.0,47.286607235405796,36.80362601529701,0.5262008102438109,1.7636663139968705
15.0,48.41751193637263,37.60201378503859,0.5271311337053065,1.7636663139968705
16.0,49.73651966217618,38.51961293961474,0.5281291619103615,1.7636663139968705
17.0,51.26030742904169,39.571273756676774,0.5291943919757612,1.7636663139968705
18.0,53.01051239817322,40.77377399807751,0.5303262863619199,1.7636663139968707
19.0,55.01319345835413,42.14641774990281,0.531524272869339,1.763666313996871
20.0,57.30000270064617,43.711163770956176,0.5327877448855579,1.763666313996871
21.0,59.90858934864121,45.49338907313048,0.5341160615906446,1.7636663139968707
22.0,62.88302875678698,47.52257779367355,0.5355085478600342,1.7636663139968707
23.0,66.27423957392357,49.83343411758668,0.5369644947346919,1.7636663139968707
24.0,70.14460260577778,52.46596561645461,0.5384831594604554,1.7636663139968705
25.0,74.56565927617198,55.4679355082124,0.5400637658013806,1.7636663139968705
26.0,79.62552473198998,58.894804367139706,0.541705504301132,1.7636663139968707
27.0,85.4271221292647,62.812972448747935,0.5434075326186202,1.7636663139968707
28.0,92.09291405485371,67.30153175864467,0.545168975764894,1.7636663139968707
29.0,99.77141570769766,72.45459565723583,0.5469889265877121,1.7636663139968705
30.0,108.64162797920372,78.38508636981088,0.548866446144553,1.7636663139968705
31.0,118.92039332749401,85.22889362955688,0.5508005641339236,1.7636663139968705
32.0,130.8704566754431,93.15052363959273,0.5527902793963354,1.7636663139968707
33.0,144.8128079826634,102.34942012803332,0.5548345604452131,1.7636663139968707
34.0,161.1400322610424,113.06895818568486,0.5569323460347596,1.7636663139968707
35.0,180.33618591939683,125.60682265066188,0.5590825457865126,1.7636663139968707
36.0,203.0014877184826,140.3284289775565,0.5612840408416272,1.7636663139968707
37.0,229.87950158461737,157.68559158954076,0.5635356845648719,1.7636663139968707
38.0,261.89920460575775,178.23798748584449,0.5658363032907368,1.7636663139968707
39.0,300.22263618887627,202.6836435082934,0.5681846971194326,1.7636663139968707
40.0,346.31203759497123,231.89658832307495,0.5705796407651048,1.7636663139968707
41.0,402.02914647351554,266.97334006042456,0.5730198844392065,1.763666313996871
42.0,469.7292941171081,309.3027570689524,0.5755041547716889,1.7636663139968711
43.0,552.4345482687655,360.6455281995124,0.5780311557987567,1.7636663139968713
44.0,654.0147531022368,423.25181091511143,0.5805995699733031,1.7636663139968713
45.0,779.4758166840269,500.0064679061463,0.5832080592315427,1.7636663139968713
46.0,935.3286300685238,594.6267829762851,0.5858552660957256,1.7636663139968713
47.0,1130.0619352992596,711.9338456011238,0.5885398148165423,1.7636663139968713
48.0,1374.8204424724224,858.2081119258496,0.5912603125558891,1.7636663139968713
49.0,1684.3114470469948,1041.6780543205707,0.5940153506057221,1.7636663139968713
50.0,2078.037256210235,1273.1860960882643,0.5968035056415575,1.7636663139968713
51.0,2582.0681602506215,1567.0855610185608,0.5996233410098808,1.7636663139968713
52.0,3231.3880638604346,1942.4979174473963,0.6024734080425262,1.7636663139968713
53.0,4073.199787368428,2425.0421309056264,0.6053522474028655,1.7636663139968713
54.0,5171.640406877812,3049.2230938133002,0.6082583904537764,1.7636663139968713
55.0,6614.290796426825,3861.804351142627,0.6111903606485167,1.7636663139968713
56.0,8521.406165094313,4926.534868962296,0.6141466749425798,1.7636663139968713
57.0,11059.415350890506,6330.783601717893,0.6171258452182243,1.7636663139968713
58.0,14459.626536904234,8195.07491512609,0.6201263797250072,1.7636663139968713
59.0,19045.6683112055,10686.62504711903,0.6231467845283596,1.7636663139968713
60.0,25273.08163251307,14038.844561836224,0.6261855649646728,1.7636663139968713
61.0,33787.02352913454,18579.53048293571,0.6292412270992126,1.7636663139968713
62.0,45506.4794746987,24771.90568275897,0.6323122791837545,1.7636663139968713
63.0,61749.951936941696,33274.41117055568,0.6353972331088371,1.7636663139968713
64.0,84419.2481567981,45029.02947388053,0.6384946058502037,1.7636663139968713
65.0,116275.61736336586,61391.58154240917,0.6416029209026165,1.7636663139968713
66.0,161353.07773748323,84325.81373545848,0.6447207097004856,1.7636663139968713
67.0,225581.6733794316,116693.78658886514,0.6478465130190415,1.7636663139968713
68.0,317735.6372025494,162692.85245400306,0.6509788823555049,1.7636663139968713
69.0,450873.45243392617,228518.03962120903,0.654116381285182,1.7636663139968713
70.0,644565.0359912202,323368.9876068419,0.6572575867890282,1.7636663139968713
71.0,928311.990761547,460994.9506996225,0.6604010905515912,1.7636663139968713
72.0,1346872.1873211886,662073.9770616144,0.6635455002244953,1.7636663139968713
73.0,1968579.1431310496,957900.6776395312,0.6666894406532022,1.7636663139968713
74.0,2898418.801153031,1396136.4438676597,0.6698315550644289,1.7636663139968713
75.0,4298704.668064953,2049826.44005718,0.6729705062116336,1.7636663139968713
76.0,6421957.328354568,3031623.911591041,0.6761049774761132,1.7636663139968713
77.0,9663458.697558718,4516364.287061497,0.6792336739217946,1.7636663139968713
78.0,14645984.346940828,6777068.931296311,0.6823553233002349,1.7636663139968713
79.0,22356635.593789075,10242779.625480732,0.6854686770069545,1.7636663139968713
80.0,34369758.037645176,15591896.258515783,0.6885725109842977,1.7636663139968713
81.0,53211783.83344411,23903763.01824807,0.6916656265709681,1.7636663139968713
82.0,82961893.85444865,36906240.491629146,0.6947468512966167,1.7636663139968713
83.0,130246532.70046073,57382353.432497546,0.6978150396203827,1.7636663139968713
84.0,205895330.41202,89842059.5886137,0.700869073612499,1.7636663139968713
85.0,327713684.4821599,141638282.07791296,0.703907863578312,1.7636663139968713
86.0,525150281.92707574,224831578.6057376,0.7069303486242382,1.7636663139968713
87.0,847204012.4792935,359322310.84667933,0.7099354971647068,1.7636663139968713
88.0,1375880668.3479905,578142853.9195153,0.7129223073714169,1.7636663139968713
89.0,2249227522.393311,936447364.9283311,0.7158898075636048,1.7636663139968713
90.0,3700978983.597902,1526865557.8505788,0.7188370565400822,1.7636663139968713
91.0,6129146384.650781,2505871961.8852773,0.7217631438537728,1.7636663139968713
92.0,10215342289.170296,4139312265.398982,0.7246671900288503,1.7636663139968713
93.0,17133424899.770855,6881426382.839002,0.7275483467213375,1.7636663139968713
94.0,28916217725.54032,11512740761.554527,0.7304057968244143,1.7636663139968713
95.0,49103440770.68423,19381949783.42985,0.7332387545193932,1.7636663139968713
96.0,83892368644.64857,32832383444.86951,0.7360464652730885,1.7636663139968713
97.0,144191379715.5865,55957791549.607414,0.7388282057834301,1.7636663139968713
98.0,249302349336.24112,95948641263.81035,0.7415832838749328,1.7636663139968713
99.0,433561724993.74176,165501837018.14688,0.7443110383446578,1.7636663139968713
100.0,758363442098.2957,287156102776.85065,0.7470108387613563,1.7636663139968713
101.0,1334042068737.0715,501129004598.14825,0.7496820852191278,1.7636663139968713
102.0,2359886908989.368,879552663393.7694,0.752324208047197,1.7636663139968713
103.0,4197646881651.206,1552455068811.4163,0.7549366674779063,1.7636663139968713
104.0,7507174177108.398,2755401097584.349,0.7575189532750205,1.7636663139968713
105.0,13497887331177.934,4917254461056.981,0.7600705843241775,1.7636663139968713
106.0,24397006129188.58,8822580740689.83,0.7625911081873771,1.7636663139968713
107.0,44325222515220.305,15913525097855.367,0.7650801006238783,1.7636663139968713
108.0,80941431510159.67,28853436951263.08,0.7675371650795619,1.7636663139968713
109.0,148545171473902.8,52583735975230.42,0.7699619321465739,1.7636663139968713
110.0,273952807532670.03,96314140410726.67,0.7723540589956022,1.7636663139968713
111.0,507672807692166.44,177286372867574.62,0.7747132287829687,1.7636663139968713
112.0,945245677939899.1,327920998814659.3,0.7770391500344275,1.7636663139968713
113.0,1768152965076102.8,609443301230755.1,0.7793315560077311,1.7636663139968713
114.0,3322535937333157.0,1137966188140783.2,0.7815902040362692,1.7636663139968713
115.0,6271294024575405.0,2134610895081920.0,0.7838148748555237,1.7636663139968713
116.0,1.1888952353347054e+16,4022194324937279.0,0.7860053719144885,1.7636663139968713
117.0,2.2635516508730068e+16,7612439224901882.0,0.7881615206739281,1.7636663139968713
118.0,4.327720182268504e+16,1.4469804018477202e+16,0.790283167893361,1.7636663139968713
119.0,8.308288371165133e+16,2.762110784176323e+16,0.7923701809086297,1.7636663139968713
120.0,1.6014350875220586e+17,5.2944502738995416e+16,0.7944224469018325,1.7636663139968713
121.0,3.098949465088798e+17,1.0189756638719722e+17,0.7964398721653291,1.7636663139968713
122.0,6.019898884654913e+17,1.9689370826362563e+17,0.7984223813614854,1.7636663139968713
123.0,1.173804570652854e+18,3.8193286138601184e+17,0.8003699167797567,1.7636663139968713
124.0,2.2971896036167442e+18,7.436894269145311e+17,0.802282437592639,1.7636663139968713
125.0,4.511854627557177e+18,1.4534764188818852e+18,0.8041599191119392,1.7636663139968713
126.0,8.892697559294802e+18,2.851010417371517e+18,0.8060023520467582,1.7636663139968713
127.0,1.7587145402338157e+19,5.612119836562038e+18,0.8078097417645055,1.7636663139968713
128.0,3.4898291664605626e+19,1.1085505668654914e+19,0.8095821075561755,1.7636663139968713
129.0,6.94742431405857e+19,2.197090261393694e+19,0.811319481907078,1.7636663139968713
130.0,1.3874536502848687e+20,4.368856262556757e+19,0.8130219097741175,1.7636663139968713
131.0,2.77941003465305e+20,8.715233225969898e+19,0.8146894478706518,1.7636663139968713
132.0,5.584586516776774e+20,1.743997698037785e+20,0.8163221639598873,1.7636663139968713
133.0,1.125378940098368e+21,3.500523808116065e+20,0.8179201361577069,1.7636663139968713
134.0,2.27426650983039e+21,7.047023490454575e+20,0.8194835453568844,1.763665315038125
135.0,4.608847522905504e+21,1.420512459864855e+21,0.8208344204230782,1.7655871557337661
136.0,9.35347677234046e+21,2.8631101154242713e+21,0.8218287683260304,1.771046410146398
137.0,1.8993114594315432e+22,5.778451917902408e+21,0.8227120407177908,1.7774329767173644
138.0,3.86029616174919e+22,1.167270086474929e+22,0.8235770782074112,1.783739986655768
139.0,7.85138343418401e+22,2.359921761364866e+22,0.824423806704972,1.7899645387836012
140.0,1.5979874002724447e+23,4.7754420546079874e+22,0.8252521671796854,1.7961036272826962
141.0,3.2544748163462984e+23,9.670670061685448e+22,0.8260621049721684,1.802154258440779
142.0,6.631975974905185e+23,1.959893196714372e+23,0.8268535696047794,1.8081134530874836
143.0,1.3522147938383813e+24,3.97473997210799e+23,0.8276265145933747,1.8139782490706886
144.0,2.7584640034348815e+24,8.066243681543865e+23,0.8283808972606939,1.8197457037707157
145.0,5.629787801904035e+24,1.6379536534024754e+24,0.8291166785515718,1.8254128966496956
146.0,1.149482951321477e+25,3.3279881248893177e+24,0.8298338228501724,1.8309769318332645
147.0,2.347918398905523e+25,6.76544343681714e+24,0.8305322977994283,1.8364349407214937
148.0,4.797537643521941e+25,1.376033503188556e+25,0.8312120741228757,1.841784084625846
149.0,9.806052894673867e+25,2.8000478727406127e+25,0.8318731254490531,1.847021557428689
150.0,2.004919779164679e+26,5.700217940327676e+25,0.8325154281386419,1.8521445882617398
151.0,4.100283295056961e+26,1.1608971060636275e+26,0.8331389611145111,1.8571504441996103
152.0,8.387503702848663e+26,2.36515564863205e+26,0.8337437056948261,1.862036432964394
153.0,1.7160983524723885e+27,4.820338993488129e+26,0.8343296454293818,1.8667999056371127
154.0,3.5118138150327975e+27,9.827343493692734e+26,0.8348967659393081,1.8714382593716108
155.0,7.187710788393514e+27,2.0041253567525815e+27,0.8354450547602984,1.875948940106335
156.0,1.4713301903740857e+28,4.088217306423433e+27,0.8359745011895025,1.8803294452692614
157.0,3.012183522633666e+28,8.341693523054188e+27,0.8364850961362238,1.8845773264710783
158.0,6.167317648855621e+28,1.7024607365375782e+28,0.8369768319765521,1.8886901921815287
159.0,1.2628369408239008e+29,3.4753187375067506e+28,0.8374497024120682,1.8926657103837838
160.0,2.5859929732436832e+29,7.0957688448375555e+28,0.8379037023327448,1.8965016112015294
161.0,5.2957819349144956e+29,1.4490545288838454e+29,0.8383388276841681,1.9001956894933565
162.0,1.084550341758422e+30,2.9596760155643586e+29,0.8387550753391982,1.9037458074089713
163.0,2.2211652649500375e+30,6.046054664765887e+29,0.8391524429741853,1.9071498969016447
164.0,4.5490290293509434e+30,1.2352736829168284e+30,0.8395309289498518,1.9104059621912457
165.0,9.316629388162962e+30,2.5241361285866346e+30,0.8398905321969541,1.91351208217227
166.0,1.908082913979129e+31,5.158417766563702e+30,0.8402312521068216,1.9164664127611821
167.0,3.9077831407843572e+31,1.0543153295222309e+31,0.8405530884268805,1.9192671891774267
168.0,8.003047096842364e+31,2.1551195049847633e+31,0.8408560411612533,1.921912728152535
169.0,1.638963394358358e+32,4.405710760584797e+31,0.8411401104765313,1.924401430061708
170.0,3.356368967570657e+32,9.007446941159973e+31,0.8414052966128062,1.926731780972473
171.0,6.873130944384633e+32,1.8417310175883297e+32,0.84165159980005,1.9289023546050745
172.0,1.4074151724538698e+33,3.766061560221261e+32,0.8418790201799174,1.9309118141993844
173.0,2.8818479751260566e+33,7.701646974892205e+32,0.8420875577330538,1.9327589142833126
174.0,5.900650942906506e+33,1.575118914417399e+33,0.8422772122119728,1.9344425023378387
175.0,1.2081136708161895e+34,3.221628391680683e+33,0.8424479830795795,1.9359615203540002
176.0,2.473397297691376e+34,6.589749808186054e+33,0.8425998694533939,1.937315006277483
177.0,5.063578366652081e+34,1.3480096755255745e+34,0.8427328700555378,1.9385020953366692
178.0,1.0365691547772026e+35,2.7577003517752704e+34,0.842846983168535,1.9395220212502755
179.0,2.121855585318756e+35,5.641968620705022e+34,0.8429422065969733,1.9403741173110614
180.0,4.3432010977177875e+35,1.1543658782470468e+35,0.8430185376350672,1.9410578173423245
181.0,8.889564284723999e+35,2.3620294368841683e+35,0.8430759730401668,1.9415726565243039
182.0,1.8193963540274174e+36,4.8334362260166884e+35,0.8431145090122355,1.9419182720880086
183.0,3.723491622683254e+36,9.891346929277889e+35,0.843134141179329,1.9420944038743
184.0,7.619905731364723e+36,2.024340386702435e+36,0.8431348645890929,1.9421008947564615
185.0,1.5592829017597071e+37,4.1432414862087865e+36,0.843116673706294,1.9419376909249098
186.0,3.190628220172922e+37,8.480578464594704e+36,0.8430795624163974,1.9416048420329919
187.0,6.528347115036419e+37,1.7359575030076236e+37,0.843023524035191,1.9411025012033818
188.0,1.3356900768504586e+38,3.5537007749047257e+37,0.8429485513244547,1.9404309248949352
189.0,2.7326444858994472e+38,7.275292194098719e+37,0.8428546365136688,1.939590472630249
190.0,5.590298440243735e+38,1.4895235541382258e+38,0.842741771327747,1.9385816065846342
191.0,1.1435641813944978e+39,3.0497980206490613e+38,0.8426099470207717,1.9374048910375596
192.0,2.3391541050527246e+39,6.244832349897384e+38,0.8424591544157131,1.9360609916880305
193.0,4.7844132036912304e+39,1.278779050418775e+39,0.8422893839500947,1.934550674835842
194.0,9.78517596499217e+39,2.6187500542423385e+39,0.842100625727575,1.9328748064309607
195.0,2.0011378765927947e+40,5.3630878835482117e+39,0.8418928695753977,1.9310343509936643
196.0,4.0921528569097853e+40,1.0983894927166008e+40,0.8416661051076677,1.9290303704084701
197.0,8.3674060607816665e+40,2.2496574780924903e+40,0.8414203217943966,1.9268640225950824
198.0,1.7107689004383674e+41,4.607789690866203e+40,0.8411555090362643,1.9245365600600823
199.0,3.4974403507654365e+41,9.438052786078462e+40,0.8408716562450262,1.9220493283333033
200.0,7.149313112609354e+41,1.9332256969670117e+41,0.8405687529295074,1.9194037642931177
201.0,1.46126688747976e+42,3.9599492099420796e+41,0.8402467887871,1.916601394385117
202.0,2.986357232562561e+42,8.111472091581232e+41,0.839905753800692,1.9136438327389056
203.0,6.102337718012736e+42,1.6615308546336885e+42,0.8395456383409413,1.9105327791878877
204.0,1.2467741034289545e+43,3.403384343958037e+42,0.8391664332738084,1.907270017197189
205.0,2.5468925992217405e+43,6.971112948120335e+42,0.8387681300732533,1.9038574117050036
206.0,5.201858810144492e+43,1.427828137576247e+43,0.8383507209389999,1.9002969068827253
207.0,1.062245294301645e+44,2.924327958438195e+43,0.8379141989192649,1.896590523819411
208.0,2.1687128993882643e+44,5.988880416880553e+43,0.837458558038346,1.892740358136121
209.0,4.426723132611625e+44,1.2263858901333466e+44,0.8369837934289549,1.8887485775357822
210.0,9.033522887003749e+44,2.5110912285526046e+44,0.8364899014691835,1.884617419294301
211.0,1.8429656201513635e+45,5.14094492048326e+44,0.8359768799239793,1.8803491876986016
212.0,3.758830951595412e+45,1.0523474306805402e+45,0.8354447280910078,1.8759462514372744
213.0,7.663962770354487e+45,2.153778603763478e+45,0.8348934469507718,1.871411040949501
214.0,1.5620964497233332e+46,4.407151799636347e+45,0.8343230393208504,1.8667460457378071
215.0,3.182762960198151e+46,9.016097689304486e+45,0.8337335100141248,1.8619538116502192
216.0,6.482315022827828e+46,1.844041700407494e+46,0.833124866000843,1.8570369381372562
217.0,1.3196902684659322e+47,3.770522483046118e+46,0.8324971165743776,1.8519980754891003
218.0,2.6854427680927437e+47,7.707213375306259e+46,0.8318502735205238,1.8468399220581548
219.0,5.461940753344684e+47,1.5748671786801542e+47,0.8311843512901768,1.8415652214720764
220.0,1.1103238111845826e+48,3.2168147306234895e+47,0.8304993671752281,1.8361767598422012
221.0,2.2558358420246493e+48,6.567919032591566e+47,0.8297953414875108,1.8306773629721729
222.0,4.5803986160221837e+48,1.3403937448780766e+48,0.8290722977406194,1.825069893571402
223.0,9.294348749917588e+48,2.734149488821964e+48,0.828330262834426,1.819357248477782
224.0,1.8846719093864657e+49,5.574153922229675e+48,0.8275692672421068,1.8135423558939547
225.0,3.8188620981590105e+49,1.1357513166473037e+49,0.8267893451994845,1.8076281726411865
226.0,7.732021988740311e+49,2.312677187229955e+49,0.8259905348964915,1.8016176814347709
227.0,1.5641977870761067e+50,4.706014543501834e+49,0.8251728786705483,1.7955138881846764
228.0,3.161603918324879e+50,9.569210608526867e+49,0.8243364232016468,1.7893198193249606
229.0,6.384359872476844e+50,1.9442888423101164e+50,0.8234812197089205,1.7830385191752753
230.0,1.2879452640477019e+51,3.947150062827477e+50,0.8226073241484794,1.7766730473376124
231.0,2.5955086255007458e+51,8.006101582386536e+50,0.8217150403284996,1.7702237891358894
232.0,5.225091137429907e+51,1.620473776814477e+51,0.8206746702623331,1.7651177251366728
233.0,1.0496146660656611e+52,3.2666506954122626e+51,0.8192711635163155,1.7636660490676075
234.0,2.101474555346529e+52,6.566932465307562e+51,0.8177005955523357,1.7636661871300627
235.0,4.194825964148536e+52,1.3162781288510287e+52,0.8160951918481129,1.7636661871300627
236.0,8.346543080176678e+52,2.629981949706886e+52,0.814454846892055,1.7636661871300627
237.0,1.655283013850255e+53,5.238635362398563e+52,0.8127794774824071,1.7636661871300627
