Time,J,A,S,tau
0.0,100.0,10.0,0.6196048371805468,30.141321033497924
1.0,101.71713296312218,11.277044788194672,0.6183914297513284,31.01163444907527
2.0,103.8231628692547,12.483748889377885,0.6171654774947594,31.88650143470302
3.0,106.28026554593679,13.625421560424574,0.6159289061033383,32.765470332342055
4.0,109.05507752970048,14.706728304959258,0.6146832043501557,33.64822487325929
5.0,112.11817224332218,15.732048593318785,0.613429724829351,34.534465448526696
6.0,115.44364711143173,16.70549642309301,0.6121696941775635,35.42390790763459
7.0,119.00879808977002,17.630937224043738,0.6109042220327112,36.31628251167843
8.0,122.7937878531241,18.51200709852338,0.609634310873262,37.21133277130356
9.0,126.78139666711517,19.35212793854521,0.6083608643630053,38.108814464449935
10.0,130.95674898998917,20.154525813107597,0.6070846969188689,39.0084944911743
11.0,135.30712550300157,20.922244293697165,0.605806541288617,39.91014996805793
12.0,139.82173713785497,21.658162077551857,0.6045270578483933,40.81356709453001
13.0,144.4915689144145,22.365006019450284,0.6032468418998443,41.718540258314576
14.0,149.3092346475601,23.045364573107747,0.6019664312568287,42.62487109441867
15.0,154.26885769081338,23.70169940378325,0.6006863128359907,43.532367654896866
16.0,159.3659425262381,24.336359219470424,0.5994069303531662,44.44084342725851
17.0,164.59723677265774,24.951594454755668,0.5981286919315495,45.35011635599552
18.0,169.96071714332075,25.549563157619165,0.5968519746740888,46.260008232862894
19.0,175.45549241963064,26.13234389156604,0.5955771317468982,47.1703437538707
20.0,181.08171059975083,26.701948416922306,0.5943044990983304,48.0809496229775
21.0,186.8405335347252,27.260329622691668,0.5930344004895404,48.99165386274435
22.0,192.7341519177707,27.80938944336211,0.5917671536524001,49.902284928805074
23.0,198.76564302069548,28.350993112359046,0.5905030761096526,50.812670941086076
24.0,204.93903749051051,28.886974077833067,0.589242490245831,51.72263893058081
25.0,211.25934481565398,29.419144236120992,0.5879857307917848,52.63201374131727
26.0,217.73239246247508,29.949303613249718,0.5867331466992816,53.540617825450646
27.0,224.36504589737407,30.479248209577733,0.5854851118240862,54.44826959514993
28.0,231.1650678190903,31.01077861333228,0.5842420265951964,55.3547832293314
29.0,238.14117275085692,31.545708048263926,0.5830043241354381,56.259967753232196
30.0,245.3031824192942,32.08587394368156,0.5817724812528193,57.163625358749435
31.0,252.66185185102523,32.63313948653512,0.5805470145097765,58.065552045348156
32.0,260.22914998176867,33.18941199979926,0.5793284982051895,58.96553485617209
33.0,268.0181961610526,33.756642963493945,0.5781175621732052,59.86335222743285
34.0,276.04328949883853,34.33683869236926,0.5769148984890183,60.75877297358624
35.0,284.32021779892057,34.932076670806424,0.5757212780104053,61.65155372877493
36.0,292.86604272406646,35.544497635366994,0.5745375396357439,62.541440609406294
37.0,301.6994851737788,36.17633495174533,0.5733646161374404,63.42816522900213
38.0,310.840951789419,36.8299075314868,0.5722035290405874,64.31144545906515
39.0,320.31252036634294,37.5076309460592,0.5710553940956975,65.19098459019132
40.0,330.13848506122537,38.212040504718914,0.5699214449420963,66.06646761896815
41.0,340.34506101471584,38.945772074999354,0.5688030139009149,66.93756419783817
42.0,350.9609300081846,39.71160135584126,0.5677015645897739,67.80392352728056
43.0,362.0174073520468,40.512429937427996,0.5666186840297647,68.66517548140747
44.0,373.548340210371,41.351293601864306,0.5655560838570819,69.52093038272115
45.0,385.5910259549059,42.231390891951165,0.5645156297715725,70.37077420949964
46.0,398.1857856438455,43.15605082235695,0.5634993122728941,71.21427309899504
47.0,411.37675887876594,44.128778681867196,0.5625092822027364,72.05096751906275
48.0,425.2121485972925,45.153227004699815,0.5615478328304081,72.88037485525987
49.0,439.7444218784153,46.233206901261696,0.5606174044386768,73.70198843256831
50.0,455.0309043076127,47.37269584767755,0.5597205903811995,74.51527611893408
51.0,471.1343128110706,48.57582602725818,0.5588601297786185,75.3196810021294
52.0,488.1229361576402,49.84687358089568,0.5580388961047508,76.11462276445799
53.0,506.07123724008164,51.19025913155343,0.5572598947204271,76.8994973524403
54.0,525.0607572851433,52.61053257059861,0.5565262516469822,77.67367780843205
55.0,545.1803059092056,54.11234793590891,0.5558411902372763,78.43651729323736
56.0,566.5264954381644,55.700450987627754,0.555208015221418,79.18735053665432
57.0,589.2048509807428,57.37964856488015,0.5546300880026712,79.92549632648279
58.0,613.3302145778631,59.154777815477225,0.5541107949897744,80.65026123645292
59.0,639.0274560664931,61.03066965456129,0.5536535129089667,81.3609435617468
60.0,666.4321781583658,63.01210808319262,0.5532615695203756,82.05683780436179
61.0,695.6914313681749,65.10378478177145,0.5529381993858461,82.7372397384215
62.0,726.9645215161979,67.31024675267565,0.5526864921478066,83.40145226372121
63.0,760.423757371514,69.63583954455609,0.5525093383559,84.04879169702319
64.0,796.2550314576285,72.08465067871262,0.55240937284642,84.67859430117691
65.0,834.6584402138745,74.66045022497507,0.5523889152519752,85.29022305303833
66.0,875.8488520252843,77.36663018056517,0.5524499087424056,85.8830745478919
67.0,920.0564678605884,80.20613996737221,0.5525938532280944,86.45658635660106
68.0,967.5273323624507,83.18142411912046,0.5528217422613667,87.01024393343329
69.0,1018.5234741566112,86.2943703209179,0.5531340072906568,87.543586588298
70.0,1073.3230158488288,89.54625969767534,0.5535304629946434,88.05621309430224
71.0,1132.220153933034,92.93772311775282,0.5540102577680541,88.54778652891441
72.0,1195.524984392777,96.46870175263257,0.5545718261348149,89.0180386052256
73.0,1263.5632429691289,100.13841505988431,0.555212848863842,89.46677289661142
74.0,1336.67555663503,103.94535078390491,0.5559302337712709,89.89386570130802
75.0,1415.216532558514,107.8872606078836,0.5567200999216279,90.29926622941025
76.0,1499.553670999489,111.96116520988572,0.5575777709747778,90.68299559703262
77.0,1590.066019096818,116.16336824921592,0.5584977759145034,91.04514477939173
78.0,1687.1426084541667,120.48947709438977,0.5594738556471792,91.38587161312459
79.0,1791.1805159145165,124.93444419158507,0.5604989930010754,91.70539551541508
80.0,1902.58260937154,129.49261255014932,0.561565444477444,92.00399189726873
81.0,2021.7551291752998,134.15776477738146,0.5626647767969775,92.2819860687741
82.0,2149.1049925583425,138.92317659883022,0.5637879082593695,92.53974666847913
83.0,2285.0367211373823,143.7816720119602,0.5649251509535421,92.77767885054766
84.0,2429.9492177167194,148.72568460827466,0.5660662654898144,92.99621676474408
85.0,2584.232233513828,153.74731903880544,0.5672005150976632,93.19581636693844
86.0,2748.262672203092,158.83840757910085,0.568316716879966,93.37694869290465
87.0,2922.4006806883344,163.9905640636713,0.5694032925476551,93.54009347863611
88.0,3106.9854275841794,169.19523444672114,0.5704483177084317,93.68573316623997
89.0,3302.3302021710238,174.4437437919648,0.5714395669209233,93.81434727259582
90.0,3508.7182502993332,179.72733665522543,0.5723645673999469,93.92640756307352
91.0,3726.3999578537637,185.03721274881588,0.5732106450897823,94.02237486879844
92.0,3955.583746792975,190.36456591859752,0.5739649475307438,94.10269373137155
93.0,4196.434500694076,195.70058674181328,0.5746145039922903,94.16779106123275
94.0,4449.068495350928,201.0365283959734,0.5751462467710459,94.21807344898717
95.0,4709.676595505218,214.38143193149816,0.5828563735664428,88.7350948720657
96.0,4993.705534455632,244.52532182265094,0.5955407774448309,79.73695674560814
97.0,5332.173474940698,288.6581005903499,0.6097897195247189,69.74949626141755
98.0,5752.773398140291,340.70622221036643,0.6223662225601466,60.9256200317205
99.0,6272.161027028695,395.8911352002303,0.6315183797241192,54.198645800789784
100.0,6898.249520803038,452.7005344334999,0.6373987187648189,49.2514228021368
101.0,7636.17553264254,511.24683847874417,0.6407062050393482,45.54932366875796
102.0,8491.198844152408,572.0708823960305,0.6420615707417919,42.69364529671373
103.0,9469.474737297627,635.7492359895539,0.641916372722711,40.42513921272519
104.0,10578.121513419395,702.8042757000094,0.6405880859814085,38.576835707839
105.0,11825.103851984835,773.6959957431503,0.6383021982653472,37.03858516170008
106.0,13219.08861489441,848.8301140480365,0.6352226698862118,35.73534926461487
107.0,14769.297252526374,928.5669429075679,0.6314718602020539,34.61438634916806
108.0,16485.361601841356,1013.2275409711749,0.6271434771450732,33.63754137908959
109.0,18377.161014065154,1103.0974134106934,0.6223109827468964,32.77653556509206
110.0,20454.684933443546,1198.4272810345792,0.6170333305879686,32.009915909346056
111.0,22727.85803264456,1299.432661495962,0.6113587439049731,31.321129527119773
112.0,25206.33449448987,1406.2930913573434,0.6053274744695606,30.697177352200384
113.0,27899.349835741275,1519.1488401950803,0.5989737130457033,30.12770563462923
114.0,30815.480237262396,1638.0986368646734,0.5923269669704512,29.604375773352817
115.0,33962.427706262555,1763.1965698409715,0.5854131023022234,29.12039788777942
116.0,37346.772731227626,1894.4489056312202,0.5782551112349206,28.670195730880355
117.0,40973.79477701913,2031.8107030776653,0.5708737100438381,28.249148242060212
118.0,44847.1600796962,2175.1828691214137,0.5632877724194156,27.853409086470553
119.0,48968.75140606992,2324.4099744314626,0.5555147029152359,27.479749517545947
120.0,53338.37287480581,2479.279581420936,0.5475707136242837,27.125446936282533
121.0,57953.29222279979,2639.5108432995776,0.5394709969536458,26.788215905641433
122.0,62806.344902523466,2813.408969368372,0.5312299698854374,26.466095537301495
123.0,67920.36514254121,3031.1114040072384,0.5228613521823805,26.15742669198938
124.0,73397.63271348472,3316.949162387232,0.5143783088973185,25.86079188192749
125.0,79393.82021236897,3679.9390359836448,0.5057935316474137,25.57497869319909
126.0,86075.7159723794,4121.361875099249,0.4971193093114917,25.298948229959823
127.0,93602.80295722488,4641.703800199072,0.48836758388081764,25.031808771254788
128.0,102124.83436841912,5242.313417993616,0.47954999429325273,24.7727939596089
129.0,111782.90541646798,5925.359970185997,0.47067790987117447,24.521244301351285
130.0,122710.06814467175,6693.5416969930975,0.461762455739061,24.27659153620298
131.0,135031.08947584903,7549.81214965788,0.45281453007423333,24.038345704702905
132.0,148861.9144776542,8497.144321591404,0.44384481576308643,23.80608363734622
133.0,164307.86602064082,9538.331531094518,0.43486378711254964,23.579439678923382
134.0,181462.25216497408,10675.804747604372,0.42588171187541857,23.358097231093357
135.0,200404.1764480842,11911.46365906412,0.4169086484821309,23.141782016866696
136.0,221196.13046770717,13246.522308881253,0.40795444189879476,22.93025598366214
137.0,243881.87141517212,14681.362318552143,0.3990287149566801,22.723312141243078
138.0,268486.16864226427,16215.421308871906,0.3901408569001967,22.52076964736701
139.0,295002.02615639794,17847.024858475907,0.3813000278238336,22.322472052118588
140.0,323404.83510582364,19573.37583592607,0.3725151233023873,22.128280790604222
141.0,353640.86194597883,21390.410674766186,0.36379476750122103,21.938074722423263
142.0,385626.4866300085,23292.787541639216,0.35514730985564413,21.751747025894325
143.0,419249.5279999751,25273.892952672817,0.3465807956501679,21.56920312048835
144.0,454363.9105321828,27337.761508225696,0.33810296620017494,21.390358941061592
145.0,490831.6330727907,29530.043361337874,0.32972123082325416,21.215139297697828
146.0,528625.8672827336,31925.649267604607,0.3214426642119839,21.04347666437758
147.0,567878.5492621844,34599.36091262108,0.3132739908569631,20.875310012343515
148.0,608854.6780977203,37615.18925784679,0.3052215738160401,20.71058384910606
149.0,651908.4581417742,41026.63787695608,0.29729140397025305,20.549247393462075
150.0,697444.594377273,44878.2575301581,0.2894890910462409,20.39125386689718
151.0,745879.9941108741,49213.25470349436,0.2818353122676716,20.235379725659936
152.0,797662.7566635523,54043.54782849965,0.274293963756045,20.08471301922947
153.0,853134.360177786,59350.53747323817,0.2668028785271044,19.944192438177605
154.0,912519.386331924,65132.36481794068,0.2593679046450869,19.813536350305696
155.0,975954.721430658,71378.16204045994,0.2519949189171588,19.692472828400238
156.0,1043472.8087747907,78068.13133207397,0.24468981546136526,19.580739125993443
157.0,1115014.3943238135,85174.00113860624,0.23745845667842475,19.478080810739716
158.0,1190406.394973708,92659.32166937602,0.23030667419780995,19.384251487126345
159.0,1269366.4392463379,100480.09362793276,0.22324023882566768,19.299012258322993
160.0,1351506.6562511418,108585.49063301108,0.21626483441364716,19.222131319238432
161.0,1436340.4142362291,116918.72271486679,0.2093860315359322,19.153383584963397
162.0,1523292.059356035,125418.00792482284,0.20260926074984098,19.092550353795477
163.0,1611708.331654294,134019.31305669015,0.19593978578311752,19.03941899983398
164.0,1700873.1268133016,142672.228114891,0.189382676976643,18.993782691024563
165.0,1790054.7919020313,151359.711534427,0.18294278552638563,18.955440129412942
166.0,1878582.629545704,160097.0339716043,0.17662471855724265,18.92419531008505
167.0,1965906.3912818427,168918.92022174134,0.1704328154832514,18.899857296337036
168.0,2051622.02032538,177867.59474148272,0.16437112354006744,18.8822400112005
169.0,2135468.6715769926,186984.38443703015,0.15844338545266434,18.871162039525387
170.0,2217320.938551815,196281.6420052824,0.1526373943116561,18.86771380730392
171.0,2297070.848115149,205857.2568614492,0.14700561137297768,18.86771380730392
172.0,2374873.336180703,215789.92129240607,0.14158864745654032,18.86771380730392
173.0,2450988.0288776485,226084.43909949163,0.13638364435935263,18.86771380730392
174.0,2525681.471677122,236732.3963977536,0.13138736160915043,18.86771380730392
175.0,2599193.4787895726,247712.52064519597,0.12659626770393614,18.86771380730392
176.0,2671721.970599269,258989.69569111738,0.12200655874317001,18.86771380730392
177.0,2743421.8393428074,270518.5492074905,0.11761414793217688,18.86771380730392
178.0,2814385.7357243374,282243.301246899,0.11341474778455171,18.86771380730392
179.0,2884643.33268856,294099.83187969716,0.10940389582562414,18.86771380730392
180.0,2954162.7276913803,306017.4788506844,0.10557698462989974,18.86771380730392
181.0,3022855.589123803,317920.9111323989,0.10192929342302388,18.86771380730392
182.0,3090581.32888117,329732.28891616367,0.09845601339248065,18.86771380730392
183.0,3157155.05742572,341375.0140473544,0.09515228042740019,18.86771380730392
184.0,3222359.046350548,352780.17787507223,0.09201320245568996,18.86771380730392
185.0,3285961.493448282,363892.5174667736,0.08903388494675722,18.86771380730392
186.0,3347735.992372889,374673.2676653943,0.08620945110516505,18.86771380730392
187.0,3407499.173007657,385099.5685987175,0.08353507503089963,18.86771380730392
188.0,3465121.9351468952,395162.97201932967,0.08100599575487062,18.86771380730392
189.0,3520515.7881224537,404863.5179496381,0.07861752134717183,18.86771380730392
190.0,3573715.3645078046,414214.89494102116,0.0763650971473663,18.86771380730392
191.0,3624744.617272173,423246.7023688075,0.07424423898013165,18.86771380730392
192.0,3673787.549957498,431991.27147623117,0.07225063051638361,18.86771380730392
193.0,3721035.6739569805,440482.2460252647,0.07038007770307082,18.86771380730392
194.0,3766783.530443592,448750.1723017108,0.06862854692868454,18.86771380730392
195.0,3811341.153688898,456823.8330438715,0.0669921692109737,18.86771380730348
196.0,3855051.070657113,464728.8387589287,0.06546724633122061,18.867713807296088
197.0,3898299.3440035093,472485.3242392372,0.06404991332104049,18.867754737792794
198.0,3950615.1825850597,464616.18089407944,0.05853751968703411,19.383502924394794
199.0,3980811.9139664723,442996.44647417543,0.05012959156615819,20.383435705381075
200.0,3976343.129577381,422367.6678910423,0.042914824559215296,21.383433817886143
201.0,3944187.2960692253,402689.79563799023,0.036729269967669426,22.383431931093668
202.0,3890234.068483028,383922.39796037273,0.031429928709515276,23.38343004430124
203.0,3819427.5413361564,366026.45482724614,0.02689273991413302,24.383428157508813
204.0,3735896.377649877,348964.33425378124,0.023010287935773473,25.383426270716388
205.0,3643070.5693461145,332699.7604851454,0.019689692607142893,26.38342438392396
206.0,3543781.8277887027,317197.7871338694,0.016850786217857665,27.383422497131534
207.0,3440351.9327170923,302424.769362008,0.014424487238098763,28.383420610308875
208.0,3334670.67643817,288348.24635405187,0.012351307170426144,29.383433873309095
209.0,3227382.519091019,276053.013668102,0.01088765215884582,30.169836744022184
210.0,3121666.6003815704,268346.3711862302,0.010676028961047346,30.172811829806868
211.0,3023959.529857053,261077.06546767562,0.010494999181330272,30.172811828390014
212.0,2933911.168529074,254216.31457856114,0.010339294996616046,30.172811828389964
213.0,2851168.1310644476,247751.11707777547,0.010208124920768018,30.172811828389964
214.0,2775399.784434893,241668.8919313182,0.010100818895486837,30.172811828389964
215.0,2706295.580660842,235957.70957087033,0.010016831620946834,30.172811828389964
216.0,2643560.3893976538,230606.50125214513,0.009955736034319675,30.172811828389964
217.0,2586920.350562758,225605.24188004658,0.009917219743812693,30.172811828389964
218.0,2536136.063464322,220945.17070763092,0.009901084666627856,30.172811828389964
219.0,2490982.805207255,216618.90885767006,0.009907251699596229,30.172811828389964
220.0,2451258.1237598737,212620.42775708446,0.00993575027292193,30.172811828389964
221.0,2416798.726188817,208945.32255893602,0.009986723333652494,30.172811828389964
222.0,2387455.5408854084,205590.9438068389,0.010060437424823543,30.172811828389964
223.0,2363112.2593722693,202556.09086051656,0.010157256027721875,30.172811828389964
224.0,2343686.2911560605,199841.61355413636,0.01027768823078963,30.172811828389964
225.0,2329119.868275594,197449.55999995294,0.010422331050667318,30.172811828389964
226.0,2319388.8171812505,195383.98143505034,0.010591932130659612,30.172811828393293
227.0,2314497.025373905,193650.33090219743,0.010787351011509618,30.172809309484155
228.0,2243889.1529334495,358960.82841217454,0.06385113784790546,18.86815186304689
229.0,2509451.7081061588,367539.62964289734,0.06525693355688718,18.867745154541
230.0,2766389.3808551547,375755.7197694089,0.06676614335473176,18.867745155287363
231.0,3016688.59302254,383700.71783364087,0.06838626701255889,18.867745155287363
232.0,3262212.757846253,391452.410203346,0.07012097381027803,18.867745155287363
233.0,3504715.6043712134,399085.49357433536,0.0719741064445445,18.867745155287363
234.0,3745861.5559454155,406672.14334518183,0.07394967296281335,18.867745155287363
235.0,3987244.8386743646,414282.5820922307,0.076051837047957,18.867745155287363
236.0,4230408.834691737,421985.66269706545,0.07828490752497495,18.867745155287363
237.0,4476863.524196212,429849.4765749248,0.08065332588797068,18.867745155287363
238.0,4728100.457519882,437941.97346255375,0.08316165134903056,18.867745155287363
239.0,4985610.418311521,446331.6074106673,0.08581454710920781,18.867745155287363
240.0,5250898.227776336,455088.0254336078,0.08861676213582988,18.867745155287363
241.0,5525498.605939047,464282.8007538724,0.09157311257424844,18.867745155287363
242.0,5810992.413864177,473990.22190124274,0.09468846139450841,18.867745155287363
243.0,6109023.273795895,484288.1455487735,0.09796769624096352,18.867745155287363
244.0,6421315.069680811,495258.8970012496,0.10141570558822298,18.867745155287363
245.0,6749690.453783669,506990.2634815578,0.10503735323007804,18.867745155287363
246.0,7096090.791221272,519576.57303890865,0.10883745112066595,18.867745155287363
247.0,7455507.163455178,547518.1023637847,0.11282073762556982,18.867745155287363
248.0,7875786.582813284,594061.5293854636,0.11699182451696592,18.867745155287363
