Time,J,A,S,tau
0.0,100.0,10.0,0.9256619260159312,9.530282669439194
1.0,113.93157774603293,28.04142793206313,0.9055819524067344,8.5765307217504
2.0,159.37094384090437,45.370306576277706,0.8842477984293599,7.601491778513835
3.0,232.33780413849783,61.946081698697256,0.8616741661514549,6.606161883876955
4.0,328.6310243335369,77.73095865655495,0.8378865331095805,5.591485808348487
5.0,443.39774653907614,93.26132341976495,0.8168497471168922,4.773095626456951
6.0,567.0473831902874,128.23376178661832,0.8093886946802703,4.726402717058886
7.0,730.2050680149387,189.36365867533706,0.8016299114794347,4.682869893273637
8.0,966.2534948918075,272.6451955865838,0.7935718892340504,4.642253366366504
9.0,1296.1851107100117,374.1112481946521,0.7852139558040199,4.604329332858141
10.0,1728.385849958318,491.5700789620812,0.7765563351817296,4.568892256859316
11.0,2254.5849497227673,645.7324136678836,0.7676002043422825,4.5357533066212286
12.0,2891.274153515577,866.6033204332482,0.7583477472735348,4.50473894115163
13.0,3685.623603125372,1173.1238055170704,0.7488022046608926,4.475689623277264
14.0,4693.304945476928,1574.141869934877,0.7389679183877721,4.448458647442828
15.0,5959.118104963143,2073.901678851064,0.7288503703288769,4.422911073483136
16.0,7499.9593164379,2696.6696648159977,0.7184562141185571,4.398922751662994
17.0,9328.282786017855,3488.8863826470724,0.7077932995069042,4.376379434542533
18.0,11475.131758466032,4500.967423177052,0.6968706882323528,4.355175964408844
19.0,13988.254940118915,5774.115288260071,0.6856986609652339,4.335215531618578
20.0,16912.94109656119,7338.7760147241415,0.674288714413723,4.316408995349941
21.0,20267.70360210223,9232.009436371547,0.662653547756878,4.298674259837741
22.0,24044.342229474863,11506.591068420807,0.6508070391009256,4.281935707089017
23.0,28222.223670854422,14223.108709632234,0.638764209928628,4.266123672066308
24.0,32783.29210121566,17427.68800547497,0.6264222784062039,4.25307895516005
25.0,37695.9428913948,21147.6630319065,0.6136969649670461,4.2441743926073
26.0,42899.842175217724,25404.899107779936,0.6006199527220708,4.238909203061637
27.0,48309.15641423805,30213.656887660207,0.5872083130741708,4.237076023277899
28.0,53811.3393817231,35586.73100923625,0.5735506583198728,4.237472297450649
29.0,59281.47250622749,41534.170164828065,0.5598435773695276,4.237472297450649
30.0,64609.8707649422,48026.73759121852,0.5460835999481133,4.237472297450649
31.0,69679.88259134027,55016.762264816905,0.5322943228446402,4.237472297450649
32.0,74374.09685905473,62438.05175416601,0.5184996885153599,4.237472297450649
33.0,78576.68781999427,70211.87116632261,0.5047238388065118,4.237472297450649
34.0,82183.94068056498,78246.52127170865,0.4909909649104801,4.237472297450649
35.0,85112.61039324675,86435.59088234637,0.47732515539838877,4.237472297450649
36.0,93654.31696630783,87260.22119479172,0.41966664178901897,4.842860611631146
37.0,101443.74914744464,83363.70126109636,0.34368322215293756,5.8428601879023185
38.0,104438.95061568658,79599.05309309583,0.2794094603437902,6.842859764173507
39.0,103767.1508327864,75964.52887891584,0.22547616245526142,7.84285934044469
40.0,100388.56199064029,72458.24409714909,0.18058772453074415,8.842858916715869
41.0,95106.85981166158,69078.18549408397,0.1435353056825439,9.842858492987046
42.0,88581.67603754823,65822.21953279346,0.11320650448796125,10.842858069258222
43.0,81342.67218146,62688.100769586075,0.08859095150760782,11.842857645529397
44.0,73804.37357584413,59673.48067881893,0.06878289230425029,12.842857221800575
45.0,66281.31632282783,56775.91654400454,0.05298063016692209,13.84285679807175
46.0,59002.95709168491,53992.880443520815,0.04048340554543695,14.842856374342928
47.0,52127.9274085344,51321.768422134264,0.03068629158008979,15.842855950614103
48.0,45757.22222568684,48759.909071153466,0.023073139892296618,16.84285552688528
49.0,39946.21930112775,46304.572957631084,0.017209103780661865,17.842855103156456
50.0,34715.22321878059,43952.98129504685,0.012732070405306965,18.84285467942763
51.0,30058.608441014887,41702.31491003248,0.009344101021520983,19.84285425569881
52.0,25952.375032242064,39549.72237548897,0.006802763259645043,20.84285383196999
53.0,22360.456285263135,37492.32872121252,0.004913173565154587,21.842853408241165
54.0,19239.648228973307,35527.243428736074,0.0035204173941644325,22.842852984512344
55.0,16543.414801691477,33651.568250332675,0.002502735012613606,23.842852560783523
56.0,14224.709552658891,31862.40476460446,0.0017654923162686554,24.84285213705472
57.0,12237.940118410843,30156.861411395545,0.0012359283804109261,25.842851713325917
58.0,10540.306492931702,28532.060456972107,0.0008587200665916915,26.842851289597114
59.0,9092.577968479962,26985.14442464607,0.0005922466328788171,27.842850865868307
60.0,7859.470142046586,25513.282136342015,0.000405522728143934,28.842850442139504
61.0,6809.734338578697,24113.674392790355,0.0002757181571737163,29.8428500184107
62.0,5916.04418377387,22783.55926218097,0.00018618200820626337,30.84284959468189
63.0,5154.742136668357,21520.21686314854,0.00012488833872988206,31.842849170953077
64.0,4505.52363040859,20320.9738544195,8.323669634679936e-05,32.84284874722425
65.0,3951.0788362677513,19183.207459105175,5.5134141697039957e-05,33.84284832349546
66.0,3476.7290095964786,18104.349072748464,3.63036150931829e-05,34.84284789976667
67.0,3070.077638289347,17081.88748179113,2.3769496002504377e-05,35.84284747603787
68.0,2720.686423656772,16113.371677302286,1.5479415672112404e-05,36.842847052309075
69.0,2419.7833503214433,15196.41328735293,1.0029592841430271e-05,37.84284662858028
70.0,2160.0047215867785,14328.68863113518,0.0,38.842846204851476
71.0,1935.1712543713202,13507.940413932349,0.0,39.842845781122655
72.0,1740.097114268317,12731.97911496562,0.0,40.84284535739388
73.0,1570.4252573099927,11998.683965441516,0.0,41.84284493366504
74.0,1422.491190607334,11306.003689550163,0.0,42.84284450993622
75.0,1293.2080876889538,10651.956934253187,0.0,43.842844086207414
76.0,1179.9706529502537,10034.632404020485,0.0,44.84284366247861
77.0,1080.5747506994398,9452.188684704379,0.0,45.842843238749786
78.0,993.1528830708573,8902.853993924318,0.0,46.84284281502098
79.0,916.1194088136817,8384.925621631572,0.0,47.84284239129216
80.0,848.121329677509,7896.768796035588,0.0,48.842841967563345
81.0,788.0151262352168,7436.817155182563,0.0,49.84284154383452
82.0,734.8144255274808,7003.56969850182,0.0,50.8428411201057
83.0,687.6701009158281,6595.590213803713,0.0,51.842840696376896
84.0,645.8644319675154,6211.507156651474,0.0,52.84284027264809
85.0,608.7707565152787,5850.0099149946545,0.0,53.84283984891928
86.0,575.8492431395227,5509.848407681071,0.0,54.84283942519048
87.0,546.641026338565,5189.832426462808,0.0,55.84283900146168
88.0,520.7464585873731,4888.828405753231,0.0,56.84283857773288
89.0,497.81827476309854,4605.75759699695,0.0,57.84283815400407
90.0,477.5584248769066,4339.595360963924,0.0,58.84283773027526
91.0,459.70830433570825,4089.3686142882507,0.0,59.84283730654645
92.0,444.0444260879458,3854.1541317274537,0.0,60.84283688281764
93.0,430.3735425626756,3633.076455201192,0.0,61.84283645908883
94.0,418.5290845013693,3425.3064054401116,0.0,62.842836035360016
95.0,408.36768557567564,3230.059076172353,0.0,63.842835611631195
96.0,399.7662410034161,3046.591809575009,0.0,64.84283518790237
97.0,392.6197367778128,2874.2025065211415,0.0,65.84283476417355
98.0,386.8396477354773,2712.227550114211,0.0,66.84283434044472
99.0,382.3508838325272,2560.0409109093407,0.0,67.8428339167159
100.0,379.0916619553869,2417.0515910852255,0.0,68.84283349298708
101.0,377.01188398691045,2282.702185958685,0.0,69.84283306925828
102.0,376.07260755936164,2156.4670793797504,0.0,70.84283264552946
103.0,376.24330696757386,2037.8514800092005,0.0,71.84283222180065
104.0,377.50307086365177,1926.3892844224565,0.0,72.84283179807184
105.0,379.8395148187841,1821.6417470534514,0.0,73.84283137434304
106.0,383.24807269229797,1723.1960924481737,0.0,74.84283095061423
107.0,387.73158171267283,1630.6641405291534,0.0,75.84283052688541
108.0,393.29994501467144,1543.6809854609014,0.0,76.8428301031566
109.0,399.9698610081965,1461.903728148469,0.0,77.8428296794278
110.0,407.7644059667276,1385.0102984891148,0.0,78.84282925569899
111.0,416.71308385265786,1312.698260886861,0.0,79.84282883197018
112.0,426.85195083583346,1244.6836582977382,0.0,80.84282840824137
113.0,438.2232627496817,1180.6999972867611,0.0,81.84282798451255
114.0,450.8754020805362,1120.4972406494505,0.0,82.84282756078375
115.0,464.862823426095,1063.8408489539888,0.0,83.84282713705494
116.0,480.24600979816745,1010.5108697323378,0.0,84.84282671332613
117.0,497.09143245320206,960.3010729069003,0.0,85.84282628959733
118.0,515.4715068636309,913.0181309671402,0.0,86.8428258658685
119.0,535.4645373036302,868.480842355824,0.0,87.8428254421397
120.0,557.1546423338096,826.5193964854816,0.0,88.84282501841089
121.0,580.6316273204017,786.9746819051308,0.0,89.84282459468209
122.0,605.9907237699717,749.6976465023572,0.0,90.84282417095328
123.0,633.3332578189581,714.5485707494346,0.0,91.84282374722446
124.0,662.7644395763998,681.3967269014117,0.0,92.84282332349565
125.0,694.3952543722581,650.1195678056505,0.0,93.84282289976684
126.0,728.3411681456957,620.6023077850678,0.0,94.84282247603802
127.0,764.7216770222867,592.7374365715166,0.0,95.84282232720363
128.0,803.6597949612661,566.4242608072266,0.0,96.84282163586003
129.0,845.2789844206688,541.5686785720235,0.0,96.93338721631449
130.0,889.7110535643649,518.0820844198935,0.0,96.93338721631449
131.0,937.084095715871,495.8818587168527,0.0,96.93338721631449
132.0,987.5266906367735,474.89062486414167,0.0,96.93338721631463
133.0,1037.1404151049278,461.28144960366103,0.006948720320761335,4.237625829029822
134.0,1096.549784713086,443.6247439036517,0.007146325810416573,4.237625829029822
135.0,1159.7750686673567,427.00493019784653,0.007344801267476883,4.237625829029822
136.0,1227.0210710294737,411.36598206749557,0.007543798551454829,4.237625829029822
137.0,1298.4848559308602,396.6663417875916,0.007742968665295253,4.237625829029822
138.0,1374.3868240515972,382.856729573846,0.007941963909659507,4.237625829029822
139.0,1454.9423505006812,369.8847906902584,0.008140440048368846,4.237625829029822
140.0,1540.358291965711,357.70808331196923,0.008338058594100283,4.23762582964226
141.0,1630.844786456576,346.2871184795895,0.008534664932973043,4.23747333123271
142.0,1726.615965003321,335.57777695531075,0.008726476209635682,4.2402049857264705
143.0,1827.8732033849203,325.54253046861254,0.008912776671060938,4.246373981289053
144.0,1934.803523607389,316.1468691430765,0.00909335454534369,4.25614917652513
145.0,2047.596784511379,307.35681533752836,0.009267576879808089,4.270141607375906
146.0,2166.425416209955,299.14835720061444,0.009438065881310728,4.285899209041501
147.0,2291.4587076263697,291.4962693555272,0.009605609534280732,4.302551811487494
148.0,2422.8528175820193,284.3746945976961,0.00977000288661807,4.320162975667618
149.0,2560.7556477068097,277.75906699336923,0.009931057385073529,4.338801079612805
150.0,2705.2942688020353,271.6261238518296,0.010088600924634433,4.358539525499002
151.0,2856.575533887252,265.9538656682039,0.010242479812217832,4.379457653757035
152.0,3014.69137145215,260.72124608463304,0.010392557086918199,4.401640550905076
153.0,3179.704120693333,255.90820909414043,0.010538712784511331,4.425179478477473
154.0,3351.6466508028443,251.49557097408317,0.01068084527166015,4.450172897141119
155.0,3530.528545760021,247.46479290972746,0.010818869175127139,4.4767262199412805
156.0,3716.321306005349,243.79801638280523,0.010952715347435058,4.5049522873341
157.0,3908.9579629633786,240.47795190392674,0.011082331700911337,4.534972536281274
158.0,4108.34010475418,237.4877019591882,0.011207681072217562,4.566916772779274
159.0,4314.318257084885,234.81082520782766,0.011328740784866722,4.600923500632125
160.0,4526.700515001755,232.43116241325754,0.011445503504107198,4.637141682265735
161.0,4745.256024220866,230.33275589461596,0.011557973791800239,4.675729332671006
162.0,4969.691732205769,228.49991047283925,0.011666169821658896,4.716855626312854
163.0,5199.674773092449,226.91698703196832,0.011770121303444106,4.760700973825409
164.0,5434.819858147134,225.56846431509646,0.011869868064197509,4.807456332910079
165.0,5674.682718596946,224.43888435481446,0.011965461126708338,4.857325945110545
166.0,5918.779404852033,223.51276764481216,0.012056959590898648,4.91052562966437
167.0,6166.567499594642,222.77469073889273,0.012144431226542638,4.9672839475597605
168.0,6417.460024554863,222.2091956817469,0.012227951467083161,5.027843652586782
169.0,6670.8298561253805,221.80083065828146,0.012307601546082552,5.092459618798103
170.0,6926.001400754707,221.53418864700276,0.012383469366185413,5.161401542079815
171.0,7182.270869795787,221.39388095861096,0.012455647207028537,5.234952909652563
172.0,7438.901956667228,221.36461612785016,0.012524231673976597,5.313410287801472
173.0,7695.1341304401485,221.43124865134791,0.012589323354725996,5.39708575072598
174.0,7950.194971224618,221.57880241230683,0.012651025026413139,5.486304011438796
175.0,8203.300151618347,221.79257712688124,0.01270944242826277,5.581403736148352
176.0,8453.669861892668,222.0582172543104,0.012764682585142136,5.682737466975579
177.0,8700.531340131958,222.36174111079742,0.012816853587141566,5.790669147730975
178.0,8943.131181495894,222.68971142079482,0.01286606471307213,5.9055759355456745
179.0,9180.74411190493,223.02925081932867,0.012912424744004388,6.027845445163963
180.0,9412.676829602833,223.368111961136,0.012956042816857033,6.157875051262083
181.0,9638.28486628439,223.69486192382962,0.012997027274092951,6.2960717150358585
182.0,9856.969345968482,223.99880380172146,0.013035485271195012,6.4428486934114
183.0,10068.190647012087,224.27015266082057,0.013071523374855936,6.598625641924682
184.0,10271.47384964229,224.50008506430206,0.013105245980358234,6.763825614511705
185.0,10466.404166021415,224.68065960063734,0.013136756107665739,6.938873374901897
186.0,10652.644214227113,224.80503917025388,0.013166154958210136,7.124193666238744
187.0,10829.923349887555,224.86734490469755,0.013193541112722465,7.3202076296081575
188.0,10998.041386549914,224.86268440815954,0.01321901150764462,7.527332157868617
189.0,11156.877400334859,224.7872826456179,0.013242660162977161,7.745974959944657
190.0,11306.368730681756,224.63818580748602,0.013264578851316176,7.976534311205006
191.0,11446.530236727624,224.41352045388032,0.01328485684814355,8.219394586617808
192.0,11577.431845718434,224.11220409556935,0.013303580257747423,8.474923392251402
193.0,11699.204546490606,223.7340054622648,0.013320833187666916,8.743471704328178
194.0,11812.034688236568,223.27949991289873,0.013336695993442955,9.025364739560569
195.0,11916.150637921015,222.74985494597576,0.01335124745185025,9.32091025087254
196.0,12011.828871434564,222.1469612894451,0.013364562114498059,9.630381007847054
197.0,12099.374681781956,221.4731252906537,0.013376713242840042,9.954031796748108
198.0,12179.127458128458,220.73119900353947,0.013387769556132401,10.2920743643018
199.0,12251.447563276162,219.9243528321197,0.013397798750203332,10.64470169770591
200.0,12316.71168975766,219.05605789810596,0.013406864118556626,11.012061465807705
201.0,12375.310847500607,218.1300428433436,0.013415027289406528,11.39427462018453
202.0,12427.64021797682,217.15015044516844,0.013422346578997529,11.791423472584711
203.0,12474.098265497158,216.12036338376268,0.013428877608090212,12.20355276437859
204.0,12515.082048984852,215.04468433306937,0.013434673835951419,12.630678313966092
205.0,12550.979932691733,213.92711082981197,0.013439785188334153,13.072769018245493
206.0,12582.175891038109,212.77161713876313,0.013444260244066942,13.529773956558023
207.0,12609.036788321202,211.5820526107876,0.01344814374400081,14.001591034157196
208.0,12631.921042877639,210.36220174876794,0.013451479277446646,14.488102985749396
209.0,12651.167322659241,209.11566624555425,0.013454306980147119,14.98914506040165
210.0,12667.099845927654,207.8459213821479,0.013456665477368077,15.50453666071843
211.0,12680.0251878793,206.5562608721683,0.013458590731116155,16.034059201708047
212.0,12690.229047593451,205.2497804926218,0.013460116633760136,16.577475190822028
213.0,12697.983650597103,203.92942930316778,0.013461275256572616,17.134520619138364
214.0,12703.535765225202,202.59789994967386,0.013462096149900208,17.704910070415735
215.0,12707.122796083348,201.2577803581129,0.013462607729022214,18.28834194773536
216.0,12708.953837890114,199.91135929883237,0.013462835565361002,18.884492064508404
217.0,12709.229826653096,198.56084093171086,0.01346280450000202,19.49303247541145
218.0,12708.130742569028,197.2081908985514,0.013462537041381924,20.11361076890796
219.0,12705.819348229934,195.85519560512216,0.0134620541876647,20.745874379237087
220.0,12702.449782822236,194.5035363336466,0.013461375912915156,21.389457426578208
221.0,12698.153377896135,193.15464142269641,0.013460519934865611,22.043989042871683
222.0,12693.056205744417,191.8098805440722,0.013459503462139701,22.709097686447233
223.0,12687.267283291892,190.47042084083773,0.0134583418338629,23.384402995335797
224.0,12680.884943330497,189.1373128628002,0.01345704936489875,24.06953127178363
225.0,12674.000463002096,187.81151665274422,0.013455639523670137,24.764101872505673
226.0,12666.68911252406,186.49380642602944,0.013454124060973984,25.467742490915953
227.0,12659.023430685029,185.1849243733153,0.013452514434718647,26.18008232867452
228.0,12651.065172620587,183.88547535101648,0.013450820797400006,26.90075032510112
229.0,12642.867231229453,182.59596149095688,0.013449052306411717,27.629387868676577
230.0,12634.480197721072,181.3168527746389,0.01344721781573357,28.365634714706715
231.0,12625.94416079873,180.04848577586307,0.013445324848728357,29.109141082105758
232.0,12617.29596429981,178.79115938323258,0.013443380536718726,29.859564878661388
233.0,12608.568677628953,177.54511864927719,0.013441391478978945,30.616564500476652
234.0,12599.78758529044,176.3105100023419,0.013439363211085307,31.3798152648162
235.0,12590.97700942792,175.08746818101503,0.013437301138574798,32.14899532677434
236.0,12582.15759884054,173.87607421505663,0.01343521010536944,32.923786516626706
237.0,12573.344710335114,172.6763408048656,0.013433094153880824,33.70388731642554
238.0,12564.553240469917,171.4882747238194,0.013430957256992374,34.48899780172739
239.0,12555.795183210717,170.31183894052302,0.013428802898471027,35.27882351699675
240.0,12547.078786079785,169.14694756464448,0.013426633923515388,36.07308623204265
241.0,12538.412004264124,167.99351114954712,0.01342445312584488,36.87150939475943
242.0,12529.80098126113,166.8514121476556,0.013422262957740343,37.67382163926457
243.0,12521.249853667292,165.72050501909118,0.01342006548998148,38.47976068314017
244.0,12511.967564761797,160.4361320000111,0.013417862574230492,39.289070142077875
245.0,12500.562625865143,144.2052044684964,0.013415655817374497,40.1014995785629
246.0,12489.394934674481,129.63710706752107,0.013413446609300635,40.91680412599098
247.0,12478.44842573618,116.5603870758483,0.0134112361424096,41.73474400699103
248.0,12467.707733543819,104.82132523706534,0.013409025429579953,42.55508407652866
249.0,12457.158137787157,94.28214327786957,0.01340681532171343,43.37759333143251
250.0,12446.785515021445,84.81944973259665,0.013404606523163574,44.20204441971929
251.0,12436.576291191372,76.32260285570815,0.013402399606513321,45.028213108880365
252.0,12426.517395651654,68.69241045695112,0.013400195026535028,45.8558777353696
253.0,12416.596220054447,61.84000362806302,0.013397993132605942,46.684818644537295
254.0,12406.800577264448,55.68565765610173,0.013395794180754659,47.514817592566324
255.0,12397.118662164528,50.15788328760504,0.013393598344915101,48.34565713394758
256.0,12387.539015882672,45.19260522942496,0.013391405727140667,49.17711998318539
257.0,12378.05048969434,40.73231824108661,0.01338921636761464,50.00898834319498
258.0,12368.642210893951,36.72544861876971,0.013387030253990843,50.84104321324147
