Time,J,A,S,tau
0.0,100.0,10.0,0.691657826511797,24.34047355158889
1.0,203.61118657481254,84.3936539761116,0.6618679043510396,24.00174963861731
2.0,571.4915431423307,151.30240393149418,0.6330997574055386,23.663023593279913
3.0,1156.3424091873176,211.2514179600728,0.6053330198544451,23.324297547942518
4.0,1916.0133265978784,264.73613703516696,0.5785467953250362,22.985571502605122
5.0,2813.0847818577104,312.2233739671464,0.5527199303599825,22.64684545726773
6.0,3814.4764171125107,354.15272600025486,0.5278310499055597,22.308119411930335
7.0,4891.08165310301,390.937912169641,0.5038585934434267,21.969393366592943
8.0,6017.42325307704,422.96807467003305,0.4807808494285394,21.630667321255547
9.0,7171.332998735728,450.60900935605116,0.4585759907921448,21.29194127591816
10.0,8333.654182628554,474.20433312144127,0.4372221092016055,20.953215230580764
11.0,9487.962942815386,494.07660584575035,0.4166972501751505,20.614489185243375
12.0,10620.302615807052,510.52848141339047,0.39697944015724257,20.27576313990598
13.0,11718.962474569948,523.8435066617977,0.3780467389085703,19.937037094568588
14.0,12774.221222601065,534.2875105799673,0.35987723314388037,19.598311049231196
15.0,13778.180341469886,542.1090282344923,0.34244911742363443,19.259585003893804
16.0,14724.537490190085,547.540655390994,0.3257406814346969,18.92085895855641
17.0,15608.435995738471,550.7995554738685,0.30973036919085156,18.582132913219013
18.0,16426.292363438868,552.0883811986845,0.29439679925388923,18.24340686788162
19.0,17167.142681104116,563.5547402467878,0.28997179931411593,18.18188639954988
20.0,17931.624079920053,648.016011190245,0.28790684604601985,18.18188639954988
21.0,18963.129921000007,796.3972368512127,0.2858708215651604,18.18188639954988
22.0,20443.54414691259,995.8705069265569,0.28386427949623116,18.18188639954988
23.0,22497.361638027945,1235.1918730093867,0.2818877577299979,18.18188639954988
24.0,25201.54569184085,1504.5462840544908,0.2799417783952903,18.18188639954988
25.0,28594.141746500383,1795.4051450227691,0.27802684785783643,18.18188639954988
26.0,32681.750945464417,2100.395927446794,0.2761434567457503,18.18188639954988
27.0,37445.98108273875,2413.183592191362,0.2742920799865801,18.18188639954988
28.0,42849.0203710766,2728.361268810154,0.2724731768850045,18.18188639954988
29.0,48838.38867123659,3041.351239179113,0.27068719120861223,18.18188639954988
30.0,55350.96994638245,3348.3142980112043,0.2689345513058969,18.18188639954988
31.0,62316.476652454556,3646.067277988468,0.26721567024434606,18.18188639954988
32.0,69660.23112808498,3932.0091852898117,0.2655309459374202,18.18188639954988
33.0,77305.52944981893,4204.052067784592,0.2638807613627654,18.18188639954988
34.0,85175.70698803535,4460.5600521187325,0.26226548471298866,18.18188639954988
35.0,93195.47941917594,4700.294201686367,0.2606854696258949,18.18188639954988
36.0,101292.46681906353,4922.360925597263,0.2591410553930851,18.18188639954988
37.0,109397.42029354852,5125.666111404064,0.25763256722432487,18.18188639954988
38.0,117447.51221234225,5342.091900285615,0.25616031648314247,18.18188639954988
39.0,125523.31137727061,5633.377813159719,0.25472460095660215,18.18188639954988
40.0,133882.77575212397,6045.365766204277,0.25332570513275193,18.18188639954988
41.0,142894.55427016428,6609.023390117397,0.25196390049368284,18.18188639954988
42.0,152983.78014653147,7343.142145726173,0.2506394458057778,18.18188639954988
43.0,164590.89827400434,8256.667242809837,0.24935258743422523,18.18188639954988
44.0,178141.07771458317,9350.682173604722,0.24810355965449163,18.18188639954988
45.0,194022.27134108395,10620.101178086114,0.24689258497065913,18.18188639954988
46.0,212570.20429932483,12055.105252496125,0.24571987443801535,18.18188639954988
47.0,234059.16673369324,13642.350943747551,0.2445856279837185,18.18188639954988
48.0,258697.37599418554,15365.987550675023,0.24349003475627456,18.18188639954988
49.0,286625.45562095114,17208.496768271038,0.24243327343509793,18.18188639954988
50.0,317918.076624729,19151.386189683973,0.24141551256433874,18.18188639954988
51.0,352587.13047141716,21175.75998796321,0.24043691090424438,18.18188639954988
52.0,390586.31457625935,23262.775451905985,0.2394976177102599,18.18188639954988
53.0,431817.09149721713,25394.00377869435,0.23859777311915412,18.18188639954988
54.0,476134.59235264896,27551.717630277544,0.2377375083989746,18.18188639954988
55.0,523354.59963986016,29718.944051330698,0.2369169463168082,18.18188639954988
56.0,573257.1638070665,31884.072189281524,0.2361362014156582,18.18188639954988
57.0,625620.5847214089,34072.091402833044,0.2353953803086256,18.18188639954988
58.0,680344.466039757,36348.85217893783,0.23469458200780907,18.18188639954988
59.0,737554.3607235139,38805.78693275078,0.2340338981687548,18.18188639954988
60.0,797652.0852348225,41547.36194422847,0.23341341336612476,18.18188639954988
61.0,861326.7708627824,44681.59774155371,0.2328332053554642,18.18188639954988
62.0,929538.4568189485,48313.06688815257,0.23229334531953297,18.18188639954988
63.0,1003483.7171000079,52537.89551204086,0.23179389810234174,18.18188639954988
64.0,1084550.951035946,57440.37568321672,0.2313349224343142,18.18188639954988
65.0,1174268.5764503456,63090.85618931096,0.23091647112401234,18.18188639954988
66.0,1274254.8700238853,69544.64286685451,0.23053859126844434,18.18188639954988
67.0,1386167.5700932941,76841.67155762496,0.23020132442604213,18.18188639954988
68.0,1511655.045109799,85006.75267494656,0.22990470675194122,18.18188639954988
69.0,1652319.8167848536,94050.25541875012,0.22964876918840235,18.18188639954988
70.0,1809675.7961478739,103969.14603281321,0.22943353754117127,18.18188639954988
71.0,1985126.678499733,114748.10726417134,0.22925903264534508,18.18188639954988
72.0,2179933.6013052617,126360.94131900843,0.2291252703993719,18.18188639954988
73.0,2395202.7994278967,138771.92881855546,0.22903226189121295,18.18188639954988
74.0,2631871.2382833995,151937.12782523918,0.22898001343554786,18.18188639954988
75.0,2890696.22990323,165815.49077104146,0.2289685265909132,18.18188639954988
76.0,3172302.622795424,180397.70905468875,0.22899779825070882,18.18188639954988
77.0,3477289.059819433,195729.63109536836,0.2290678204579538,18.18188639954988
78.0,3806436.504975982,211923.52358054978,0.22917858069978297,18.18188639954988
79.0,4160879.4277269673,229161.4027735822,0.2293300616380914,18.18188639954988
80.0,4542305.751919406,247691.725734754,0.2295222411679393,18.18188639954988
81.0,4953119.718308213,267822.77248701575,0.22975509227595714,18.18188639954988
82.0,5396565.907787016,289912.64093552117,0.2300285829949914,18.18188639954988
83.0,5876840.760298018,314358.44937919796,0.23034267630580083,18.18188639954988
84.0,6399128.462822148,341585.1543238408,0.2306973299799441,18.18188639954988
85.0,6969646.585369315,372034.0530708505,0.23109249650342542,18.18188639954988
86.0,7595616.052540569,406152.585684465,0.23152812284976582,18.18188639954988
87.0,8285233.295327681,444384.5247364356,0.23200415038189542,18.18188639954988
88.0,9047615.813881537,487161.40713118797,0.23252051461381676,18.18188639954988
89.0,9892699.068644775,534895.4935366653,0.2330771450370316,18.18188639954988
90.0,10831183.723568289,587973.1776291451,0.23367396491448536,18.18188639954988
91.0,11874384.543673594,646750.5672719507,0.23431089101412733,18.18188639954988
92.0,13034172.311705556,711549.1882944972,0.2349878334335567,18.18188639954988
93.0,14322824.195674675,782654.6746294304,0.23570469526950372,18.18188639954988
94.0,15752940.587508881,860328.02468641,0.23646137243129178,18.18188639954988
95.0,17337408.767286763,944837.4599507569,0.23725775330807242,18.18188639954988
96.0,19089439.51411265,1036502.7289454777,0.2380937185161075,18.18188639954988
97.0,21022840.739467647,1135744.146441185,0.23896914061616717,18.18188639954988
98.0,23152305.603208948,1243132.7412695687,0.2398838837554361,18.18188639954988
99.0,25493955.47935826,1359432.7779791453,0.24083780343935313,18.18188639954988
100.0,28065984.393844716,1485640.037728328,0.24183074617692188,18.18188639954988
101.0,30889301.750463795,1623012.6978770967,0.2428625491397584,18.18188639954988
102.0,33988316.23106249,1773090.8100027323,0.2439330399032813,18.18188639954988
103.0,37391806.986084394,1937710.2885676704,0.24504203608507516,18.18188639954988
104.0,41133642.13256767,2119010.3195579904,0.24618934499275508,18.18188639954988
105.0,45253597.458395876,2319430.0320295417,0.247374763365467,18.18188639954988
106.0,49798248.32360509,2541701.727073604,0.24859807701003991,18.18188639954988
107.0,54821556.03530949,2788841.1846821015,0.24985906044709516,18.18188639954988
108.0,60385567.623996705,3064129.2587802955,0.2511574766635407,18.18188639954988
109.0,66561213.041909665,3371092.0774409105,0.25249307675752075,18.18188639954988
110.0,73428646.73563418,3713482.5165612716,0.25386559959248123,18.18188639954988
111.0,81077760.55475606,4095254.847151625,0.2552747715714471,18.18188639954988
112.0,89608852.0286957,4520542.459499069,0.2567203063022167,18.18188639954988
113.0,99132712.04158208,4993657.055131542,0.25820190426923634,18.18188639954988
114.0,109771050.18813838,5519113.11516434,0.2597192526402013,18.18188639954988
115.0,121657359.36076699,6101690.551624453,0.2612720249630471,18.18188639954988
116.0,134937379.8679731,6746549.093562723,0.2628598808654407,18.18188639954988
117.0,149770339.0064422,7459373.518535949,0.26448246590365737,18.18188639954988
118.0,166331148.50668344,8246554.606861004,0.26613941130263974,18.18188639954988
119.0,184812435.78717935,9115416.13553099,0.26783033369266646,18.18188639954988
120.0,205427661.60984117,10074449.92705677,0.2695548350095267,18.18188639954988
121.0,228415681.91856346,11133570.227194851,0.27131250228823267,18.18188639954988
122.0,254045165.64754722,12304402.912428407,0.27310290744596044,18.18188639954988
123.0,282620140.98022807,13600555.197803209,0.27492560724113035,18.18188639954988
124.0,314487208.4438583,15037894.039234815,0.27678014312559224,18.18188639954988
125.0,350043138.49679106,16634837.855756437,0.2786660410991258,18.18188639954988
126.0,389743168.5896548,18412613.17363374,0.28058281172934196,18.18188639954988
127.0,434109901.6318783,20395548.585851118,0.2825299500137879,18.18188639954988
128.0,483744586.88048184,22611295.44028443,0.28450693542890493,18.18188639954988
129.0,539336691.1015583,25091106.47696797,0.2865132318711562,18.18188639954988
130.0,601677606.9893292,27870028.139793552,0.28854828771805485,18.18188639954988
131.0,671670865.854952,30987159.705881916,0.2906115358573901,18.18188639954988
132.0,750348302.2763549,34485856.08261676,0.2927023937576339,18.18188639954988
133.0,838880959.6777109,38414049.12581988,0.2948202635882727,18.18188639954988
134.0,938598152.1975292,42824601.12560129,0.29696453230172537,18.18188639954988
135.0,1051000268.5913436,47775849.244762704,0.2991345718418561,18.18188639954988
136.0,1177782123.3166125,53332301.125759065,0.30132973924410983,18.18188639954988
137.0,1320850532.5508559,59565569.245190166,0.30354937692369355,18.18188639954988
138.0,1482354325.6122131,66555592.25728535,0.30579281280469817,18.18188639954988
139.0,1664711325.1049435,74392092.3142983,0.3080593606744654,18.18188639954988
140.0,1870648041.3355296,83176472.24918257,0.31034832035567045,18.18188639954988
141.0,2103242249.8829668,93023883.43921168,0.31265897810976184,18.18188639954988
142.0,2365975899.4924736,104065916.59023076,0.3149906068669577,18.18188639954988
143.0,2662800369.08085,116453335.51188664,0.317342466661671,18.18188639954988
144.0,2998206962.470518,130359606.77982424,0.3197138049453682,18.181886398897078
145.0,3377321921.833105,145984617.52729693,0.3221040760264547,18.181876105128676
146.0,3805986449.913674,163460772.23672098,0.3244378917559684,18.185359350955196
147.0,4290272331.7822995,182981776.0287808,0.32669059266173095,18.193445716689588
148.0,4837338139.372403,204904955.78213575,0.32892827434633554,18.20298858302666
149.0,5455561146.054897,229548077.50622523,0.3311500112578102,18.21399243443272
150.0,6154517885.221855,257272321.187231,0.33335494909334945,18.226458822125675
151.0,6945154399.305548,288486907.30294067,0.3355422524009309,18.240388849926582
152.0,7839976083.5986395,323654115.2556266,0.33771110499164264,18.255783175777776
153.0,8853258184.392403,363294746.2008783,0.33986071031009646,18.27264201324874
154.0,10001281897.484167,407994161.11990106,0.3419902917497644,18.29096513336308
155.0,11302592717.794584,458409202.25441605,0.3440990929249644,18.310751866499462
156.0,12778289732.147028,515276217.34269464,0.3461863778985375,18.332001104393644
157.0,14452350096.469213,579420496.8400884,0.34825143136486386,18.35471130227025
158.0,16351994750.428656,651767510.3843678,0.3502935587896625,18.37888048109165
159.0,18508102584.252663,733356284.253763,0.35231208651130697,18.40450622984668
160.0,20955692420.802612,825355213.2287545,0.3543063617936326,18.431585708106688
161.0,23734469109.672493,929080844.2185038,0.356275752838738,18.4601156486956
162.0,26889456280.359497,1046019953.7404151,0.35821964876360285,18.49009236042164
163.0,30471729878.843067,1177855324.764368,0.36013745895507027,18.521511758543827
164.0,34539201379.01305,1326560421.0146923,0.3620344109450775,18.554095165683613
165.0,39159842850.13501,1495776395.3003426,0.36403364397611526,18.581978493512022
166.0,44415068285.56208,1687124295.6792805,0.3660475395656503,18.60926001499835
167.0,50392662420.9764,1903364630.2741036,0.3680617011380028,18.636582804889027
168.0,57192530058.87089,2147830787.736022,0.37007549304240783,18.663939066202385
169.0,64928777317.98916,2424329730.8739295,0.37208827948950907,18.691320977915513
170.0,73731831857.23862,2737208578.0098853,0.3740994253156843,18.718720675543626
171.0,83750869102.68741,3091428680.6934075,0.37610829629543974,18.74613025302812
172.0,95156579673.04813,3492647894.4698286,0.3781142594507899,18.773541764673954
173.0,108144316766.97345,3947311999.609789,0.38011668335718535,18.80094722713624
174.0,122937667285.70068,4462756524.693948,0.38211493844555944,18.828338621456155
175.0,139792497015.75433,5047320621.982703,0.38410839730008395,18.855707895146097
176.0,159001528709.14877,5710475074.045229,0.3860964349512367,18.883046964324127
177.0,180899522557.4613,6462967050.02047,0.3880784291638033,18.910347715897483
178.0,205869142086.21014,7316984709.551259,0.3900537607194539,18.93760200979519
179.0,234347604253.73148,8286345416.004477,0.39202181369355055,18.964801681249373
180.0,266834231775.43063,9386711979.121883,0.39398197572586496,18.991938543125215
181.0,303899048260.2139,10635842052.08022,0.3959336382849045,19.01900438829915
182.0,346192581183.82166,12053876431.733473,0.3978761969255692,19.045990992085063
183.0,394457068291.1058,13663673961.666315,0.39980905153987667,19.072890114707906
184.0,449539980727.1414,15492355678.680704,0.401731606600485,19.099693503824614
185.0,512417633103.3267,17571671422.603058,0.4036432713968443,19.12639289709146
186.0,584211096918.3326,19936162243.560215,0.40554346026375276,19.152980024777534
187.0,666201651696.344,22625142562.817463,0.407431592802145,19.179446612423607
188.0,759854005888.9169,25683487470.474083,0.4093070940919621,19.205784383545776
189.0,866843200280.6771,29162456618.713543,0.4111693948969693,19.23198506238317
190.0,989085602055.5084,33120636884.511833,0.41301793186141317,19.258040376688907
191.0,1128774582788.577,37625017754.65504,0.4148521476984279,19.283942060563465
192.0,1288421542526.0068,42752214781.94595,0.41667149137012416,19.309681857329593
193.0,1470903018305.7979,48589858434.06223,0.41847541825931533,19.335251522447784
194.0,1679514701970.4678,55238168084.357155,0.4202633903328531,19.360642826471288
195.0,1918033291430.475,62811734056.764305,0.42203487629656844,19.38584755803961
196.0,2190787215616.2446,71441534625.20033,0.4237893517418328,19.410857526909318
197.0,2502737410606.5137,81277219740.52798,0.4255262992837721,19.435664567020975
198.0,2859569487444.7124,92489699184.40208,0.42724520869118787,19.460260539600977
199.0,3267798826710.754,105274079993.33951,0.42894557700825364,19.48463733629688
200.0,3734890367098.379,119853006360.22012,0.4306269086680794,19.5087868823449
201.0,4269395131611.5415,136480464973.25029,0.4322887155982456,19.53270113976812
202.0,4881105862174.182,155446129769.31308,0.4339305173184322,19.556372110603895
203.0,5581234490122.192,177080377847.98413,0.4355518410302777,19.579791840158855
204.0,6382616920829.658,201762164867.7248,0.4371522216996246,19.60295242028993
205.0,7299963558341.432,229927765362.76596,0.4387312021313136,19.625845992709614
206.0,8350143291978.977,262075940698.90997,0.4402883330367117,19.648464752313792
207.0,9552495811547.844,298776504820.6179,0.4418231730941651,19.670800950530282
208.0,10929188759386.252,340680677588.2666,0.4433352890025825,19.692846898686163
209.0,12505627617304.648,388533010214.65765,0.4448242555283711,19.714594971392216
210.0,14310926548857.977,443185112250.3498,0.4462896555459554,19.736037609942088
211.0,16378449401007.445,505611438527.4966,0.44773108007208035,19.757167325724016
212.0,18746431163268.86,576927428353.1472,0.44914812829417977,19.777976703643617
213.0,21458692076630.082,658410317790.2316,0.4505404075930596,19.79845840555508
214.0,24565457903290.94,751522987750.6229,0.45190753356015056,19.818605173698735
215.0,28124301721148.848,857941254575.589,0.4532491300096016,19.83840983414259
216.0,32201224610758.46,979585061812.9038,0.4545648289854823,19.85786530022562
217.0,36871894858834.484,1118654093442.5962,0.45585427076437557,19.87696457600031
218.0,42223067859884.46,1277668401744.2688,0.4571171038536425,19.89570075967212
219.0,48354211815265.06,1459514729943.523,0.4583529849856427,19.914067047033246
220.0,55379367677781.69,1667499312488.984,0.4595615791082021,19.93205673488832
221.0,63429275654861.766,1905408059275.379,0.46074255937161557,19.9496632244693
222.0,72653805064820.33,2177575174621.9822,0.461895607112478,19.966880024837042
223.0,83224729531484.38,2488961435862.936,0.46302041183463594,19.98370075626682
224.0,95338896909775.25,2845245580686.813,0.464116671187552,20.000119153615167
225.0,109221874035442.81,3252935727452.1055,0.4651840909423734,20.016129069665194
226.0,125132158746085.97,3719493394010.3066,0.466222384965997,20.031724478447735
227.0,143366007700600.78,4253471220202.5703,0.46723127519341784,20.046899478535398
228.0,164262954451529.9,4864670734956.137,0.4682104915986475,20.06164829630678
229.0,188212118313977.66,5564323483977.199,0.46915977216448757,20.07596528917795
230.0,215659420330675.44,6365299089943.403,0.4700788628514345,20.089844948798323
231.0,247115840155085.03,7282344336210.447,0.4709675175659947,20.103281904208018
232.0,283166867621374.0,8332357943870.047,0.47182549812867913,20.116270924953813
233.0,324483325381636.4,9534706355822.252,0.47265257424194307,20.12880692416074
234.0,371833764524319.4,10911586558341.53,0.4734485234583327,20.140884961556413
235.0,426098663778151.94,12488442771202.13,0.4742131311490913,20.152500246445094
236.0,488286691919464.5,14294444771070.365,0.47494619047347486,20.16364814062907
237.0,559553342981658.4,16363036486090.176,0.4756475023490329,20.17432416127327
238.0,641222274673280.4,18732564810286.97,0.4763168754230403,20.184523983710662
239.0,734809734956196.1,21446999854414.844,0.4769541260453445,20.19424344418614
240.0,842052518099247.1,24556759271136.855,0.47755907824284627,20.203478542535432
241.0,964939943170818.1,28119651085557.46,0.4781315636958138,20.212225444796168
242.0,1105750414995587.6,32201951453517.812,0.47867142171623406,20.22048048574834
243.0,1267093201812462.0,36879636097612.36,0.47917849922839123,20.22824017138123
244.0,1451956148373909.2,42239787500195.57,0.47965265075185387,20.23550118128405
245.0,1663760155800761.8,48382213008780.445,0.48009373838704533,20.242260370957442
246.0,1906421457142788.8,55421316282662.45,0.48050163180355643,20.248514774043183
247.0,2184422873555978.0,63488244700730.63,0.48087620823135546,20.25426160446934
248.0,2502895313597214.0,72733345007960.62,0.4812173524550353,20.259498258508266
