Time,J,A,S,tau
0.0,100.0,10.0,0.907485866117847,9.791059616960743
1.0,102.74266703731712,16.668661602347274,0.9085797517092244,10.339161769916004
2.0,110.25365788498924,23.088359908114988,0.9096206158268815,10.898691494755251
3.0,122.18658424342365,29.268771246596195,0.910609502255218,11.469093381444724
4.0,138.22177967628204,35.219771042858056,0.9115476751686806,12.04997251797027
5.0,158.06459953366652,40.95110253929912,0.9124365503694956,12.64092550538547
6.0,181.4439659864796,46.47236256663267,0.9132776751080631,13.241542352051127
7.0,208.11096386758493,51.7929883271271,0.9140727088840719,13.851408242407578
8.0,237.83752444683202,56.92224513392754,0.9148234055297003,14.470105159886907
9.0,270.4151857491287,61.86921547329459,0.9155315966561902,15.097213363512799
10.0,305.6538196889011,66.6427906015676,0.916199176136992,15.732312704819762
11.0,343.3805905982569,71.25166213212968,0.9168280866202557,16.374983787445192
12.0,383.4388608139008,75.70431640956298,0.9174203070282982,17.02480897199189
13.0,425.6871704350496,80.00903067248643,0.9179778416305451,17.681373218370105
14.0,469.99826306496533,84.17387131684877,0.9185027105955328,18.344264771930202
15.0,516.2582812072411,88.20669191087337,0.9189969419070009,19.0130757326551
16.0,564.3659055439583,92.11513458413897,0.9194625645063788,19.687402465281476
17.0,614.2316098972116,95.90663190381034,0.9199016026829646,20.366845899418742
18.0,665.7769595543077,99.58841022780639,0.9203160715791341,21.05101171166013
19.0,718.9338444078121,103.16749670308647,0.9207079739778498,21.739510340343113
20.0,773.6438435542026,106.65072607738648,0.9210792981271465,22.431956914043642
21.0,829.8582641068735,110.04473515427924,0.9214320149820907,23.127971447279183
22.0,887.5366751062205,113.35598996061815,0.9217680792057532,23.82717818474316
23.0,946.6470464763423,116.59078235564334,0.9220894283436508,24.529205564356637
24.0,1007.1656159387685,119.75523257715038,0.9223979825041725,25.23368609461762
25.0,1069.0751664532543,122.8553263209355,0.9226956483993314,25.940255326727954
26.0,1132.3669707349102,125.8968790242902,0.9229843167285228,26.64855238102167
27.0,1197.0378494959589,128.8855977826709,0.9232658688449306,27.358218468829048
28.0,1263.0924032116498,131.82704424072972,0.9235421753538626,28.068897238257314
29.0,1330.1186893961635,135.21286687543488,0.9232694772402532,28.516233194301176
30.0,1397.505521296321,140.36584829085726,0.922836178146417,28.872916869075908
31.0,1466.2498579475835,147.34673452059778,0.9224149488350819,29.218881732457856
32.0,1537.415752491424,156.1531076509207,0.9220072991435573,29.5530138318145
33.0,1612.0674667102564,166.79235589031893,0.9216147956886062,29.874144153109118
34.0,1691.2792447227014,179.28168095240252,0.9212390676907533,30.18104499755488
35.0,1776.1452542478035,193.64807673978393,0.9208818120277372,30.472426908204643
36.0,1867.7892516630775,209.92832995769828,0.9205447976390531,30.746935997255463
37.0,1967.374990209404,228.16916837337592,0.9202298700921405,31.003150903421595
38.0,2076.116637739199,248.4273284149087,0.9199389543964328,31.239581042029446
39.0,2195.2892143799636,270.76965123103633,0.9196740566498698,31.454665608998038
40.0,2326.2404902796484,295.27329066776076,0.9194372648802007,31.64677294876685
41.0,2470.4025747838573,322.0257832882278,0.9192307467511132,31.814202274446185
42.0,2629.304015419405,351.12512935935354,0.9190567449218456,31.955187029380827
43.0,2804.583962144091,382.6799177178424,0.918917569630218,32.06790013486915
44.0,2998.0055248411586,416.8092319515575,0.9188155861879157,32.15046313994251
45.0,3211.4702999639235,453.6425135405149,0.9187531978291764,32.20095879796976
46.0,3447.0353052934734,493.3193480340184,0.9187328225340805,32.21744809134644
47.0,3706.928429268193,535.9889239811347,0.9187568623556032,32.19799312979448
48.0,3993.5657736992634,581.8093377874832,0.9188276643593059,32.14068641439612
49.0,4309.571231209176,630.9466429276231,0.9189474715514667,32.043687743043904
50.0,4657.793658190241,683.5734530031401,0.9191183644482049,31.905268550975713
51.0,5041.326519124588,739.8672276852355,0.9193421899875032,31.723865915391936
52.0,5463.528683584059,800.0081215370542,0.9196204785730824,31.498145643121838
53.0,5928.041600074177,864.1763447198119,0.9199543536247499,31.227071204612667
54.0,6438.809025878203,932.5490760386667,0.9203444277381079,30.909982481193246
55.0,7000.095529562785,1005.2969600419826,0.9207906940143537,30.546677563368466
56.0,7616.499999750604,1082.5803276139236,0.9212924212294913,30.137490720828396
57.0,8292.97097145511,1164.5451182097447,0.921848045983001,29.683370802393952
58.0,9034.797436244557,1251.339537972588,0.9224550829012852,29.18594349787773
59.0,9846.621991411614,1344.4459788738313,0.9231100627911404,28.647549797582617
60.0,10733.206565782082,1447.5231159577309,0.9238084917264728,28.071264567804963
61.0,11702.133320056182,1564.808123615301,0.9245448602193421,27.460874092571782
62.0,12764.519928984955,1700.978107434372,0.9253126958265734,26.82081754656796
63.0,13935.6259775918,1861.157100588793,0.9261046659817235,26.156088717821717
64.0,15235.518349562968,2050.918023157787,0.9269127278361546,25.47210217554147
65.0,16689.794055714432,2276.2805597668344,0.9277283175931825,24.774531879331786
66.0,18330.358897003436,2543.706054492284,0.9285425671702991,24.069133838481825
67.0,20196.26075435065,2860.090296784726,0.9293465328785792,23.361566492363345
68.0,22334.57673960681,3232.754464447866,0.9301314197154025,22.65722258858477
69.0,24801.353538329044,3669.433527717222,0.9308887859972292,21.961084487726314
70.0,27662.599519053696,4178.260203580846,0.9316107161035865,21.277611461760685
71.0,30995.324976978594,4767.741389724503,0.9322899533804375,20.6106634079835
72.0,34888.62291947018,5446.723186138654,0.9329199899175615,19.963461271378907
73.0,39444.777032991144,6224.340445892561,0.9334951141911392,19.33858101643115
74.0,44780.376187437425,7109.947644853449,0.9340104208989732,18.73797560737919
75.0,51027.40694856444,8113.029965272746,0.9344617894565839,18.163018244261995
76.0,58334.26781793835,9243.118208551428,0.9348458385822489,17.614559927146356
77.0,66864.95039549998,10512.22447817558,0.9351598643791479,17.092995013484902
78.0,76798.4857853375,11943.177782088027,0.9354017686129485,16.598329486433833
79.0,88340.7218613182,13573.385822954542,0.9355699827792532,16.130247890807095
80.0,101742.27037196052,15455.850907578417,0.9356633923680028,15.688176123533434
81.0,117319.32094766182,17659.94222753883,0.9356812640965032,15.271338303138569
82.0,135477.11194740678,20272.064565551133,0.9356231790678748,14.878806791688916
83.0,156735.90675761944,23396.177253761998,0.935488971780926,14.509545384488707
84.0,181759.673542495,27154.258475644667,0.9352786765274408,14.162445467898882
85.0,211387.14429885958,31686.726808359934,0.9349924808214867,13.836355998526557
86.0,246665.13250191216,37152.762609202226,0.9346306853710071,13.53010779116514
87.0,288884.48275178013,43730.53438001932,0.9341936704293562,13.24253282941413
88.0,339617.7007154682,51617.23592398512,0.9336818677686924,12.972479404006348
89.0,400758.3104177866,61028.85272778951,0.9330957375248625,12.718823613155978
90.0,474559.5657757152,72202.98288341764,0.9324357494423678,12.480477970625575
91.0,563669.5609745384,85420.35023266343,0.9317023678868218,12.256397563583661
92.0,671195.4033809847,101042.26632926367,0.9308960399347136,12.045584228355866
93.0,800824.8079965578,119550.70704567652,0.9300171862266919,11.847089230791791
94.0,957012.0638574016,141588.59305530568,0.9290661941035673,11.660014625261141
95.0,1145235.4624985545,168000.27973682122,0.9280434125398525,11.483513685335458
96.0,1372328.0605667506,199872.27246361543,0.9269491487742851,11.316790605221513
97.0,1646887.235051245,238573.53865402358,0.9257836661233805,11.159099567887443
98.0,1979762.0313629834,285796.00318273925,0.9245471830434475,11.009743451724798
99.0,2384623.988740807,343594.2449799402,0.9232398729830192,10.868072202372877
100.0,2878617.016817352,414423.6448846207,0.92186186504886,10.733480974774185
101.0,3483081.532298136,501180.20089960925,0.9204132453104278,10.60540814062618
102.0,4224341.732147466,607275.0393630225,0.9188940586286694,10.483333215183114
103.0,5134603.810403014,736791.6442805192,0.9173043109345215,10.366774726253132
104.0,6253100.874799268,894738.8691859449,0.9156439719212317,10.255288071630819
105.0,7627654.514413953,1087398.646697156,0.9139129780602486,10.148463401615558
106.0,9316827.137599345,1322766.0455017528,0.9121112358980844,10.045923539397316
107.0,11392827.299020989,1611076.7302627773,0.9102386256220472,9.947321939404604
108.0,13945325.6075462,1965417.8870147949,0.9082950048545753,9.852340715419203
109.0,17086331.79857644,2402416.742821046,0.9062802126432343,9.760688744766504
110.0,20956263.908165272,2942995.047584988,0.9041940736263258,9.672099841899424
111.0,25731272.88466204,3613181.1631621057,0.9020364023729099,9.586331008744756
112.0,31631867.29086638,4445031.930606507,0.8998070078639753,9.503160773156882
113.0,38932942.592453346,5477835.836761221,0.8975056981038502,9.422387612456884
114.0,47975580.82014471,6759814.681363908,0.8951322848461595,9.343828451642372
115.0,59181365.2794078,8350539.161844542,0.8926865884266146,9.26731724778367
116.0,73070358.9513051,10324251.258810367,0.8901684426869734,9.192703659091661
117.0,90284223.3184046,12774249.926471736,0.8875776999696084,9.11985179069149
118.0,111616004.81470518,15818454.79117306,0.8849142361711598,9.048639014699933
119.0,138048369.73077464,19606229.400141053,0.8821779558454316,8.978954869013604
120.0,170802063.19641766,24326487.22547125,0.8793687973455768,8.910700030021587
121.0,211396101.1342477,30217059.880475122,0.8764867379654874,8.843785350391467
122.0,261720659.35907876,37575585.53642875,0.8735317990828146,8.7781309650189
123.0,324124018.1380825,46772651.839355245,0.8705040512935481,8.713665462748397
124.0,401516000.61516595,58268364.934772894,0.8674036195090032,8.650325117941795
125.0,497491192.375324,72633846.50872892,0.8642306879796379,8.588053177393123
126.0,616477920.7091444,90579450.80326736,0.8609855052560587,8.526799203842865
127.0,763921357.1200626,112991536.58847763,0.8576683890738406,8.466518471917858
128.0,946511349.7726794,140979302.3670688,0.8542797310997722,8.407171410462352
129.0,1172464480.1146293,175932978.1478746,0.8508200015465918,8.3487230908719
130.0,1451875135.0350635,219594219.60934338,0.8472897536423414,8.291142758940138
131.0,1797142391.6584704,274139747.9622799,0.8436896279283554,8.234403406263787
132.0,2223483024.140919,342280314.4251335,0.8400203563519771,8.178481378548993
133.0,2749540024.90069,427379357.3369424,0.8362827661458183,8.12335601869144
134.0,3398097765.9333553,533598132.1414718,0.8324777834702016,8.069009341947087
135.0,4196922339.852297,666076368.5249137,0.8286064367983049,8.015425740834129
136.0,5179754346.129643,831159048.6238368,0.8246698600240702,7.962591717510617
137.0,6387490049.2825365,1036680212.1866722,0.8206692952754258,7.910495641510842
138.0,7869594717.735284,1292313129.7696648,0.8166060954106279,7.859127530768045
139.0,9685794803.34867,1609993883.8654945,0.8124817261819042,7.808478854071996
140.0,11908090243.482292,2004424619.3505223,0.8082977680507374,7.7585423531835405
141.0,14623120352.988405,2493664495.689979,0.8040559176386546,7.709311882928722
142.0,17934908821.68109,3099822687.524694,0.7997579887994316,7.660782267719431
143.0,21968012794.79251,3849876699.0350485,0.7954059133001053,7.612949173055797
144.0,26871111312.892086,4776648709.145298,0.7910017410996787,7.565808990669276
145.0,32821088109.44117,5919979497.028864,0.7865476402172791,7.519358736069708
146.0,40027681163.54258,7328140093.318859,0.7820458961817545,7.4735959573443616
147.0,48738801745.48271,9059513866.567453,0.777498911054884,7.428518654147869
148.0,59246614372.20194,11184572011.01436,0.7729092020287492,7.384125205927616
149.0,71894451589.0907,13788156856.313988,0.7682793995950519,7.340414308485976
150.0,87084598889.91823,16972089198.498064,0.763612245287638,7.297384918062878
151.0,105286945910.44327,20858129582.17616,0.7589105890019434,7.255036202192661
152.0,127048499136.87512,25591344513.404198,0.7541773858953681,7.213367496650988
153.0,153003678859.59348,31343955102.828777,0.7494156928840178,7.17237826788241
154.0,183885382907.2392,38319753164.73574,0.7446286647455724,7.13206808033872
155.0,220537104749.12833,46759138355.26047,0.7398195498205652,7.09243656818903
156.0,263925842062.50165,56944833591.846954,0.734991685360766,7.053483410983989
157.0,315156019519.5588,69208266021.2169,0.7301484925230163,7.015208312821769
158.0,375484464247.70483,83936575558.22583,0.7252934710295726,6.977610984639004
159.0,446335843797.82007,101580252155.72101,0.7204301935323528,6.940691129293415
160.0,529318881809.60455,122661359707.39868,0.7155622996784474,6.9044484291137795
161.0,626243083125.1082,147782429763.92654,0.7106934899353027,6.868882535627949
162.0,739135701349.4181,177636007573.58633,0.7058275191567475,6.833993061249621
163.0,870257667004.0319,213015000348.70724,0.7009681899772325,6.799779572684266
164.0,1022119602186.393,254823819829.90195,0.6961193460500814,6.76624158580031
165.0,1197499547263.2207,304089833845.009,0.6912848650746446,6.733378561893184
166.0,1399456807132.454,361975679741.17017,0.6864686518107186,6.701189905033635
167.0,1631349190285.3347,429791315274.1834,0.6816746309354992,6.66967496050939
168.0,1896844375652.0337,509006716676.9911,0.6769067399300598,6.638833014062429
169.0,2199934168422.167,601263933036.4697,0.6721689218999434,6.608663291988827
170.0,2544949645161.112,708389201058.4503,0.6674651184336162,6.579164961811542
171.0,2936563046854.773,832405612511.0315,0.6627992625498091,6.550337133550985
172.0,3379799570025.4546,975544607877.1488,0.6581752716923712,6.522178861503405
173.0,3880046220730.9087,1140257247428.2788,0.6535970408494732,6.494689146395904
174.0,4443053736734.172,1329225156256.668,0.6490684358269148,6.467866937878973
175.0,5074938863918.316,1545370370060.2395,0.6445932866935249,6.441711137313863
176.0,5782191498827.972,1791863579313.2861,0.6401753814138614,6.416220600794635
177.0,6571681542407.389,2072131047086.238,0.6358184597011617,6.391394142347572
178.0,7450642069518.871,2389862454649.1123,0.6315262071534777,6.367230537257605
179.0,8426688550942.988,2749014985027.168,0.6273022495872629,6.3437285255244
180.0,9507827407766.848,3153816949762.847,0.6231501476989235,6.320886815395267
181.0,10702429903394.266,3608774525812.6367,0.6190733919732027,6.298704086883457
182.0,12019277899263.117,4118671378406.906,0.6150753979741731,6.277178995415576
183.0,13467577050465.63,4688570543457.52,0.6111595019283161,6.256310175411582
184.0,15056889789530.16,5323824794744.562,0.607328956533513,6.236096243754903
185.0,16797285052530.496,6030068218744.818,0.6035869271588727,6.216535803448912
186.0,18699319650592.023,6813222438465.07,0.599936488625936,6.197627447063176
187.0,20773970509921.062,7679513725007.872,0.5963806216217133,6.17936976002742
188.0,23032888860652.055,8635459024529.993,0.5929222104714676,6.161761324167188
189.0,25488261281184.28,9687897070104.723,0.5895640400977432,6.14480072078525
190.0,28153045493866.016,10843983448514.342,0.5863087944013288,6.128486533946081
191.0,31040884851245.055,12111230139474.604,0.5831590537359171,6.112817353436088
192.0,34166359748660.906,13497509340017.213,0.5801172942166303,6.0977917777691255
193.0,37545160689008.97,15011081571223.387,0.5771858855330515,6.083408417152825
194.0,41193870583718.28,16660669694899.281,0.574367090421752,6.069665895923448
195.0,46283201069461.53,17161493096728.94,0.5548417393892318,6.391543886674448
196.0,52397712509633.98,15242267234397.957,0.5042948453824192,7.391542684040825
197.0,56659353320044.51,13529046687802.178,0.45798565264529884,8.391542623018859
198.0,59385790041818.15,12001159943109.258,0.4156131684965493,9.39154256199693
199.0,60851279302966.68,10639790358022.176,0.37689071076338293,10.391542500974976
200.0,61291559299944.0,9427847131555.924,0.34154620600068986,11.391542439953037
201.0,60908428167936.086,8349828520327.941,0.3093221587268477,12.391542378931113
202.0,59873751068133.64,7391701667854.32,0.27997565600707475,13.391542317909165
203.0,58333176299322.164,6540781826534.147,0.25327816381284235,14.391542256887215
204.0,56409429651778.5,5785621465957.73,0.2290152748636149,15.39154219586527
205.0,54205299149475.14,5115903640067.265,0.20698633894757038,16.391542134843355
206.0,51806249532935.72,4522346557655.655,0.18700410510250698,17.391542073821444
207.0,49282796641978.24,3996610267082.066,0.16889423061859377,18.39154201279953
208.0,46692596825302.875,3531211276126.6094,0.15249477175829393,19.39154195177762
209.0,44082298369851.3,3119442973403.668,0.13765563364205663,20.3915418907557
210.0,41489157399962.17,2755303414218.2036,0.1242380213443482,21.391541829733786
211.0,38942463916531.57,2433427945227.1436,0.11211385912838977,22.391541768711875
212.0,36464784449026.29,2149027767435.218,0.10116521224277782,23.391541707689964
213.0,34073052522470.953,1897832582836.6355,0.09128368519523974,24.39154164666805
214.0,31779514291724.43,1676038043467.9797,0.08236982216238854,25.391541585646134
215.0,29592536375147.344,1480258931561.264,0.07433254176956093,26.39154152462422
216.0,27517304732611.26,1307486003311.4421,0.06708857324954026,27.391541463602305
217.0,25556421896806.273,1155047007285.382,0.06056191503657259,28.391541402580394
218.0,23710418031725.676,1020571005165.1235,0.05468330494035432,29.39154134155848
219.0,21978185386535.195,901955758910.6636,0.049389703906864126,30.391541280536565
220.0,20357340459130.113,797339067155.8341,0.0446238231307188,31.39154121951465
221.0,18844529302242.508,705072620316.3748,0.04033366783873324,32.39154115849274
222.0,17435681586901.877,623698569744.4756,0.036472108900954855,33.39154109747083
223.0,16126221195509.688,551928398478.7598,0.03299647786739717,34.39154103644891
224.0,14911239478788.771,488623679291.79474,0.029868179340702114,35.391540975427
225.0,13785634624766.732,432779319748.7395,0.02705234180498643,36.391540914405084
226.0,12744224295031.643,383508420926.03046,0.024517488462174244,37.39154085338317
227.0,11781835036033.252,340028792810.0022,0.02223523291015314,38.39154079236126
228.0,10893372298451.346,301650929630.65155,0.02017999778241041,39.39154073133935
229.0,10073874024310.047,267767104701.6974,0.018328749315440717,40.39154067031751
230.0,9318544458196.936,237847976489.2984,0.016660840985940038,41.39148738069558
231.0,8556841914150.231,300305189144.8384,0.016294512266381254,41.582462478173376
232.0,7896289015507.854,386548499989.7619,0.01625116426424682,41.57509030047291
233.0,7350614561673.736,475015735939.929,0.01623308478367236,41.572011561040846
234.0,6911335755080.367,566625802650.6649,0.01624005416441192,41.57319864371518
235.0,6571671455389.804,662309739036.0974,0.016271934893457157,41.578624401279185
236.0,6326436366165.262,763023549877.6951,0.016328667774438803,41.58826349376652
237.0,4261943044112.476,4971984915616.958,0.5744969491156533,6.070479141177003
238.0,7170248917267.848,4568590039392.877,0.5772826442771256,6.08406557046002
239.0,9598795523427.432,4246061357820.258,0.5801759008736809,6.0982661754694245
240.0,11641516188774.791,3997586094099.558,0.5831743426734664,6.113081087670942
241.0,13380668111900.28,3817724615154.053,0.5862755010313876,6.128510446946264
242.0,14888960922404.08,3702296172810.5273,0.5894768164710157,6.144554398982297
243.0,15416401446698.486,4709334223051.059,0.5927756404720541,6.161213092586758
244.0,16542226353416.658,6220965685094.631,0.5961692375987032,6.178486677000652
245.0,18895079440302.113,7471819050470.192,0.5996547877276294,6.19637529906157
246.0,22211878251402.35,8518670315947.355,0.6032293886454193,6.214879100364815
247.0,26289935587252.547,9411031796573.768,0.6068900588664295,6.233998214374606
248.0,30977969632596.28,10192556016514.66,0.610633740719255,6.253732763500418
249.0,36127595868717.32,10947989113485.271,0.6144573037170049,6.274082856126074
250.0,41367145412545.83,12280896223293.273,0.6183575481622721,6.295048583676475
