Time,J,A,S,tau
0.0,100.0,10.0,0.588967700022917,57.409870512395976
1.0,99.73758056212908,8.983912737299345,0.5876411377483489,58.404568509206484
2.0,99.47837970896659,8.07300866716225,0.586326686180497,59.39949728351742
3.0,99.22252070289927,7.2566327665883765,0.585023453094449,60.39460563638799
4.0,98.96970924262342,6.52493723594262,0.5837306415065754,61.38987261959227
5.0,98.71966563412575,5.869116154989952,0.5824474650803513,62.38527886029246
6.0,98.4721230645769,5.281284757697755,0.5811731478904802,63.38080634624757
7.0,98.2268260308416,4.7543862843904545,0.5799069240922927,64.37643823156786
8.0,97.98352895686054,4.282108677911315,0.5786480375781271,65.37215866524416
9.0,97.74199487163413,3.858798435618437,0.5773957415324545,66.36795262864827
10.0,97.50199420272398,3.4793958911702885,0.5761492979562545,67.36380578731061
11.0,97.26330367615651,3.1393740710272118,0.5749079771983605,68.35970435458795
12.0,97.02570524597759,2.834677933316998,0.573671057417831,69.35563495982292
13.0,96.78898510116676,2.5616790835070424,0.5724378240590791,70.35158452473655
14.0,96.55293271889363,2.317130554162269,0.5712075693415068,71.3475401437085
15.0,96.31733993120032,2.0981245470561682,0.5699795917138435,72.34348896569776
16.0,96.08200002814553,1.902060421933878,0.5687531953486035,73.33941807799873
17.0,95.8467068640601,1.72661118856452,0.5675276896570637,74.33531438789542
18.0,95.61125396455535,1.569694503788045,0.56630238880407,75.33116450323091
19.0,95.3754336243356,1.4294497244041278,0.56507661128066,76.32695460761292
20.0,95.13903597753529,1.304213358493442,0.5638496795097696,77.32267032884214
21.0,94.90184805120775,1.1924988607869225,0.5626209194859295,78.31829660254205
22.0,94.66365274851402,1.0929815291699883,0.5613896604942571,79.31381752020489
23.0,94.42422780698163,1.0044784026904627,0.5601552348737525,80.3092161710633
24.0,94.18334466175133,0.9259376618064505,0.5589169778687672,81.30447446441978
25.0,93.9407672325835,0.8564232331935038,0.557674227566562,82.2995729357233
26.0,93.6962506285163,0.7951057351261661,0.5564263249253466,83.29449053553206
27.0,93.44953967953059,0.7412509478946064,0.5551726139391321,84.28920438428369
28.0,93.20036741046461,0.6942129277924778,0.5539124419039291,85.28368951387519
29.0,92.9484532751742,0.6534241820064347,0.5526451598669199,86.27791856216075
30.0,92.6935012370679,0.6183910470248092,0.5513701232288052,87.27186143653006
31.0,92.43519768600942,0.5886865109480438,0.5500866925364074,88.26548494270318
32.0,92.17320894441019,0.5639461034700479,0.5487942345463337,89.25875233524923
33.0,91.90717865449388,0.5438640092062336,0.5474921234974227,90.25162284017641
34.0,91.63672484401131,0.5281886897142405,0.5461797426752479,91.24405111223766
35.0,91.36143643150466,0.5167210448687535,0.5448564863752126,92.23598658389929
36.0,91.08086945716359,0.5093121896684533,0.5435217622010869,93.22737275456036
37.0,90.79454297767714,0.5058615972022966,0.5421749937238663,94.21814640843039
38.0,90.5019333275085,0.5063219531971689,0.5408156241137566,95.20823652575731
39.0,90.20246961622422,0.5106902306090182,0.539443119572952,96.19756339520337
40.0,89.8955271804935,0.5190133746469913,0.5380569739054649,97.18603734684663
41.0,89.5804202000581,0.5313898071775495,0.5366567139122109,98.17355730689331
42.0,89.25639413740782,0.5479722436053491,0.5352419051758921,99.16000930208128
43.0,88.92261605709588,0.5689676668608994,0.5338121594660528,100.14526453597742
44.0,88.57816445639672,0.5946451347347709,0.5323671427279618,101.12917735673989
45.0,88.22201789866287,0.6253386506009408,0.5309065842066675,102.11158296259558
46.0,87.85304150488764,0.6614529572184372,0.5294302873117365,103.09229466583798
47.0,87.46997230628041,0.7034704964077935,0.5279381416163585,104.07110090134512
48.0,87.0714018921624,0.7519599169036847,0.5264301371017464,105.0477616668044
49.0,86.6557577258842,0.8075859662897265,0.5249063797410428,106.02200465488852
50.0,86.23186533969843,0.8766472880211257,0.5233671084451783,106.99352105820994
51.0,85.96276043897412,1.0389859165271647,0.5218127157116752,107.96196040806011
52.0,85.71237117493605,1.2176448054016982,0.5202437690393341,108.92692524505244
53.0,85.48511206820238,1.4147036168270168,0.5186610356707652,109.88796491322911
54.0,85.28630421511114,1.6325079912401397,0.5170655089147482,110.84456893692403
55.0,85.1223529114693,1.8736991037406585,0.5154584369963764,111.79615970439053
56.0,85.00096169547844,2.141245685820475,0.5138413538239321,112.74208459693583
57.0,84.9313873932945,2.438477357223916,0.5122161113289101,113.68160762207509
58.0,84.92474334408084,2.7691185966285268,0.5105849128128519,114.61390066076598
59.0,84.99435901058537,3.137322153501605,0.5089503462944209,115.5380345455946
60.0,85.15620342302299,3.547700327969748,0.5073154164713252,116.45297027898263
61.0,85.42938347824328,4.005352885011548,0.5056835741808873,117.35755062130713
62.0,85.83672034376626,4.515887718268729,0.5040587399758245,118.25049287269002
63.0,86.40542728699916,5.085434083695577,0.5024453215929917,119.13038282291822
64.0,87.16788699194035,5.720641907043424,0.5008482196416542,119.99567129120695
65.0,88.16252857006587,6.428664865652953,0.49927281913334376,120.8446738266762
66.0,89.43482184076171,7.217123880607198,0.49772496394269433,121.67557426747199
67.0,91.03840611548837,8.094047151529642,0.49621091061397743,122.4864330075974
68.0,93.03628584023744,9.067779489706721,0.4947372548538745,123.27520190258579
69.0,95.50215938811839,10.146865153256732,0.49331083388878255,124.0397447724518
70.0,98.52183181526176,11.339896758392864,0.4919385984908141,124.77786538261451
71.0,102.19461847520529,12.655336371659555,0.49062745832823446,125.48734210850517
72.0,106.63485192485027,14.101308902615028,0.4893841026047851,126.16596884537532
73.0,111.97326014429349,15.685378409703016,0.4882148019364223,126.81160089626515
74.0,118.35832057779723,17.414315365906045,0.4871252015797838,127.42220362129633
75.0,125.95743006985101,19.29386580499639,0.486120112094172,127.99590209494865
76.0,134.9578550855973,21.328544156160056,0.48520331968791375,128.53102695389336
77.0,145.56746577920313,23.521449043772165,0.4843774126599098,129.0261564985955
78.0,158.01505497234518,25.874138779211762,0.4836436593601874,129.48014732690044
79.0,172.5504492809905,28.386544132059903,0.4830019155590169,129.89215762478267
80.0,189.4440644646263,31.05696416572871,0.482450604800262,130.26165362888202
81.0,208.9863060272569,33.88209959438812,0.48198672956675015,130.58840804036382
82.0,231.4863652219174,36.85716854502321,0.4816059562513412,130.872481176222
83.0,257.2709395468867,39.97604588952126,0.4813027200309405,131.11419649957912
84.0,286.6823923865434,43.2314613191228,0.4810703840859596,131.31410342807627
85.0,320.0769086301856,46.615200137964116,0.48090140162735795,131.47293865317766
86.0,357.82219490613517,50.11832841363653,0.4807875027940952,131.59158180754073
87.0,400.2952087881224,53.731402285852894,0.4807198689656896,131.67101351854737
88.0,447.87955943557427,57.4446712699138,0.4806893052317958,131.71227427173454
89.0,500.9629231066194,61.248254902612345,0.4806863913304106,131.71642803927065
90.0,559.9342462381895,65.1322956808977,0.4807016145888724,131.68453062412462
91.0,625.180912732289,69.08708280909038,0.4807254791910673,131.61760350153688
92.0,697.0857693982146,73.10314850456324,0.48074859319542645,131.51661328503758
93.0,776.0241218584488,77.17133612575444,0.48076173322408894,131.38245676500128
94.0,862.3605765747836,81.28284666952572,0.48075589116746836,131.21595024255694
95.0,956.445807037886,85.42926477820231,0.4807223037495764,131.0178232921585
96.0,1058.613250204331,89.60256672112533,0.48065246838840747,130.788716001119
97.0,1169.1757931125123,93.79511465146567,0.4805381476365924,130.52917921057764
98.0,1288.422213287025,97.99964389918789,0.48037136776535466,130.23967617096667
99.0,1416.6137119342463,102.20924016515774,0.48014440977020884,129.9205864186908
100.0,1553.98030551136,106.41731287032077,0.47984979766628616,129.57221045326278
101.0,1700.717297926476,110.61756432780726,0.47948028404650594,129.1947753965095
102.0,1856.9823996184064,114.80395632307263,0.4790288331691561,128.788441562436
103.0,2022.8909543280643,118.97069018339349,0.4784886140307439,128.35330608446955
104.0,2198.511321883406,123.11216603466171,0.47785298695159145,127.88940978993008
105.0,2383.869271928942,127.22294536575424,0.47711547137274296,127.39674805142724
106.0,2578.9290560509535,131.29776072422285,0.47626978556379784,126.8752640538873
107.0,2783.6125857229945,135.33143350702548,0.4753097734253429,126.32487087229511
108.0,2997.772005919555,139.31891556262914,0.4742294739720272,125.74543891384909
109.0,3221.2109030195606,143.25520762778842,0.4730230531552599,125.13681579396473
110.0,3453.6616826141176,147.13540176280276,0.4716848646548714,124.49881795955544
111.0,3694.800013901299,150.95461499297855,0.4702094088245669,123.83124394168782
112.0,3944.2349927262294,154.70801012744622,0.4685913646628215,123.13387248589288
113.0,4201.507253861513,158.39077519280622,0.46682560348286894,122.40646691953255
114.0,4466.094561686764,161.9981142419025,0.46490718448061175,121.64877913540973
115.0,4737.4098061133445,165.5252506655172,0.4628313754679463,120.86055121197619
116.0,5014.797531750904,168.96741693742908,0.4605936853782753,120.04151797013935
117.0,5297.54185871094,172.31985414959226,0.458189859136054,119.19140967561492
118.0,5584.866118995904,175.57782327479447,0.4556159095882291,118.30995356666166
119.0,5873.323368532486,178.27799166795512,0.5346179978559172,53.76516701116343
120.0,6167.048004805229,191.72846608210563,0.5426264739704616,47.135527138525
121.0,6490.476785654569,212.43163522961984,0.5435520935220307,43.73303935574482
122.0,6860.951948792255,240.19710235895653,0.5417929723865111,41.41775855999219
123.0,7295.577744815182,275.2677964355254,0.538620842369707,39.64205888437483
124.0,7811.995037497401,317.98413015868704,0.534592837269716,38.18469335195312
125.0,8428.450568789296,368.68595204841404,0.5300061793505672,36.935269001530564
126.0,9163.639554163592,427.6660071801439,0.5250393096755452,35.83139567534154
127.0,10036.421357074829,495.1421382417485,0.5198080095243995,34.834834385219054
128.0,11065.457799330237,571.2389821276064,0.5143916756327407,33.920758017257526
129.0,12268.796146922423,655.9758108521355,0.5088470202103248,33.072343168454424
130.0,13663.429636407045,749.259099446833,0.5032158515346403,32.27779859408366
131.0,15264.839650210804,850.8789900010563,0.4975297694634562,31.52862952926201
132.0,17086.572812962953,960.5097405223715,0.49181318562313736,30.81855949451736
133.0,19139.79184141576,1077.712603802153,0.48608527950081903,30.14285514431429
134.0,21432.89771702376,1201.9426169387477,0.4803613891430314,29.49786569989658
135.0,23971.242299709233,1332.5560283307361,0.4746539497984827,28.880720018168486
136.0,26756.819064300904,1468.8207450257253,0.4689731826176871,28.28911607922216
137.0,29788.084063505863,1609.9281806050803,0.4633276031135403,27.721170731112892
138.0,33059.84450804205,1755.0059306863677,0.4577243913591063,27.175314451218835
139.0,36563.220723257735,1903.131141601378,0.4521696688726461,26.650215654798533
140.0,40285.67338674502,2053.344302951577,0.4466687078246411,26.144725885005606
141.0,44211.12595902263,2204.663300306055,0.44122609529421125,25.65783901545184
142.0,48320.17081671493,2356.0970204243154,0.4358458566255253,25.188661094180567
143.0,52590.37356338365,2506.6196781305885,0.43053155164788703,24.73638822829158
144.0,56993.76260565967,2655.902444216472,0.4252863461377169,24.30028969958262
145.0,61511.01469105296,2827.1157380109535,0.4201130716338075,23.879695244571625
146.0,66186.66716001743,3039.636736982458,0.4150142741081989,23.473985502888983
147.0,71110.8743278578,3310.5992978010845,0.4099922493686078,23.082584385492964
148.0,76410.86030904572,3656.93608968035,0.40506926498921,22.70323006662321
149.0,82248.61094048813,4088.6541413095165,0.4001171197856279,22.34635280332839
150.0,88792.66790492253,4612.6811362924145,0.39505514800200103,22.01743566270688
151.0,96214.96468472482,5235.367704181379,0.3898837850151956,21.7150285450179
152.0,104685.25534439873,5959.931910692949,0.38460417138217795,21.43778462458955
153.0,114361.876443988,6786.438004168247,0.3792181579026199,21.184450296619875
154.0,125383.4274501404,7711.908084082145,0.37372830228386283,20.953856403302655
155.0,137861.31261496147,8730.552159287927,0.36813786014508276,20.744910644585914
156.0,151874.69221205838,9834.076723475913,0.3624507667872115,20.55659078869856
157.0,167466.1045630576,11012.079590820982,0.3566716142606779,20.387938601341848
158.0,184639.67977821996,12252.458655423388,0.35080562271736093,20.238054615597125
159.0,203360.20291315104,13541.86074690612,0.3448586064571563,20.106093258559905
160.0,223554.43324956423,14866.10598979443,0.3388369349177127,19.99125862776308
161.0,245113.21353233355,16210.6072521789,0.3327474900117707,19.89280056513223
162.0,267895.08913443814,17560.746294903845,0.32659761873059767,19.81001119739204
163.0,291730.6568482885,18902.126133557773,0.32039508361747693,19.742221732022195
164.0,316426.10825599334,20221.26417132482,0.314148009325013,19.68879959001278
165.0,341770.7638829215,21523.4314442708,0.30786482900617507,19.649145849965397
166.0,367588.13314421923,22831.939282107338,0.30155422571165064,19.622692681915243
167.0,393771.8921498897,24179.807900604817,0.29522511360268444,19.608898884934135
168.0,420296.7256607801,25604.8554917193,0.28888266088917136,19.607507353313878
169.0,447232.0073783476,27179.303289574338,0.28269473435518205,19.607507353313878
170.0,474798.5760426315,28948.909133587345,0.276683904973571,19.607507353313878
171.0,503291.1984347024,30952.85877297878,0.27085142823869174,19.607507353313878
172.0,533059.6052961899,33225.41154238925,0.26519825795829255,19.607507353313878
173.0,564490.0460900771,35794.06327329106,0.25972506074882634,19.607507353313878
174.0,597986.6880288557,38678.23223043826,0.25443223120447833,19.607507353313878
175.0,633950.9100443267,41888.44299977411,0.2493199079623364,19.607507353313878
176.0,672762.4136928127,45426.071428639545,0.24438799171525927,19.607507353313878
177.0,714763.5013573531,49283.452584315135,0.2396361609182665,19.607507353313878
178.0,760242.2259793121,53444.4184924162,0.23506389102833078,19.607507353313878
179.0,809422.5216337236,57885.16099476698,0.2306704727780414,19.607507353313878
180.0,862456.8328214261,62575.27733495587,0.22645502989535313,19.607507353313878
181.0,919421.4656021955,67478.98178283875,0.22241653779245146,19.607507353313878
182.0,980315.5977219647,72556.38753955648,0.21855384189657326,19.607507353313878
183.0,1045063.320293391,77764.72306403761,0.21486567579786334,19.607507353313878
184.0,1113517.4893454986,83059.93840979232,0.21135067911666366,19.607507353313878
185.0,1185466.000516338,88405.32619037169,0.20800741499283193,19.607507353313878
186.0,1260655.6671583736,93779.94804740946,0.20483438691834727,19.607507353313878
187.0,1338831.675783301,99181.56518294163,0.20183005592753384,19.607507353313878
188.0,1419777.4580853793,104626.59817349115,0.19899285624284518,19.607507353313878
189.0,1503342.3504345403,110161.01981241902,0.19632120994824998,19.607507353313878
190.0,1589502.665604894,115848.25626129254,0.19381354233008294,19.607507353313856
191.0,1678381.1081923002,121762.2032174271,0.19146829585513994,19.607507339325633
192.0,1770253.8513497133,127983.75152110533,0.18928388688560158,19.6075110961991
193.0,1866814.772231084,132845.10027704376,0.185610173944446,19.719482421309376
194.0,1962913.066804953,125081.03598009689,0.17040165914666425,20.668935102140605
195.0,2034909.7869766143,117077.9313071878,0.1558027649739728,21.66887732583692
196.0,2085185.106416146,109584.32402359987,0.14244738060870896,22.668875824985072
197.0,2116762.5708115622,102570.2724523181,0.13023656274505152,23.668874532253657
198.0,2132335.745745501,96006.70956459224,0.11907758236703948,24.66887066690055
199.0,2134109.670986637,90124.31052993801,0.10912712341316468,25.640656379001026
200.0,2124197.5425550216,91825.62266850253,0.1065904887779205,25.811019373737192
201.0,2120154.648775754,95430.92955544728,0.10563006428778665,25.811032298965515
202.0,2124252.186406894,99451.32087153895,0.10478702219743012,25.811032292962782
203.0,2136804.5008742986,103926.624893144,0.10405991409965842,25.81103229296276
204.0,2158200.5302421576,108891.87520314059,0.10344757468477693,25.81103229296276
205.0,2188891.1919821533,114376.55621675182,0.10294901428933073,25.81103229296276
206.0,2229379.7275406835,120404.24072798862,0.10256342148335792,25.81103229296276
207.0,2280209.3046406643,126992.52503420156,0.10229016457732411,25.81103229296276
208.0,2341956.209257207,134153.1341930404,0.10212879424094216,25.81103229296276
209.0,2415220.574910088,141892.27237789743,0.10207904419107487,25.81103229296276
210.0,2500618.935000998,150211.0941517525,0.10214083175623535,25.81103229296276
211.0,2598778.146486104,159107.38811053205,0.10231425806792149,25.81103229296276
212.0,2710333.2350755474,168578.95242610676,0.10259960780582092,25.81103229296276
213.0,2835932.383380836,178627.5707877336,0.1029973484940949,25.81103229296276
214.0,2976249.6378577705,189262.85894227945,0.10350812934111209,25.81103229296276
215.0,3132004.790756027,200507.4526418875,0.10413277961026596,25.81103229296276
216.0,3303993.9852305814,212401.3464935514,0.1048723065048445,25.811032292971728
217.0,3493127.6268036487,225003.9533047604,0.10572789254420958,25.81103229300676
218.0,3700466.619326455,238396.94470098574,0.10670127337135693,25.810992280103015
219.0,3842742.4957328015,450326.734174613,0.18769915296407488,19.617756691842942
220.0,4520146.921568865,458536.1088839122,0.18994483772148035,19.607542174353014
221.0,5176139.000979502,467911.1981413303,0.19217892014500904,19.60754204805867
222.0,5817050.73688343,478979.71134770144,0.1945743305972623,19.607542048062967
223.0,6449608.780719559,491930.01029323594,0.19713260689076906,19.607542048062967
224.0,7080574.2653408665,506971.9952000969,0.19985531064634637,19.607542048062967
225.0,7716825.271872602,524336.7711833244,0.20274401613041804,19.607542048062967
226.0,8365444.257983118,544275.9359707045,0.2058002959959833,19.607542048062967
227.0,9033780.351555003,567061.4579208208,0.2090257065795654,19.607542048062967
228.0,9729538.397579644,592984.9391732247,0.21242177233671294,19.607542048062967
229.0,10460841.941156505,622357.6764528269,0.21598996957519934,19.607542048062967
230.0,11236304.437784623,655510.3362036073,0.21973171016078208,19.607542048062967
231.0,12065104.554666724,692793.6263121228,0.22364832364526005,19.607542048062967
232.0,12957040.575988766,734580.2421846113,0.22774104059095757,19.607542048062967
233.0,13922624.53833773,781268.6528002175,0.2320109735031301,19.607542048062967
234.0,14973136.5965299,833289.2850419398,0.23645909978000948,19.607542048062967
235.0,16120749.621317586,891112.9764430065,0.24108624231250514,19.607542048062967
236.0,17378613.092828307,955263.3005598142,0.24589305185524743,19.607542048062967
237.0,18761024.692764435,1026329.7271200183,0.2508799883739354,19.607542048062967
238.0,20283577.798702966,1104987.7538379515,0.25604730268772335,19.607542048062967
239.0,21952663.561422203,1265922.5117486701,0.26139502003639004,19.607542048062967
240.0,24034375.962651327,1471525.6576118725,0.2669229197442917,19.607542048062967
241.0,26582391.529574748,1680878.3110774672,0.27263052187365344,19.607542048062967
242.0,29593267.164962847,1895730.2255921296,0.2785170692955061,19.607542048062967
243.0,33069486.268715847,2117990.92179052,0.2845815137525455,19.607542048062967
244.0,37019596.04446933,2349760.6932205847,0.290822500248083,19.607542048062967
245.0,41459034.28259906,2591748.9759331886,0.29714642175268896,19.61180034319008
246.0,46402323.84972572,2842689.673954328,0.3033616643298307,19.62894476337707
247.0,51863452.21697987,3104688.899113925,0.3094813784863453,19.65802730308358
248.0,57861852.70433569,3379579.2388153835,0.3154980964140548,19.69909087914559
