Time,J,A,S,tau
0.0,100.0,10.0,0.8926707184483748,16.46160375133715
1.0,100.03196827441536,19.465038993166633,0.8747464251886814,15.871529206065649
2.0,107.87149208038258,28.543216089042794,0.8558862571621295,15.255634932416244
3.0,122.74566202238852,37.21019320618444,0.8361005772779244,14.613660975964388
4.0,143.83553170653337,45.44281990174689,0.8154052343191573,13.945329015900883
5.0,170.28529299858394,53.21903649473767,0.7938228236033734,13.250368058018875
6.0,201.21205523677006,60.518110140851036,0.7713830629261024,12.528514902448771
7.0,235.7163216968741,67.32087656528634,0.748123110746456,11.779514618138258
8.0,272.89292066284855,73.60998456408952,0.7240878096038122,11.003121015843163
9.0,311.8424882458324,79.37013795239253,0.6993298378034096,10.199097126744194
10.0,351.7941836207935,84.43563199639856,0.6792749875149369,9.599953050266574
11.0,388.3247196679463,93.62926167804066,0.6691692893860242,9.439264607923775
12.0,423.4379784294395,108.77598623995657,0.6589202602589965,9.282633578974615
13.0,461.3425185314883,128.74864424146847,0.6485373348934641,9.129983438038199
14.0,504.94063270206976,152.4550559529189,0.6380305093206659,8.981237987846937
15.0,555.943938872816,178.85174408918658,0.6274103136509934,8.836321472565961
16.0,615.0085186088857,206.95622602264208,0.6166877805282697,8.695158682509474
17.0,681.8838601623947,235.8577180967022,0.6058744099401596,8.55767505281772
18.0,755.5707325616288,264.7266603798448,0.5949821295361206,8.423796751596216
19.0,834.2725327469349,293.0458576271538,0.584023252453661,8.293450765809443
20.0,913.9398798538948,323.16543654226666,0.5730104294847552,8.166564968375924
21.0,992.0875952195748,357.7118592452819,0.5619566010937462,8.043068191846974
22.0,1068.5520955152062,397.9761138731709,0.5508749446975807,7.922890285485126
23.0,1144.3203383098175,444.16977887607635,0.5397788211646244,7.805962171814594
24.0,1220.7827374728001,495.5528109746228,0.5286257592225688,7.693747025063857
25.0,1299.6305575838792,549.8511346505968,0.5169885804784069,7.597750606484196
26.0,1380.8597957229267,605.1084832098404,0.5048123648471273,7.5185989457299405
27.0,1463.3729104922268,659.5253585217213,0.4920957270334041,7.455603442085387
28.0,1544.6260901022113,712.3460887557491,0.47884334652241,7.408112192256157
29.0,1621.5344782818809,763.6785869594,0.46506635448843137,7.375507464777736
30.0,1691.4751335157957,813.759495557596,0.4507826372373856,7.3572033979969955
31.0,1752.6179078626112,862.5441258965848,0.4360095053382084,7.352823479132655
32.0,1802.955110714673,910.6918160776723,0.42116044396498886,7.352823479132655
33.0,1842.073179317186,957.8575064094075,0.4064455630289258,7.352823479132655
34.0,1870.315234782179,1002.8588683168998,0.3918921642577077,7.352823479132655
35.0,1887.9852335431028,1044.3821440426168,0.37752670953670325,7.352823479132655
36.0,1964.2980729434864,1000.9892783365973,0.3384403343171121,7.958196155075709
37.0,2023.6760245428518,909.6659967406245,0.2882981723094097,8.9581954197816
38.0,2021.5870397404187,824.8658021617272,0.24417602183274129,9.958194684487488
39.0,1971.682180123324,746.3292039642951,0.20560139654635068,10.958193949193364
40.0,1885.9051201525588,673.7850423576515,0.17209740897018447,11.958193213899246
41.0,1774.5428857861584,606.9530397506821,0.143190397694283,12.958192478605136
42.0,1646.3014415279085,545.5464080863599,0.11841704560312824,13.958191743311021
43.0,1508.4070850941794,489.2742218539157,0.09733023058458493,14.9581910080169
44.0,1366.7228517557887,437.84391220951073,0.07950440275062459,15.958190272722781
45.0,1225.8802931435366,390.9633284627858,0.06453926227523953,16.958189537428662
46.0,1089.416149796216,348.3430112052534,0.05206319056836071,17.958188802134543
47.0,959.9143148452038,309.6979130023126,0.041734854549316594,18.95818806684042
48.0,839.1445765681533,274.74930632231053,0.03324463382322011,19.958187331546302
49.0,728.197589355309,243.22619420380164,0.0263145700792183,20.958186596252176
50.0,627.6101654371897,214.8666016088506,0.02069779022465731,21.95818586095805
51.0,537.4812513831018,189.41878409771155,0.016177491231440494,22.95818512566392
52.0,457.5750983873347,166.64209768525467,0.01256519656289952,23.958184390369794
53.0,387.41167194631385,146.30772784383214,0.009698748133786407,24.958183655075686
54.0,326.3430928974843,128.19916278097395,0.007439980158495521,25.958182919781578
55.0,273.61791486764395,112.11256949925378,0.005672370722834677,26.958182184487473
56.0,228.43255743243844,97.85695446770228,0.004298594039790917,27.958181449193365
57.0,189.97163934751566,85.25418656284093,0.003238137026325648,28.95818071389926
58.0,157.43834553347835,74.13888652260837,0.002425023746279723,29.95817997860513
59.0,130.07550602918795,64.35814614531583,0.0018056624788315837,30.958179243310994
60.0,107.18044712472202,55.771227513944375,0.0013369388169511063,31.95817850801686
61.0,88.11322596811806,48.24912020628011,0.000984467061597293,32.95817777272273
62.0,72.30035586720419,41.67403840051313,0.0007210593984472958,33.95817703742859
63.0,59.23506820731987,35.93886854106144,0.0005254022388769109,34.958176302134454
64.0,48.47502669277517,30.946577392647686,0.000380926059121646,35.958175566840325
65.0,39.638263588364836,26.60958868964272,0.00027485266201548796,36.958174831546216
66.0,32.39803183203572,22.84914056038729,0.00019740360589042374,37.9581740962521
67.0,26.47728959109149,19.594658000963072,0.00014115554973928606,38.95817336095799
68.0,21.642871051363997,16.783113528477728,0.0001005137051717408,39.958172625663885
69.0,17.699844665465946,14.358405789890556,7.129151212979009e-05,40.95817189036977
70.0,14.486216694872473,12.270760390550015,5.037803052309947e-05,41.95817115507566
71.0,11.868058199217886,10.476153197673705,3.5476871673274993e-05,42.95817041978155
72.0,9.735135566465734,8.935762517928252,2.4903681730531844e-05,43.95816968448744
73.0,7.997071229252243,7.615454556435968,1.7430629146857256e-05,44.95816894919333
74.0,6.580007395083925,6.485301536767575,1.216787628906022e-05,45.95816821389922
75.0,5.423744992799887,5.519133755267713,0.0,46.958167478605105
76.0,4.47932288432523,4.694127107571509,0.0,47.958166743311004
77.0,3.7069880495836682,3.9904255926500873,0.0,48.95816600801689
78.0,3.0745000032697742,3.390796087039059,0.0,49.95816527272277
79.0,2.5557330877482562,2.8803166472506065,0.0,50.95816453742866
80.0,2.1295217026927094,2.446093721975276,0.0,51.958163802134536
81.0,1.7787234927967475,2.0770110335813037,0.0,52.9581630668404
82.0,1.4894470163394136,1.7635021265650526,0.0,53.95816233154627
83.0,1.2504299680763895,1.497349849364305,0.0,54.95816159625213
84.0,1.0525349378362114,1.2715086377391067,0.0,55.958160860958
85.0,0.8883411044974507,1.0799474228496515,0.0,56.958160125663866
86.0,0.7518144102576196,0.9175113054614172,0.0,57.95815939036977
87.0,0.6380431384950754,0.7798014408711111,0.0,58.95815865507567
88.0,0.5430220551399743,0.6630682398512259,0.0,59.95815791978158
89.0,0.46348074535554734,0.5641199386933321,0.0,60.95815718448748
90.0,0.3967444830325567,0.48024276558641665,0.0,61.95815644919338
91.0,0.34062175879639073,0.4091314080373068,0.0,62.95815571389928
92.0,0.29331402718416477,0.34882953447651155,0.0,63.95815497860518
93.0,0.25334275162654546,0.2976786786435456,0.0,64.95815424331109
94.0,0.2194899502540716,0.2542732874060778,0.0,65.958153508017
95.0,0.19075059737558892,0.21742340854559752,0.0,66.95815277272291
96.0,0.16629381615337385,0.18612189914527305,0.0,67.95815203742882
97.0,0.14543135101201438,0.15951681569261492,0.0,68.95815130213474
98.0,0.1275920642783146,0.13688780095117145,0.0,69.95815056684064
99.0,0.11230105343312857,0.11762578374568462,0.0,70.95814983154655
100.0,0.09916268698189089,0.10121602695592596,0.0,71.95814909625243
101.0,0.08784671830430187,0.08722345625246365,0.0,72.9581483609583
102.0,0.07807695868261948,0.07528040878854252,0.0,73.95814762566418
103.0,0.0696219473962627,0.06507609694981599,0.0,74.95814689037005
104.0,0.06228739735297796,0.05634777524115935,0.0,75.95814615507592
105.0,0.05590980216664194,0.04887331838959547,0.0,76.95814541978179
106.0,0.05035137431402021,0.04246480706145952,0.0,77.95814468448766
107.0,0.04549572655799943,0.03696326018873713,0.0,78.95814394919354
108.0,0.0412443418236682,0.03223409021499893,0.0,79.9581432138994
109.0,0.03751372823313794,0.028163286852065404,0.0,80.9581424786053
110.0,0.034232899673520584,0.024654253890933227,0.0,81.95814174331119
111.0,0.03134142853102911,0.02162506743448377,0.0,82.9581410080171
112.0,0.028787782021378223,0.019006198105679988,0.0,83.95814027272299
113.0,0.026527919474163407,0.016738596115357086,0.0,84.95813953742889
114.0,0.02452411278832553,0.014772073061220081,0.0,85.95813880213478
115.0,0.02274399265504011,0.01306392845643451,0.0,86.95813806684066
116.0,0.021159726192407576,0.011577801782920788,0.0,87.95813733154652
117.0,0.019747331784921017,0.010282702201344663,0.0,88.95813659625239
118.0,0.018486116192483314,0.009152185338000426,0.0,89.95813586095825
119.0,0.017358184492511215,0.008163663517611401,0.0,90.95813512566411
120.0,0.016348030630981288,0.007297822169315317,0.0,91.95813439036999
121.0,0.015442199675911364,0.0065381254434187,0.0,92.95813365507586
122.0,0.01462897476549184,0.005870402935632834,0.0,93.95813291978173
123.0,0.013898154386358108,0.005282493242211436,0.0,94.9581321844876
124.0,0.013240832050679545,0.004763947366936009,0.0,95.95813144919347
125.0,0.012649220953232704,0.004305775628730481,0.0,96.95813071389935
126.0,0.012116493501133698,0.003900234936170417,0.0,97.95812997860526
127.0,0.011636656203314905,0.003540646631634827,0.0,98.95812924331115
128.0,0.011204440052246484,0.00322124198582172,0.0,99.95813355637193
129.0,0.010815195175838172,0.002937032723534061,0.0,100.04798705458076
130.0,0.010464847233975349,0.0026836948012661085,0.0,100.04798705458076
131.0,0.010149755452929428,0.0024574826234283437,0.0,100.04798705458076
132.0,0.009866713411498779,0.0022551410756356145,0.0,100.04798705458076
133.0,0.009612876825227528,0.0020738386869475637,0.0,100.04798705458076
134.0,0.009385703380606318,0.0019111108041808566,0.0,100.04798705458076
135.0,0.009182942775197545,0.0017648063549740916,0.0,100.04798705458076
136.0,0.008246609364029812,0.002707006909334449,0.09613250808302373,7.352486770917408
137.0,0.008599597523135265,0.002626200672722128,0.09977463984600257,7.352486770917408
138.0,0.008954735799516767,0.0025536432510340585,0.10346318701419684,7.352486770917408
139.0,0.009316015315241703,0.0024885857350324925,0.10719142194950747,7.352486770917408
140.0,0.009686835833683047,0.0024303606760062934,0.11095241469126162,7.352486770917408
141.0,0.010070726591261,0.0023776505534834794,0.11464600204329102,7.358992988773172
142.0,0.010470256733565013,0.0023291980675462583,0.11817014635593322,7.378852118023834
143.0,0.010877638179044828,0.0022941897567321577,0.1215252970398312,7.411962745109821
144.0,0.011275202686716492,0.0023165067265342627,0.12471265792862765,7.458295246890557
145.0,0.011730799770543471,0.0023430330238283044,0.12773508562240737,7.517813032522743
146.0,0.012245098057040242,0.0023734974721746935,0.13059683012641887,7.590472691345021
147.0,0.012819081335106813,0.0024076562788349016,0.13330325196276863,7.676224303027673
148.0,0.013453918171143577,0.0024453164905688515,0.1358620266682161,7.774900845864727
149.0,0.014150015537326546,0.0024877621022697323,0.13837610837173275,7.878815064271812
150.0,0.014909739943146316,0.0025354582462029708,0.14088325681423183,7.984921084151854
151.0,0.015736310619178503,0.0025882705832719717,0.14337950811340378,8.093359691076635
152.0,0.016631157544118935,0.002648685363907394,0.1458624572401306,8.204156086497637
153.0,0.017598676666009658,0.0027187023473142034,0.1483297698262377,8.317335116132812
154.0,0.018645817499293713,0.0027984400322030962,0.1507791916194983,8.432921261874274
155.0,0.0197797686785408,0.002888040825415022,0.15320855310454737,8.550938577985686
156.0,0.021007954858965092,0.0029876670807755636,0.15561577569896787,8.671410647604871
157.0,0.02233802467450738,0.003097499746942177,0.15799887694684359,8.79436053883817
158.0,0.023777791540669453,0.0032178073565300646,0.1603559748811018,8.919810756837721
159.0,0.02533527604385627,0.003348956429198161,0.1626852917694753,9.047783201674562
160.0,0.027018801909084202,0.0034913255096806844,0.16498515698258004,9.178299116864551
161.0,0.028836918742186295,0.0036453540198465636,0.16725400941769866,9.311379044977183
162.0,0.03079830562337009,0.003811733613518994,0.1694903991682091,9.447042781977416
163.0,0.03291203248949347,0.003991276526678481,0.17169298854263287,9.585309332426766
164.0,0.035187648444493874,0.004184826485721507,0.17386055223254693,9.726196864775163
165.0,0.037635136812541554,0.004393257199407803,0.17599197778018663,9.869722671900666
166.0,0.04026488451496012,0.004617469321381125,0.178086264123086,10.01590313095025
167.0,0.04308763496953005,0.004858387348162487,0.18014252052511082,10.164753664739766
168.0,0.046114429033560375,0.0051169578242955295,0.18215996476388452,10.316288709393437
169.0,0.049356537478927334,0.005394153060519609,0.18413792086758599,10.470521685417554
170.0,0.05282540014513877,0.0056909707120941155,0.18607581622586028,10.627464973320052
171.0,0.05653254233345767,0.0060084295775682806,0.18797317921320209,10.787129896008087
172.0,0.060489498959335926,0.0063475675938222615,0.18982963500682204,10.949526715816152
173.0,0.06470772977889738,0.0067094521536510705,0.1916449021487438,11.114664628072472
174.0,0.06919854820854582,0.007095188203877195,0.19341878850649913,11.282551767020664
175.0,0.07397298661093424,0.007505916592839719,0.1951511874204641,11.453195260281944
176.0,0.07904176586489409,0.007942809473159198,0.19684207351734292,11.62660124230039
177.0,0.08441522745146174,0.008407065452890088,0.19849149754704534,11.802774918209877
178.0,0.09010323047087271,0.008899904849796476,0.20009958186656765,11.981720657635154
179.0,0.09611506711543093,0.00942256416313734,0.2016665157149837,12.163442106185624
180.0,0.10245940021543935,0.00997628973841963,0.20319255028442262,12.347942317776969
181.0,0.10914405970685898,0.010562333040255511,0.2046779948799959,12.535223983547029
182.0,0.11617607997840895,0.01118194218634273,0.20612321152111668,12.725289607442404
183.0,0.12356160905127159,0.011836355572800585,0.20752860924106137,12.918141801901129
184.0,0.13130582676182695,0.012526794850282377,0.20889463953663798,13.113783622627313
185.0,0.13941272820793454,0.01325445937466832,0.21022179264070026,13.312219029818925
186.0,0.14788520115896334,0.01402051457293634,0.21151059238752526,13.513453374327213
187.0,0.15672500022324973,0.014826085775746576,0.21276159015271323,13.717493976200922
188.0,0.16593257188486835,0.0156722554479288,0.21397536119732474,13.924350724101664
189.0,0.1755069694256438,0.016560048243797785,0.215152501213909,14.134037276121491
190.0,0.18544612455073575,0.017490424780204013,0.21629361864993663,14.346571710031723
191.0,0.19574643614452944,0.018464281491463088,0.2173993337041987,14.561977472079095
192.0,0.20640292212392378,0.019482418641850793,0.21847027145498427,14.780286158327488
193.0,0.21740955927641295,0.02054556385827146,0.21950705826212052,15.001535977921272
194.0,0.2287584135008492,0.02165431367423125,0.22051031765333137,15.225778808203462
195.0,0.240440911106863,0.022809179172259726,0.22148066635432376,15.453075082606322
196.0,0.252446562152308,0.024010503615348865,0.2224187080420385,15.683504996571232
197.0,0.2647643168210943,0.025258521144107017,0.2233250330809106,15.917161201312128
198.0,0.27738132724411585,0.02655326002538257,0.22420020933803358,16.154163212825956
199.0,0.2902842885813933,0.027894607282677994,0.2250447845833606,16.394648456823038
200.0,0.3034582934494507,0.02928220047068731,0.2258592757535492,16.638789635294142
201.0,0.3168880800951205,0.030715494170975306,0.22664417288494282,16.886784686125697
202.0,0.33055703188572855,0.032193644844107874,0.2273999284854292,17.13887632593819
203.0,0.34444828839865027,0.03371557285509906,0.22812696164700047,17.39534191936832
204.0,0.35854390929284047,0.03527984833767048,0.22882564952915296,17.6565136753281
205.0,0.37282583467999675,0.036884740568759206,0.22949633034976363,17.92276981450567
206.0,0.3872751946750253,0.03852811315996217,0.23013929880277778,18.194553728842628
207.0,0.4018731144492159,0.040207458357681275,0.2307548079213393,18.472366956591305
208.0,0.4166003098824399,0.041919840873258875,0.23134307036037582,18.75677990678576
209.0,0.4314374742138092,0.04366182953504188,0.23190425533330247,19.048441585184523
210.0,0.44636525094932633,0.04542958263644178,0.23243850040387032,19.348066151550725
211.0,0.4613643122734269,0.047218695142049114,0.23294590843474833,19.656456111783022
212.0,0.4764155886304179,0.04902431772284591,0.23342655888070915,19.97448156600603
213.0,0.4915001169687382,0.05084108871421529,0.23388051599902376,20.30308993697479
214.0,0.5065993743738826,0.05266317983373493,0.23430783668480396,20.643294669615933
215.0,0.521695186743064,0.054484349713246116,0.23470858361435376,20.996164647001738
216.0,0.5367697859106693,0.05629798057205423,0.23508283942855776,21.36281426031388
217.0,0.5518059434305563,0.058097166888907606,0.23543072154740818,21.74438378815362
218.0,0.5667869650654767,0.05987483034724558,0.2357523942749098,22.142017977278265
219.0,0.5816966903629982,0.061623821469946556,0.2360480853530161,22.55684491236324
220.0,0.596519601952069,0.06333707287319594,0.2363181037268592,22.98994450563246
221.0,0.6112408327784014,0.06500774211258407,0.23656284522735707,23.442323738894316
222.0,0.6258461452012624,0.06662934091126936,0.23678280311746733,23.91489264944044
223.0,0.6403220158424557,0.06819592569177285,0.23697858221900353,24.408427728506148
224.0,0.6546556973659862,0.06970220650975573,0.23715089246024856,24.923555566672874
225.0,0.6688351994626729,0.07114362475373275,0.23730054600823453,25.460741286526957
226.0,0.6828493364052964,0.07251652190867866,0.23742846408513313,26.020258001502363
227.0,0.6966879348626102,0.07381815368035852,0.2375356522743836,26.602191086658408
228.0,0.7103415565445814,0.07504661725345778,0.2376231932473036,27.206454665137755
229.0,0.7238021210300977,0.07620110694025854,0.23769223423148161,27.832748772780747
230.0,0.7370621395276853,0.07728148553891774,0.23774396607566792,28.480643298829158
231.0,0.7501157765190097,0.07828856271624818,0.23777959561593842,29.14953383086587
232.0,0.762958073197063,0.07922393894230653,0.23780034813816706,29.838672350532875
233.0,0.7755849795260373,0.08008954876103845,0.2378074366037355,30.54725346481525
234.0,0.787994273677721,0.08088812033955406,0.23780203518100684,31.274341751252138
235.0,0.8001843111457433,0.08162259695180371,0.23778529863849715,32.018969364318295
236.0,0.8121551168970321,0.08229632045600713,0.23775830926587055,32.78011802545987
237.0,0.8239073422072972,0.08291276233835437,0.2377221141692316,33.5567570106695
238.0,0.8354431097031737,0.08347552969530707,0.23767767438644766,34.347855898100434
239.0,0.8467651867154127,0.08398825412526438,0.23762590050846777,35.15239530446807
240.0,0.8578775016961501,0.08445453379653574,0.2375676207759022,35.96938549035347
241.0,0.8687846436545598,0.08487788948862138,0.2375035997740025,36.79787008754761
242.0,0.8794920350668541,0.08526172888100646,0.23743453323451655,37.636933059523926
243.0,0.8900057346960853,0.0856092956128358,0.23736104499651783,38.48570999596258
244.0,0.9003323533399038,0.08592370110857397,0.2372837062431835,39.34337583446367
245.0,0.9104790652437768,0.08620783344254626,0.23720301439706148,40.20916865895663
246.0,0.9204533874753821,0.0864644587945186,0.23711942846876707,41.08236010358149
247.0,0.9302632922654105,0.08669609377421193,0.23703333790847889,41.962288692420664
248.0,0.9399169553293918,0.08690515025814839,0.23694510398175442,42.84832057018694
249.0,0.9494228868475253,0.087093795738159,0.2368550272289767,43.739885363483246
250.0,0.958789713408194,0.08726410812290572,0.2367633866834718,44.63643573071291
251.0,0.9680262902538841,0.08741794255777377,0.23667041050857032,45.53748101983303
