Time,J,A,S,tau
0.0,100.0,10.0,0.9830548075086146,12.718966787600948
1.0,106.3904324472495,30.71896430073607,0.9705036041934715,12.072845227261059
2.0,140.34869729581084,50.844747839989125,0.9569098996209133,11.399222065343587
3.0,199.20569690892782,70.31741567808896,0.9422263663197269,10.697824443310923
4.0,280.12510651875886,89.07677386647232,0.9264079078242421,9.968361571735066
5.0,380.13116647183034,107.06245649899512,0.9094133737372634,9.210550377198532
6.0,496.13822822188484,124.21438162390734,0.8912067036101206,8.424116077442134
7.0,624.9823799713097,140.4732590527347,0.8717581768961307,7.608792754520768
8.0,760.9744737898756,158.33236717520836,0.8592185151733619,7.248042336677944
9.0,893.7277003139999,201.27801536095097,0.8501541807715558,7.1249473554531955
10.0,1049.0222416100562,268.7815968350783,0.8406436868104581,7.004977268704834
11.0,1248.935642872836,355.44178560862554,0.8305567134670092,6.895442852832628
12.0,1506.5810655126093,455.2763807666776,0.8196921183088532,6.805498985979431
13.0,1826.0408769849485,563.4069003281722,0.8079905322360792,6.734388545852926
14.0,2204.701990667927,675.4813048395491,0.7953938114592819,6.681339699117681
15.0,2632.88186446716,789.6440699696059,0.7818452191255372,6.645623105185286
16.0,3088.239988498605,922.4575900380139,0.7672907169974296,6.62654892449661
17.0,3563.7117869165945,1089.2910060316804,0.751698850132653,6.62272603814527
18.0,4064.6732003303136,1298.7541903898746,0.7353133807618025,6.622726705181177
19.0,4603.121275943454,1551.3577881058836,0.7182354544471506,6.622726705181177
20.0,5189.280211716067,1841.5693210306767,0.700481691925636,6.622726705181177
21.0,5826.7983549833125,2160.2209006780845,0.6820746651380288,6.622726705181177
22.0,6509.997539192026,2497.1283972673587,0.6630431259328224,6.622726705181177
23.0,7219.084922862091,2850.362098253004,0.6434221622492201,6.622726705181177
24.0,7928.573274239745,3225.1321665935698,0.6232532642681423,6.622726705181177
25.0,8615.905410625151,3627.5937933889822,0.60258429007735,6.622726705181177
26.0,9264.76917079938,4060.3308468772498,0.5814693151720853,6.622726705181177
27.0,9864.442643266324,4520.02972471247,0.5599683554759515,6.622726705181177
28.0,10407.200371469831,4997.529378523319,0.5381469767912942,6.622726705181177
29.0,10885.536380499627,5479.378383575028,0.5160757560790135,6.622726705181177
30.0,11288.936265042774,5951.909974316147,0.49382963665604773,6.622726705181177
31.0,11603.831135825223,6404.183240765139,0.4714871517211634,6.622726705181177
32.0,11816.556282379208,6827.985586780479,0.4491295424452489,6.622726705181177
33.0,11916.516696585313,7216.554427952116,0.42683978384348314,6.622726705181177
34.0,11898.245740926683,7563.221119645195,0.40470153554485605,6.622726705181177
35.0,11761.915625769185,7860.753871689783,0.38279804565959213,6.622726705181177
36.0,11512.771865153009,8101.510869430932,0.36121100968126235,6.622726705181177
37.0,11159.786444869216,8278.398960034314,0.34001947709201275,6.622726705181177
38.0,10714.326459783217,8386.06964589135,0.31929872053462965,6.622726705181177
39.0,10189.414429396498,8421.600916138335,0.299119262840193,6.622726705181177
40.0,9599.313239492387,8384.665628999846,0.27954588275345355,6.622726705181177
41.0,8959.236281208576,8277.277265383987,0.2606368402579855,6.622726705181177
42.0,8284.93577759045,8103.420066636883,0.24244315947841621,6.622726705181177
43.0,7592.10926257815,7868.65934733332,0.22500811360011858,6.622726705181177
44.0,6895.727514348485,7579.818268933092,0.20836686975129945,6.622726705181177
45.0,6209.41409050948,7244.6959283898095,0.19254632618716436,6.6227263491889525
46.0,5807.398353978913,6569.914595009333,0.1529929713203308,7.308473082742353
47.0,5366.586572668792,5817.699715843308,0.1122422064314663,8.308473016517185
48.0,4813.0590468618575,5139.117614682609,0.08124157680262145,9.308472950292012
49.0,4214.77652033537,4528.772787119648,0.058003676400453806,10.30847288406684
50.0,3619.1880793562655,3981.418485509819,0.040842982653954786,11.308472817841668
51.0,3057.256966236964,3491.9872072620115,0.028360110778021485,12.308472751616499
52.0,2547.180643491695,3055.61587787161,0.019417079275600345,13.308472685391333
53.0,2097.6797334654807,2667.666551753713,0.013107392334182537,14.308472619166169
54.0,1710.7866791404147,2323.742497947023,0.00872354321495395,15.308472552941002
55.0,1384.1117821920911,2019.6993955348182,0.005724234064292532,16.308472486715836
56.0,1112.6070493872003,1751.652480218859,0.003703473076129858,17.308472420490673
57.0,889.8768879403013,1515.9799206433765,0.0023626872878841684,18.30847235426551
58.0,709.0984567504844,1309.3225337805072,0.0014865022083786956,19.30847228804033
59.0,563.625425587549,1128.5803403509808,0.0009224875671977693,20.308472221815144
60.0,447.3496656195289,970.9066261311569,0.0005647855758017151,21.308472155589957
61.0,354.8827351449426,833.6996453893873,0.0003412295578824916,22.308472089364773
62.0,281.6142265002051,714.592480346562,0.0002035076017733562,23.308472023139586
63.0,223.69156192838435,611.4414950118239,0.00011984996512939169,24.308471956914424
64.0,177.95383568080953,522.31363143552,6.97245306623896e-05,25.308471890689262
65.0,141.84526509311868,445.4731310168397,4.008775624822128e-05,26.30847182446405
66.0,113.32204716534342,379.36773836233976,2.278887787660546e-05,27.308471758238838
67.0,90.76343557015363,322.6147950221744,1.2815745820504097e-05,28.30847169201363
68.0,72.89190740372304,273.9874285418331,0.0,29.308471625788417
69.0,58.70454508045572,232.40103112145957,0.0,30.308471559563216
70.0,47.41593050424167,196.9002049134937,0.0,31.308471493338033
71.0,38.411604805066986,166.64627708443265,0.0,32.30847142711287
72.0,31.210829551495827,140.9054868955555,0.0,33.30847136088771
73.0,25.437190013997952,119.03793433071975,0.0,34.30847129466253
74.0,20.795594822180867,100.4873304100345,0.0,35.308471228437355
75.0,17.05406061885961,84.77141950549425,0.0,36.30847116221219
76.0,14.029978389589354,71.47336928984411,0.0,37.30847109598704
77.0,11.579222866201286,60.233854866268175,0.0,38.30847102976188
78.0,9.587758155569576,50.74391503302468,0.0,39.30847096353672
79.0,7.965149887825431,42.73855304358907,0.0,40.308470897311565
80.0,6.6395047150702124,35.99100949107514,0.0,41.30847083108641
81.0,5.5535279085462275,30.307667762906846,0.0,42.308470764861255
82.0,4.661456531896907,25.523558564925867,0.0,43.3084706986361
83.0,3.9266543234727247,21.498403136611405,0.0,44.30847063241095
84.0,3.319714288187713,18.113118408036375,0.0,45.3084705661858
85.0,2.816984170254746,15.266793102133468,0.0,46.30847049996064
86.0,2.3993971560233036,12.874049193756761,0.0,47.30847043373549
87.0,2.0515482687836135,10.862755233484565,0.0,48.30847036751034
88.0,1.76096348494606,9.172048817087115,0.0,49.30847030128518
89.0,1.5175182540783119,7.750648837877443,0.0,50.308470235060035
90.0,1.312977473207747,6.555383177401378,0.0,51.30847016883488
91.0,1.1406282743363478,5.549942066240771,0.0,52.308470102609725
92.0,0.9949848678441147,4.703817154564047,0.0,53.30847003638457
93.0,0.8715542779325058,3.991392914003076,0.0,54.30846997015942
94.0,0.7666496877012487,3.391172128851409,0.0,55.30846990393427
95.0,0.6772373161919267,2.8851252316722564,0.0,56.30846983770911
96.0,0.6008145475110354,2.458137718044328,0.0,57.30846977148396
97.0,0.535314070573909,2.0975401169470644,0.0,58.30846970525881
98.0,0.47902355894317483,1.7927148889274953,0.0,59.308469639033646
99.0,0.430518319420069,1.5347678832795388,0.0,60.308469572808484
100.0,0.3886153622534355,1.3162439126229477,0.0,61.30846950658332
101.0,0.3523257124740255,1.1308967641967262,0.0,62.30846944035816
102.0,0.32082406959614085,0.9734894877071433,0.0,63.308469374133
103.0,0.2934169974851708,0.8396320977352241,0.0,64.30846930790783
104.0,0.269523394462653,0.7256414224717639,0.0,65.30846924168267
105.0,0.24865257681529282,0.6284272509800168,0.0,66.3084691754575
106.0,0.23039189999457715,0.5453941476418184,0.0,67.30846910923235
107.0,0.21439086874721844,0.47436208197145485,0.0,68.30846904300718
108.0,0.200353005029662,0.41349773548380864,0.0,69.30846897678201
109.0,0.18802681961372988,0.361258453163556,0.0,70.30846891055685
110.0,0.1771976920958295,0.31634516640623017,0.0,71.30846884433168
111.0,0.16768299206357073,0.27766265072849017,0.0,72.30846877810652
112.0,0.15932689114670218,0.24428678660377573,0.0,73.30846871188135
113.0,0.15199549048026947,0.21543711166820392,0.0,74.30846864565616
114.0,0.1455742069425894,0.19045361285702006,0.0,75.308468579431
115.0,0.13996478757379954,0.1687775191310927,0.0,76.30846851320581
116.0,0.13508238152001736,0.14993532237866902,0.0,76.67890833517835
117.0,0.1308555106382537,0.13352486147330817,0.0,76.67890833517835
118.0,0.1272210378741056,0.11920470811864847,0.0,76.67890833517835
119.0,0.12412490271241511,0.1066842841939419,0.0,76.67890833517835
120.0,0.12152070684420321,0.09571597250856637,0.0,76.67890833517835
121.0,0.11936846246983486,0.08608849343070528,0.0,76.67890833517835
122.0,0.11763376369989684,0.07762130858578466,0.0,6.629564211245895
123.0,0.11628666020508263,0.07015996318198985,0.0,6.622704933771689
124.0,0.11530220596164155,0.06357199199682065,0.0,6.622704933771689
125.0,0.11465811954523662,0.05774379591601812,0.0,6.622704933771689
126.0,0.11433562545721623,0.05257768621861621,0.0,6.622704933771689
127.0,0.11431862899258557,0.04798956075665885,0.0,6.622704933771689
128.0,0.11459339525395482,0.04390689485615645,0.0,6.622704933771689
129.0,0.11514825359531605,0.04026704351433191,0.0,6.622704933771689
130.0,0.11597322611051752,0.03701582147414805,0.0,6.622704933771689
131.0,0.11705990054980225,0.03410628200901601,0.0,6.622704933771689
132.0,0.1184011942671567,0.0314976719814994,0.0,6.622704933771689
133.0,0.11999098466490107,0.029154578192085293,0.0,6.622704933771689
134.0,0.12182428375183066,0.0270461588542033,0.0,6.622704933771689
135.0,0.12389671761189049,0.025145517780399,0.0,6.622704933771689
136.0,0.12620457922425288,0.023429169366703754,0.0,6.622704933771689
137.0,0.1287446729315933,0.021876553557527757,0.0,6.622704933771689
138.0,0.13151419332389724,0.020469662426283907,0.0,6.622704933771689
139.0,0.13451048241668787,0.019192685531769046,0.0,6.622704933771689
140.0,0.1377311986941935,0.018031721425688985,0.0,6.622704933771689
141.0,0.14117393985754095,0.016974532462662992,0.0,6.622704933771689
142.0,0.14483631706629554,0.016010320839520278,0.0,6.622704933771689
143.0,0.14871584910557764,0.015129551320272149,0.0,6.622704933771689
144.0,0.15280981402073185,0.014323787618061424,0.0,6.622704933771689
145.0,0.15711529797205145,0.013585549955094171,0.0,6.622704933771689
146.0,0.16162904972097106,0.012908202154816481,0.0,6.622704933771689
147.0,0.16634743643331806,0.012285845892603635,0.0,6.622704933771689
148.0,0.17126642196877195,0.011713228742607754,0.0,6.622704933771689
149.0,0.17638149080754473,0.011185668195124806,0.0,6.622704933771689
150.0,0.1816876357019508,0.01069898235183698,0.0,6.622704933771689
151.0,0.1871792703188845,0.010249432746812016,0.0,6.623927255368379
152.0,0.192850424160348,0.009833667393180747,0.0,6.6374806995189575
153.0,0.1986944995615492,0.00944868197390237,0.0,6.6664211958840935
154.0,0.2047042523995459,0.009091779216120987,0.0,6.710618206954292
155.0,0.21087190263211217,0.008760531797730389,0.0,6.769941711656507
156.0,0.21718913185966493,0.008452752913472191,0.0,6.84425658264847
157.0,0.22364706452269667,0.008166470624336243,0.0,6.933455177928738
158.0,0.23023628871035773,0.007899903321497932,0.0,7.036410674866344
159.0,0.23694689954950357,0.0076514394637047,0.0,7.143984184750676
160.0,0.24376852978110128,0.0074196195742117395,0.0,7.253771638737786
161.0,0.2506903560102775,0.007203119861178093,0.0,7.365795996022572
162.0,0.25770116771828633,0.007000738354748865,0.0,7.480079726231607
163.0,0.26478942633011865,0.006811381931519078,0.0,7.59664508640266
164.0,0.27194328089105785,0.00663405611262587,0.0,7.715514178126417
165.0,0.27915066232570396,0.0064678537173937815,0.0,7.836708986106094
166.0,0.2863993210687921,0.006311946591337576,0.0,7.960251459154903
167.0,0.29367689662335045,0.006165577671782872,0.0,8.086163592670173
168.0,0.3009709304074954,0.00602805544303083,0.0,8.214467606602252
169.0,0.3082690179272171,0.005898746313873441,0.0,8.3451860163356
170.0,0.31555882222641785,0.005777068585849466,0.0,8.478341837787342
171.0,0.32282813458920845,0.0056624877942783045,0.0,8.61395878539701
172.0,0.3300649231398622,0.0055545143978561725,0.0,8.752061671290749
173.0,0.33725745862346973,0.005452697219038288,0.0,8.892676545087749
174.0,0.3443942998859368,0.005356619672741985,0.0,9.035831070086607
175.0,0.35146437874102643,0.005265898821939938,0.0,9.181555130333866
176.0,0.3584570919520929,0.005180181737611141,0.0,9.329881327627461
177.0,0.36536225487995144,0.005099140261865419,0.0,9.480845186632173
178.0,0.37217024402178117,0.0050224731367960705,0.0,9.634486610410546
179.0,0.3788720008649895,0.004949900458759805,0.0,9.790850036747383
180.0,0.38545900635044666,0.004881162396796239,0.0,9.949985478388085
181.0,0.39192345596994405,0.004816019650952387,0.0,10.11195045823666
182.0,0.39825807850728445,0.004754247581683396,0.0,10.276809119041005
183.0,0.40445640151207335,0.00469564048080419,0.0,10.444637274557921
184.0,0.4105124999780906,0.0046400042246095875,0.0,10.615519355576444
185.0,0.4164212435573253,0.004587160344920929,0.0,10.789555012982705
186.0,0.422178111881482,0.004536941127155972,0.0,10.966856957088458
187.0,0.42777933840432547,0.004489191413216817,0.0,11.147557208080386
188.0,0.43322176644993043,0.004443765438219985,0.0,11.331805538643877
189.0,0.4385029635569619,0.004400527943974097,0.0,11.519776330373345
190.0,0.4436210880571776,0.004359351901967967,0.0,11.711667767340172
191.0,0.4485750111689346,0.004320119504235819,0.0,11.907711095508082
192.0,0.45336407508404925,0.004282719133140482,0.0,12.108163489730176
193.0,0.4579883612828312,0.0042470480759099144,0.0,12.313329005891047
194.0,0.46244830777794776,0.004213008130207543,0.0,12.523538664448363
195.0,0.46674506183015796,0.004180509376126844,0.0,12.73918549052658
196.0,0.47088004761606933,0.004149465323300252,0.0,12.960690880808224
197.0,0.47485532017871146,0.004119796927769305,0.0,13.188552275653018
198.0,0.47867316500989043,0.004091427973783743,0.0,13.423298744896922
199.0,0.48233638276902063,0.004064288680161133,0.0,13.665544384555702
200.0,0.48584798201819734,0.004038311866036251,0.0,13.915941155415373
201.0,0.48921135386605885,0.004013435680630286,0.0,14.175226270484886
202.0,0.4924300867053839,0.003989600946397857,0.0,14.444184211685144
203.0,0.49550801568194214,0.003966752563575134,0.0,14.72367131545623
204.0,0.49844914069425555,0.003944838154161007,0.0,15.014594366684427
205.0,0.5012576372874957,0.0039238088983637,0.0,15.317921837323505
206.0,0.5039377766111514,0.0039036182246939776,0.0,15.634657358758048
207.0,0.5064939397168227,0.0038842226838567673,0.0,15.965844692426801
208.0,0.5089305547068588,0.0038655809258134536,0.0,16.312541284123764
209.0,0.5112520955113858,0.003847654112404518,0.0,16.67581065351581
210.0,0.5134630403880992,0.0038304055243943095,0.0,17.056695131980078
211.0,0.5155678643723186,0.003813800363658866,0.0,17.45620623207095
212.0,0.5175710035860038,0.0037978059577804765,0.0,17.875283964644037
213.0,0.5194768575048244,0.0037823911162480515,0.0,18.314803255277802
214.0,0.5212897476957529,0.0037675266537530883,0.0,18.775513416841626
215.0,0.5230139337753374,0.0037531846273316837,0.0,19.258065509764712
216.0,0.5246535658687652,0.003739338911706767,0.0,19.762939454998374
217.0,0.5262127206218393,0.0037259643804314997,0.0,20.29050238419134
218.0,0.5276953224138733,0.0037130377275486834,0.0,20.840897150224002
219.0,0.5291052584847041,0.003700536093846486,0.0,21.414204575467924
220.0,0.5304461910019619,0.0036884386866758924,0.0,22.010212880201937
221.0,0.5317216837907368,0.0036767255612044684,0.0,22.62859290912041
222.0,0.5329352576437599,0.0036653771136585197,0.0,23.268960994478952
223.0,0.5340902015172356,0.0036543754632812767,0.0,23.93069246705674
224.0,0.5351897220548067,0.0036437032945243744,0.0,24.613096327238754
225.0,0.5362368817102247,0.0036333442165097972,0.0,25.31537469380225
226.0,0.5372345974181418,0.0036232827359502042,0.0,26.036648371874897
227.0,0.5381856951930906,0.0036135038894933463,0.0,26.775994414888206
228.0,0.5390928167339304,0.003603993745404974,0.0,27.5324389997432
229.0,0.5399585442977343,0.0035947386942539105,0.0,28.304995784246756
230.0,0.5407852747408187,0.003585726090158168,0.0,29.092671995216964
231.0,0.5415753378998526,0.0035769436270475688,0.0,29.894480258333466
232.0,0.5423309172126586,0.003568379717975488,0.0,30.709456671787038
233.0,0.5430540952623978,0.0035600232600698314,0.0,31.5366657607208
234.0,0.54374686066815,0.0035518635927548428,0.0,32.37520136646011
235.0,0.5444110692593553,0.0035438906672433045,0.0,33.2242124580774
236.0,0.545048522855973,0.00353609468121624,0.0,34.082871037143455
237.0,0.5456608812390503,0.0035284664679252286,0.0,34.95042039298099
238.0,0.5462497613517291,0.0035209970506048112,0.0,35.82612664889569
239.0,0.5468166597371569,0.00351367798109134,0.0,36.70932224519509
240.0,0.5473630164127627,0.003506501056553573,0.0,37.599373144019005
241.0,0.5478901895317384,0.003499458429557769,0.0,38.49569233601913
242.0,0.5483994480608443,0.00349254263522531,0.0,39.39774714811838
243.0,0.5488920363894203,0.003485746315390364,0.0,40.30501897187266
244.0,0.5493690863945587,0.003479062594087082,0.0,41.21705643196567
245.0,0.5498316961837617,0.003472484738858671,0.0,42.133428972122275
246.0,0.5502809274899,0.0034660061747404146,0.0,43.053726773073556
247.0,0.5507177421947168,0.0034596207549337844,0.0,43.97759833391954
248.0,0.5511430869669209,0.0034533223974853393,0.0,44.90470117727437
249.0,0.5515578802626672,0.003447105143533745,0.0,45.83470837329052
250.0,0.5519629517639754,0.003440963419904721,0.0,46.7673418995175
251.0,0.5523591155531354,0.003434891721035504,0.0,47.70233232622955
252.0,0.5527471787354838,0.0034288845721263243,0.0,48.63941395386564
253.0,0.5531278799522854,0.003422936803431692,0.0,49.57835600173754
254.0,0.5535019237406893,0.003417043397799897,0.0,50.518944746113846
255.0,0.5538700145588866,0.003411199338364986,0.0,51.460966520033395
256.0,0.5542328401292892,0.0034053996843309725,0.0,52.404215816575935
257.0,0.5545910331397459,0.003399639753823475,0.0,53.348511513673174
258.0,0.5549452158306375,0.0033939149151378635,0.0,54.29367683424329
259.0,0.5552960104361871,0.0033882205365537107,0.0,55.239535014481454
260.0,0.5556440287229099,0.0033825520349923866,0.0,56.18591421270927
261.0,0.5559898505573047,0.0033769049981019522,0.0,57.132652329302694
262.0,0.5563340497509387,0.003371275050364787,0.0,58.07958807847932
263.0,0.556677200115379,0.0033656578162632716,0.0,59.02656017445673
264.0,0.5570198731257152,0.0033600489305019013,0.0,59.97340869582826
265.0,0.5573626299082457,0.00335444410064282,0.0,60.91997347574476
266.0,0.5577060353683876,0.003348839052071721,0.0,61.86608430713508
267.0,0.5580506551305574,0.0033432295086045583,0.0,62.81157020377017
268.0,0.5583970546617623,0.003337611194619555,0.0,63.7562603169924
269.0,0.5587457963692298,0.003331979857634935,0.0,64.69998423730252
270.0,0.5590974686384644,0.003326331189790148,0.0,65.64254200210027
271.0,0.5594526701939598,0.003320660853324031,0.0,66.58372332589178
272.0,0.55981199976021,0.0033149645104754203,0.0,67.52331792318317
273.0,0.5601760538687536,0.003309237833367467,0.0,68.46111771843803
274.0,0.5605454581971044,0.0033034764166130185,0.0,69.39688354461553
275.0,0.5609208840054261,0.0032976757105102187,0.0,70.33032834661016
276.0,0.5613030045707413,0.0032918311585243224,0.0,71.26116296473913
277.0,0.5616924926991261,0.0032859382058711994,0.0,72.18909884797641
278.0,0.5620900308064211,0.0032799922756176028,0.0,73.11383833570498
279.0,0.562496387153342,0.0032739885098630834,0.0,74.03498212170607
280.0,0.5629123524373474,0.003267921973776061,0.0,74.95210348053337
281.0,0.5633387173558954,0.003261787732524955,0.0,75.86477568674059
282.0,0.5637762782036518,0.0032555808355303408,0.0,76.77256546416841
