Time,J,A,S,tau
0.0,100.0,10.0,0.737611814190134,22.05900797678472
1.0,200.00860993670116,85.1377611089582,0.6999388675864492,21.791587524637094
2.0,559.7918378538661,152.1826215333631,0.6638670276678186,21.522835938305725
3.0,1129.3573311641424,211.74022634477916,0.629349301000998,21.25276895895395
4.0,1864.532363218412,264.3798498482435,0.596337989626311,20.98139731065042
5.0,2726.463348687522,310.63592523324013,0.5647857899848491,20.70873213341107
6.0,3681.147205172304,351.0098269466375,0.5346458451464083,20.434784980674557
7.0,4698.994244144651,385.9715724602243,0.5058717952223392,20.159567816656015
8.0,5754.41850099893,415.9614717971723,0.47841782352229095,19.883093013453166
9.0,6825.463303985315,441.39163285033254,0.4522387090477706,19.605373348093075
10.0,7893.441158775516,462.64753400361485,0.42728986001191877,19.326421999283927
11.0,8942.613526259629,480.0893762841944,0.4035273634539913,19.046252544232054
12.0,9959.883983991014,494.0534885238956,0.38090801976931427,18.76487895484609
13.0,10934.528063501148,504.853502058106,0.359389393713028,18.48231559474101
14.0,11857.910385824813,512.7819370243557,0.33892980238581905,18.19857721418015
15.0,12723.290637799488,518.1107589548495,0.3194884309254568,17.913678948418195
16.0,13525.564509010503,521.0930791762491,0.3010252888228392,17.62763631065869
17.0,14261.083530867696,521.9639463048794,0.2835012709694613,17.340465189661167
18.0,14920.266173153652,530.0871289015341,0.2775431338472513,17.252167424317612
19.0,15584.26236802758,607.433965385741,0.27555153196967286,17.235651100895
20.0,16484.868811745462,747.344272320397,0.2735881626530529,17.21935764477405
21.0,17795.38245795009,936.5922151287934,0.2716535475455808,17.203291218793797
22.0,19630.866532151438,1163.6714095664545,0.26974819233441116,17.1874559076571
23.0,22058.76386818346,1418.6177666197075,0.26787258674861436,17.171855717496236
24.0,25108.091908787523,1692.847590648155,0.26602720458791146,17.156494575481453
25.0,28777.348453643855,1979.0101614475755,0.2642125037751383,17.141376329460595
26.0,33041.27743982595,2270.853969661496,0.26242892642850746,17.126504747595447
27.0,37856.64315131071,2563.1042581652578,0.2606768989659312,17.111883518098203
28.0,43167.09794930995,2851.352874990894,0.2589568322187988,17.097516248913273
29.0,48907.27679197576,3131.958101617016,0.2572691215686303,17.083406467441943
30.0,55006.189119249975,3401.9534219269303,0.2556141471187536,17.06955762037993
31.0,61390.00750515908,3658.965710356582,0.25399227387768,17.05597307353625
32.0,67984.38688052834,3901.1418694573445,0.25240385193221104,17.042656111493862
33.0,74716.18940292977,4127.081926124631,0.2508492166834763,17.0296099376161
34.0,81515.06466780846,4335.778320232207,0.2493286890856321,17.01683767387354
35.0,88313.37219773888,4526.978166482305,0.24784257586526323,17.00434236063519
36.0,95056.57948009136,4736.703472005792,0.24639116981413142,16.992126956806462
37.0,101837.12091858132,5022.472727060954,0.24497475004031039,16.98019433953815
38.0,108904.22679296235,5425.139729536814,0.24359358226411854,16.968547304266238
39.0,116598.47268002323,5971.132723471532,0.24224791910908333,16.957188564645502
40.0,125300.82867169459,6675.24761797753,0.24093800041459598,16.94612075257483
41.0,135394.9300889327,7543.011723696075,0.23966405354191364,16.935346418147056
42.0,147239.86999309977,8572.69678778878,0.23842629370328475,16.924868029714233
43.0,161151.52619993352,9757.008028532236,0.23722492428564487,16.914687973893965
44.0,177390.72308581404,11084.501216185568,0.23606013718160437,16.90480855560393
45.0,196156.7391824172,12540.763939233895,0.23493211313189774,16.895231998168743
46.0,217584.83006016375,14109.388496565598,0.23384102205261345,16.885960443317572
47.0,241747.29001934777,15772.767906642248,0.23278702337837967,16.876995951273404
48.0,268656.3566486922,17512.744316186476,0.23177026642314374,16.86834050101632
49.0,298268.7084513405,19311.125626206594,0.23079089067988076,16.859995990103446
50.0,330491.36337031383,21150.091069475384,0.22984902619426692,16.85196423501341
51.0,365188.04386016814,23012.50633133172,0.22894479387227049,16.844246971153968
52.0,402185.39099270897,24882.099634937018,0.22807830583300115,16.836845853060524
53.0,441279.8490461657,26758.881798397713,0.22724966569525393,16.829762454368606
54.0,482307.73240427556,28683.492665181788,0.2264589689550718,16.822998268276805
55.0,525259.8746761058,30727.10287806445,0.22570630325553567,16.81655470745843
56.0,570348.2242358818,32977.40199485328,0.22499174869980776,16.810433104262856
57.0,618027.4844368467,35528.098418041096,0.22431537814670116,16.804634710899958
58.0,668986.2145085344,38471.23695427202,0.2236772574971111,16.79916069960689
59.0,724117.9498012065,41891.77065846497,0.22307744596942095,16.794012162822728
60.0,784480.9602394131,45863.92050211671,0.2225159963675784,16.78919011338165
61.0,851250.5802485843,50448.95338827597,0.22199295532356636,16.784695484665477
62.0,925672.6292222978,55694.01819381661,0.2215083635430943,16.780529130766688
63.0,1009017.3167816882,61631.842463033616,0.22106225603643284,16.776691826740294
64.0,1102537.1788902115,68281.03678780474,0.22065466233463032,16.77318426884434
65.0,1207428.7994251254,75646.8062537688,0.2202856066652594,16.77000707448418
66.0,1324804.791597791,83722.01787137934,0.21995510817972236,16.76716078275298
67.0,1455663.8181193157,92488.44066959365,0.219663181067415,16.76464585425025
68.0,1600876.2635929054,101918.10106324313,0.21940983477083748,16.762462671753074
69.0,1761167.4096659366,111974.5799898136,0.21919507407484407,16.760611539873878
70.0,1937108.7118995113,122620.74059232908,0.21901889925088705,16.759092685685403
71.0,2129142.4016853455,133843.11986411683,0.2188813061342382,16.757906258307415
72.0,2337673.914401808,145672.22340035057,0.21878228623257764,16.757052330099913
73.0,2563218.183096633,158193.2332408155,0.21872182682497063,16.756530895881017
74.0,2806549.2012683935,171547.35680955206,0.21869991101803396,16.756341873996778
75.0,3068849.8743448136,185928.83666021263,0.2187165177621969,16.75648510574498
76.0,3351823.546651949,201577.73479576636,0.21877162184376744,16.756960355886648
77.0,3657795.455476071,218770.68761890006,0.21886519395661072,16.757767313022697
78.0,3989762.071368585,237811.23821763927,0.21899720062115782,16.758905589294255
79.0,4351421.27308491,259019.4678576449,0.21916760422120826,16.76037472123315
80.0,4747172.932694267,282722.46956817905,0.2193763629152519,16.76217416926856
81.0,5182076.96677258,309245.53876349994,0.21962343059185713,16.764303318470827
82.0,5661826.9728987785,338904.10400334554,0.2199087568100915,16.766761478437584
83.0,6192655.411865042,371997.3238420663,0.22023228666316466,16.769547883470736
84.0,6781286.929471462,408802.28441980237,0.2205939607350704,16.77266169307928
85.0,7434827.971698773,449569.74347016285,0.2209937149081996,16.776101991606318
86.0,8160691.288411408,494520.87419390044,0.22143148028947432,16.779867789087454
87.0,8966509.651720742,543847.0998811628,0.22190718301936696,16.783958020793527
88.0,9860038.223678853,597723.5388891478,0.22242074411975524,16.788371547881166
89.0,10849167.33619506,656335.7574158749,0.22297207933673274,16.793107157382494
90.0,11941955.814541405,719914.5635126608,0.2235610989105583,16.79816356228809
91.0,13146822.573041206,788770.8463854884,0.22418770742251143,16.803539402075632
92.0,14472814.379154328,863328.922379323,0.22485180353989948,16.80923324239958
93.0,15929933.311552202,944153.8717551054,0.22555327981038023,16.81524357561362
94.0,17529572.423096012,1031972.0146813351,0.22629202246135846,16.821568821082323
95.0,19284963.902597733,1127686.7428796263,0.22706791110819635,16.828207324888748
96.0,21211607.740242615,1232386.104103198,0.22788081852386313,16.835157360338613
97.0,23327776.23817457,1347343.815212091,0.22873061041698048,16.84241712831537
98.0,25654977.91255103,1474017.126889733,0.22961714511792788,16.849984757001298
99.0,28218309.163377844,1614038.81429901,0.23054027332689772,16.857858302330662
100.0,31046894.20144188,1769204.4238246544,0.23149983787833434,16.866035748393944
101.0,34174254.18697252,1941458.742530495,0.23249567341188954,16.874515007181486
102.0,37638483.80234752,2132879.81452425,0.23352760610710332,16.8832939189853
103.0,41482571.617907666,2345659.655096748,0.23459545344289803,16.89237025285261
104.0,45754641.74755232,2582086.625851328,0.2356990238612212,16.90174170636083
105.0,50507932.595611945,2844534.87345957,0.23683811649667472,16.91140590596928
106.0,55801033.30712559,3135466.7441197,0.23801252094023098,16.92136040752204
107.0,61698137.653562374,3457459.2889095237,0.23922201690414577,16.931602696062747
108.0,68269110.77239853,3813257.9078276427,0.24046637395480888,16.942130186138993
109.0,75590098.76767598,4205847.857395849,0.24174535129009964,16.952940222354297
110.0,83744395.50586683,4638549.22075074,0.24305869741470212,16.964030079230874
111.0,92823206.91965744,5115131.567041976,0.24440614988428255,16.97539696147098
112.0,102927193.63987193,5639931.914474294,0.2457874351058537,16.987038004557565
113.0,114168464.28718196,6217986.169190198,0.24720226803294695,16.998950274672843
114.0,126672370.78428304,6855168.670674128,0.24865035192893076,17.011130768922186
115.0,140580212.87068897,7558318.7783411015,0.2501313781994071,17.023576415982856
116.0,156052539.60029164,8335373.175543477,0.2516450261167291,17.03628407608578
117.0,173271950.60568908,9195500.01584907,0.2531909626098807,17.049250541208934
118.0,192446889.48370504,10149207.33699918,0.25476884213636686,17.062472535767498
119.0,213816026.52557075,11208456.127254104,0.25637830644184934,17.075946716624134
120.0,237652217.8446814,12386763.584211007,0.25801898440998716,17.089669673457514
121.0,264267483.45027545,13699284.99230328,0.2596904919316537,17.10363792924599
122.0,294016995.0396794,15162910.62131358,0.26139243174738386,17.117847940399482
123.0,327305369.50604033,16796330.066581596,0.2631243933419629,17.132296097310324
124.0,364590579.84931785,18620146.827341165,0.26488595284608607,17.146978724607774
125.0,406391254.8953311,20656992.474037793,0.2666766729367364,17.161892081598804
126.0,453291020.8731886,22931727.38159696,0.26849610280404257,17.17703236268965
127.0,505947374.1845263,25471683.810799595,0.27034377806057214,17.19239569771875
128.0,565097376.871063,28307022.737719133,0.27221922077342836,17.207978152542996
129.0,631569100.3237284,31471176.41620428,0.27412193938777085,17.223775729273967
130.0,706290147.888506,35001411.50104507,0.27605142882121675,17.239784367017844
131.0,790302955.3196536,38939519.674221374,0.278007170408974,17.25599994203456
132.0,884778056.1255786,43332610.0966121,0.27998863205475233,17.272418268612082
133.0,991034591.6566176,48234080.291908704,0.2819952682067394,17.289035099176036
134.0,1110560618.5870256,53704640.15926911,0.28402652005661355,17.30584612527139
135.0,1245040056.2179434,59813578.37805386,0.28608181555695755,17.32284697765787
136.0,1396382600.105034,66640005.63397374,0.28816056965833164,17.34003322736316
137.0,1566758274.5940945,74274414.53321426,0.29026218437832935,17.357400385808887
138.0,1758639527.0465088,82820123.3665741,0.29238604906725135,17.374943905893094
139.0,1974844467.5493562,92395121.31959595,0.2945315405364298,17.392659182191462
140.0,2218593804.5915694,103133705.61464323,0.2966980233452134,17.410541552032292
141.0,2493563710.3655267,115188603.94948229,0.2988848499928981,17.428586295809104
142.0,2803960495.378513,128732844.30136512,0.30109136122203267,17.446788638021026
143.0,3154584170.1955004,143962239.45322728,0.3033168862750685,17.465143747722887
144.0,3550924588.5708437,161097664.47131544,0.3055607432112028,17.483646739513635
145.0,3999238007.5653453,180388131.21411702,0.3078222392258226,17.50229267414043
146.0,4506670243.632677,202113812.65322956,0.31010067098010763,17.521076559426863
147.0,5081351210.931374,226590080.54855034,0.3123953249786023,17.539993351038547
148.0,5732553446.056075,254171771.27253255,0.3147054779125139,17.559037953351446
149.0,6470813770.71996,285258673.91985923,0.3170303970884143,17.578205220378063
150.0,7308139097.887599,320301662.9470539,0.31936934078748974,17.59748995658401
151.0,8258169948.9505825,359810198.49587905,0.3217215587365514,17.616886917966266
152.0,9336449360.378817,404361064.8108602,0.3240862924863458,17.636390812833092
153.0,10560648022.641552,454608536.2778926,0.3264627759141675,17.655996303007182
154.0,11950909895.780205,511296466.6906415,0.32885023563307103,17.67569800463784
155.0,13530210679.969477,575271677.9470967,0.33124789148828854,17.695490489421584
156.0,15324755872.421103,647500170.0136868,0.3336549570326177,17.71536828559441
157.0,17364480489.174736,729085263.2840179,0.3360706400077853,17.7353258790196
158.0,19683622602.605293,821287990.3020922,0.33849414284427,17.75535771436428
159.0,22321370255.061207,925550338.0358099,0.3409246631668053,17.77545819627019
160.0,25322605940.495476,1043521548.2377268,0.3433613943025976,17.795621690532116
161.0,28738783805.44688,1177087741.600851,0.34580352579162715,17.815842525294627
162.0,32628937454.854534,1328404608.921073,0.34825024390701587,17.83611499234335
163.0,37060808352.718,1499934471.5899308,0.3507007321773133,17.856433348393956
164.0,42112131481.17466,1694488249.3314214,0.35315417190870685,17.876791816392256
165.0,47872141796.61442,1915273006.5815618,0.3556097427064813,17.897184586837255
166.0,54443290483.99232,2165945027.016887,0.3580666229991703,17.917605819189095
167.0,61943164576.27652,2450670949.429571,0.3605239905611359,17.93804964327856
168.0,70506671301.80534,2774198244.138926,0.36298102303239566,17.958510160731013
169.0,80288608141.96411,3141936467.209863,0.36543689843487964,17.978981446417286
170.0,91466593136.95593,3560049650.2733965,0.36789079568414385,17.99945754997876
171.0,104244367489.9402,4035564296.9751077,0.3703418950964895,18.019932497358006
172.0,118855576706.8328,4576495551.93311,0.3727893788909195,18.040400292347265
173.0,135568258651.03494,5191993367.553978,0.37523243168487247,18.060854918166896
174.0,154689982365.14175,5892510238.06942,0.37767024097862917,18.08129033910633
175.0,176573693771.01566,6689997226.416989,0.3801019976327106,18.101700502174808
176.0,201624445005.94284,7598132666.357223,0.3825268963381084,18.12207933877334
177.0,230307424337.12375,8632586225.445145,0.38494413607792144,18.14242076639845
178.0,263157160709.39835,9811319879.571432,0.38735292057161685,18.162718690396
179.0,300788037440.06366,11154936735.077625,0.3897524587105599,18.18296700572904
180.0,343906394508.7446,12687084730.351555,0.3921419649848705,18.20315959877028
181.0,393324959281.99133,14434918286.184244,0.3945206598997014,18.223290349126827
182.0,449979318531.334,16429620565.220783,0.39688777036904044,18.243353131501905
183.0,514946714117.07666,18707004539.51647,0.39924253009978083,18.263341817574783
184.0,589467594627.6901,21308205413.333336,0.40158417996617685,18.28325027790877
185.0,674971234222.5004,24280469099.400467,0.40391196837219034,18.303072383890424
186.0,773104812602.6819,27678043934.788918,0.40622515158734696,18.322802009692072
187.0,885766546773.1888,31563207968.53286,0.40852299407257975,18.342433034256704
188.0,1015143573404.6592,36007456251.52181,0.410804768796094,18.361959343314258
189.0,1163756944328.1182,41092857695.78629,0.41306975753607794,18.381374831426523
190.0,1334512556153.6824,46913599742.37096,0.41531725115408585,18.40067340404114
191.0,1530759264171.1555,53577778755.097595,0.4175465498587744,18.4198489795721
192.0,1756355375438.94,61209482828.321075,0.4197569634598652,18.438895491514845
193.0,2015747819141.9387,69951185884.2914,0.42194781160840755,18.457806890585577
194.0,2314061797813.328,79966491526.19061,0.42411842400604516,18.47657714685529
195.0,2657203499297.531,91443326995.9723,0.42626814060557455,18.495200251914103
196.0,3051977947713.8433,104597673259.18608,0.428396311802452,18.513670221073358
197.0,3506229778425.319,119677860444.81201,0.43050229861253797,18.531981095585643
198.0,4029002846177.298,136969499631.81956,0.4325854728182876,18.550126944845008
199.0,4630723753491.045,156801219139.68597,0.43464521710764237,18.568101868621063
200.0,5323412821028.747,179551355060.87363,0.43668092520503504,18.585899999333876
201.0,6120936402801.154,205655633792.0418,0.4386920019890152,18.603515504338436
202.0,7039292789112.237,235615971786.54086,0.44067786357877237,18.620942588175
203.0,8096941341457.179,270010673598.64792,0.4426379374151194,18.638175494856537
204.0,9315180640348.387,309506289991.0804,0.44457166233510986,18.655208510199667
205.0,10718600239685.273,354871181211.6332,0.4464784886340613,18.672035964155036
206.0,12335591249797.22,406991020194.8354,0.4483578780977799,18.688652233089385
207.0,14198933767084.736,466886720215.5185,0.45020930403124915,18.705051742107553
208.0,16346470643730.305,535735261797.94586,0.4520322512827346,18.72122896742053
209.0,18821911152345.72,614893482296.8572,0.453826216256412,18.737178438700592
210.0,21675736839417.633,705925297259.1968,0.455590706897194,18.752894741374696
211.0,24966243361527.613,810633210381.9296,0.45732524267415825,18.768372518960007
212.0,28760734415458.965,931094995725.9589,0.45902935456134203,18.783606475447797
213.0,33136945374364.555,1069705656199.8237,0.46070258500843814,18.798591377660117
214.0,38184645770503.15,1229225599897.7607,0.4623444878862092,18.813322057531973
215.0,44007484272561.195,1412836552398.1394,0.46395462843267343,18.827793414437377
216.0,50725104431926.86,1624206836241.3904,0.46553258319869073,18.842000417565696
217.0,58475669827535.05,1867566173515.625,0.467077939985019,18.855938108254577
218.0,67418706330513.586,2147791827350.1777,0.468590297756951,18.869601602236703
219.0,77738380604185.98,2470508714089.391,0.47006926656185105,18.882986091931397
220.0,89647264681450.9,2842206418280.539,0.4715144674481324,18.896086848788237
221.0,103390833020378.27,3270373265312.7754,0.4729255323773876,18.908899225569247
222.0,119252524275900.92,3763650804226.9517,0.4743021041171469,18.92141865853445
223.0,137559587448791.05,4332013177583.5674,0.4756438361385579,18.933640669672634
224.0,158689798617313.22,4986976557967.154,0.4769503925174873,18.945560868985382
225.0,183079482586587.72,5741838647450.415,0.4782214478305059,18.95717495669025
226.0,211232532478216.22,6611954343243.829,0.47945668703458644,18.968478725318146
227.0,243730827145610.9,7615055208686.75,0.48065580535359176,18.97946806185574
228.0,281246193221573.72,8771621926434.362,0.48181850817006044,18.99013894994187
229.0,324554673309438.44,10105309342521.74,0.48294451091358154,19.000487471962455
230.0,374552538576290.7,11643435377283.941,0.4840335389358853,19.010509811032147
231.0,432274770272697.6,13417547054287.658,0.4850853273944071,19.02020225301996
232.0,498915947264548.94,15464085237518.05,0.48609962114405,19.02956118867189
233.0,575856485640929.1,17825120250646.496,0.4870761746209036,19.038583115418124
234.0,664689752244948.2,20549236151544.77,0.4880147517267533,19.047264639384597
235.0,767255291906226.6,23692531420021.45,0.4889151257188309,19.05560247725103
236.0,885676654746622.6,27319778230957.86,0.48977707910094403,19.063593458092786
237.0,1022404976065133.5,31505760940711.285,0.49060040351719425,19.07123452517914
238.0,1180269189745892.5,36336823270269.9,0.4913848996487843,19.078522737726882
239.0,1362533889968088.0,41912655388084.484,0.4921303771143033,19.085455272607568
240.0,1572966006256143.8,48348358179436.69,0.49283665437386087,19.092029426006693
241.0,1815911631204861.8,55776829048160.11,0.4935035586374337,19.098242615033097
242.0,2096384550914410.2,64351521147954.4,0.4941309257777631,19.10409237927691
243.0,2420168269301962.5,74249630376252.8,0.4947186002481312,19.109576382314444
244.0,2793933570536229.5,85675776861029.38,0.49526643500532685,19.11469241315838
245.0,3225373971845596.0,98866259373550.9,0.495774291438094,19.119438387651687
246.0,3723361776828435.0,114093971040069.66,0.4962420393013395,19.123812349803718
247.0,4298127844778630.0,131674071699209.06,0.4966695566563603,19.127812473067006
