Time,J,A,S,tau
0.0,100.0,10.0,0.8700494644511239,12.706653342257857
1.0,93.14799163694192,21.48424061817167,0.8435276316108973,11.927659569868196
2.0,92.93124515041275,32.202682024287284,0.8157871804990287,11.136014077034776
3.0,98.03759992362863,42.064931145254974,0.7868039083744772,10.34437595577641
4.0,107.15009277256082,51.07128965767413,0.7566859132811654,9.552737834518044
5.0,119.0637130982733,59.225534002444945,0.7255548113245966,8.761099713259679
6.0,132.69469592741396,66.5350656095959,0.6935451223196425,7.969461592001316
7.0,147.08698729969063,73.01097905984939,0.6608033070459226,7.177823470742951
8.0,163.16764199176032,76.27516366755411,0.6453078112457018,7.092157519748657
9.0,174.35685909017798,82.7113099192016,0.6312328826386695,7.092165315200858
10.0,182.28650809748677,91.84298550735028,0.6168930058698595,7.092165315200858
11.0,188.3987060114547,102.74786104564933,0.6023069415312831,7.092165315200858
12.0,193.53633452693634,114.62876616313014,0.5874954129751179,7.092165315200858
13.0,198.1026075707526,126.81086367486073,0.5724807856505284,7.092165315200858
14.0,202.19645622769306,138.7366969905799,0.5572869849798291,7.092165315200858
15.0,205.97822008696482,149.67728834734672,0.5419393933990044,7.092165315200858
16.0,209.0268401356582,159.40290541471055,0.5264647290851887,7.092165315200858
17.0,210.36140061770877,168.52296953451622,0.5108909048899631,7.092165315200858
18.0,209.6010431705479,177.29731348345302,0.4952468681738579,7.092165315200858
19.0,206.73660283045493,185.73278109562563,0.47956242790177944,7.092165315200858
20.0,201.9567833923264,193.68569505293638,0.46386806145820014,7.092165315200858
21.0,195.54068388492243,200.93899189290178,0.4481947083344033,7.092165315200858
22.0,187.80017022573713,207.25042044077264,0.4325735594262912,7.092165315200858
23.0,179.06405555709904,212.36553464854967,0.4170358307563162,7.092165315200858
24.0,169.5589641471471,216.1492926195711,0.40161253716676193,7.092165315200858
25.0,159.44307376526677,218.57594002528845,0.38633426143109684,7.092165315200858
26.0,148.86760157774506,219.67037066118476,0.37123092660284757,7.092165315200858
27.0,137.99674828516683,219.47978168747804,0.35633157047580083,7.092165315200858
28.0,127.00552114968053,218.06254383083524,0.3416641317973196,7.092165315200858
29.0,116.07014170094835,215.48579902404592,0.3272552419530974,7.092165315200858
30.0,105.35745126479983,211.82513755608952,0.31313004093816976,7.092165315200858
31.0,95.01454150723663,207.16688479911963,0.29931199571221484,7.092165315200858
32.0,85.15965427220573,201.61171938704453,0.28582275879357455,7.092165315200858
33.0,75.88056247524237,195.27290653302362,0.2726820225773243,7.092165315200858
34.0,67.75484211522102,187.7498183763672,0.2566254620949419,7.168695104997937
35.0,65.16863632997494,174.1137867364474,0.20628505005988587,8.168693652933618
36.0,61.15445307176658,161.29148056037357,0.1646071624661275,9.168693582011636
37.0,56.257572443696084,149.25107724208814,0.13037817891011344,10.168693511089659
38.0,50.903176912093755,137.96053133442416,0.10249493700496448,11.168693440167683
39.0,45.41345787009537,127.38772439561251,0.07996713049023332,12.168693369245707
40.0,40.02391619675711,117.50059916122072,0.06191656878980279,13.168693298323733
41.0,34.89853328468682,108.26728686237627,0.047573807901022655,14.168693227401757
42.0,30.14358438633102,99.65622715054249,0.03627265969894424,15.168693156479776
43.0,25.819925119595418,91.63627770341326,0.02744297963337436,16.168693085557784
44.0,21.953693329654254,84.17681540181546,0.0206024125261954,17.168693014635796
45.0,18.54542871551414,77.24783065022854,0.01534757857154288,18.168692943713804
46.0,15.577664236530092,70.82001228397486,0.011344980461241008,19.168692872791816
47.0,13.021055138012674,64.86481947193674,0.008321899842115442,20.16869280186984
48.0,10.839217379545271,59.3545458287921,0.006057782906011229,21.168692730947864
49.0,8.992448752752113,54.262376703697875,0.004376250319306771,22.16869266002589
50.0,7.44044090060834,49.56243436557419,0.0031377544468213408,23.168692589103912
51.0,6.144189014479305,45.2298155181997,0.0022330700301595795,24.168692518181935
52.0,5.0672359411639905,41.240619402117446,0.001577599767146483,25.168692447259957
53.0,4.176406081285042,37.571967986571785,0.0011065020920541751,26.16869237633798
54.0,3.44216046110196,34.202020034543104,0.0007705954908895507,27.168692305416002
55.0,2.8386524972552274,31.10997573479029,0.0005329460654767077,28.168692234494024
56.0,2.3436032775819386,28.276076317509297,0.0003660951741303583,29.168692163572043
57.0,1.938045492040389,25.68159635163771,0.00024982485947673246,30.168692092650065
58.0,1.6060063776154487,23.30883193397848,0.00016939242235268826,31.168692021728077
59.0,1.3341518770494394,21.141082103431575,0.00011414547575862131,32.168691950806085
60.0,1.1114385735335444,19.162627699442286,7.645861076950082e-05,33.16869187988409
61.0,0.9287776762015791,17.358705628989295,5.092137925812226e-05,34.1686918089621
62.0,0.7787276562803953,15.71547996573213,3.3727895970316776e-05,35.16869173804012
63.0,0.6552206514808687,14.22001038762865,2.222331509181431e-05,36.168691667118125
64.0,0.5533242889171426,12.860218464625355,1.4570678193363001e-05,37.16869159619613
65.0,0.46903799496581255,11.624852256985285,0.0,38.168691525274184
66.0,0.3991212611468746,10.503449613317372,0.0,39.16869145435222
67.0,0.3409509410382866,9.486300799716254,0.0,40.16869138343024
68.0,0.2924032835064243,8.564410490299679,0.0,41.16869131250826
69.0,0.25175776592045446,7.729459823655388,0.0,42.168691241586245
70.0,0.21761861933781282,6.973768395466887,0.0,43.168691170664246
71.0,0.18885188342832485,6.29025709802458,0.0,44.168691099742254
72.0,0.16453436271661298,5.672411439138563,0.0,45.16869102882028
73.0,0.14391239023107905,5.1142452966855,0.0,46.168690957898285
74.0,0.12637009522307968,4.6102677640176015,0.0,47.168690886976286
75.0,0.11140147193956934,4.155447233243152,0.0,48.16869081605429
76.0,0.09859028110969843,3.74518040322293,0.0,49.1686907451323
77.0,0.08759343668851441,3.3752620085844938,0.0,50.16869067421032
78.0,0.07812694517076285,3.041854645400867,0.0,51.16869060328833
79.0,0.06995506304697895,2.7414608125528654,0.0,52.16869053236635
80.0,0.06288169994954204,2.4708970508205432,0.0,53.16869046144435
81.0,0.056743252401814846,2.2272690791514984,0.0,54.16869039052236
82.0,0.05140276982475097,2.0079480333215427,0.0,55.168690319600366
83.0,0.04674531769659007,1.8105484514133434,0.0,56.168690248678374
84.0,0.04267429155157667,1.6329089093929694,0.0,57.168690177756375
85.0,0.039108151848162756,1.473071756095094,0.0,58.16869010683438
86.0,0.035977961508108544,1.3292658661039152,0.0,59.16869003591239
87.0,0.03322530200542062,1.1998900884457608,0.0,60.168689964990406
88.0,0.030800545601231823,1.0834984063769078,0.0,61.168689894068436
89.0,0.02866143518576092,0.978785705689641,0.0,62.168689823146465
90.0,0.026771892863349227,0.8845750377304963,0.0,63.168689752224495
91.0,0.025101121800981313,0.7998052496184388,0.0,64.16868968130251
92.0,0.023622735408920785,0.7235205513952285,0.0,65.16868961038053
93.0,0.022313999247385825,0.6548609069156581,0.0,66.16868953945854
94.0,0.021155480791336202,0.5930520757053643,0.0,67.16868946853656
95.0,0.020130438530114064,0.5373977208163591,0.0,68.16868939761457
96.0,0.019224359997628164,0.4872721999997655,0.0,69.16868932669259
97.0,0.018424848305519603,0.4421129572617629,0.0,70.1686892557706
98.0,0.017721115986039572,0.4014148206990954,0.0,71.16868918484862
99.0,0.017103849013384763,0.36472421572128233,0.0,72.16868911392662
100.0,0.01656508348672564,0.3316337338942857,0.0,73.16868904300463
101.0,0.016097842597029493,0.30177788840306213,0.0,74.16868897208266
102.0,0.015696197603546687,0.2748286092287823,0.0,75.16868890116068
103.0,0.015354979515245107,0.2504915553970471,0.0,76.16868883023871
104.0,0.015069768748990043,0.22850273406468521,0.0,77.16868875931674
105.0,0.014836832083897083,0.20862518017014098,0.0,78.16868868839475
106.0,0.014652929244459148,0.19064648275331555,0.0,79.16868861747278
107.0,0.014515413839635954,0.174375944850323,0.0,80.16868854655081
108.0,0.014421977365466057,0.1596426534882501,0.0,81.16868847562883
109.0,0.01437082993925511,0.14629313671062052,0.0,82.16868840470686
110.0,0.014360414154738103,0.13418983160492287,0.0,83.16868833378489
111.0,0.014389626687094764,0.12320918388114817,0.0,84.1686882628629
112.0,0.01445753042653277,0.1132404109312419,0.0,85.16868819194093
113.0,0.014563605097551975,0.10418396949204475,0.0,86.16868812101893
114.0,0.014707397758973489,0.09595060534941884,0.0,87.16868805009693
115.0,0.014888825742790959,0.08846006624729887,0.0,88.16868797917495
116.0,0.015107950060356914,0.08164032689419097,0.0,89.16868790825295
117.0,0.015365023370453439,0.07542663987110221,0.0,90.16868783733096
118.0,0.015660541872802847,0.06976080505726581,0.0,91.16868776640896
119.0,0.01599507141193019,0.06459051850101817,0.0,92.16868769548697
120.0,0.016369451822392998,0.05986869153823403,0.0,93.16868762456572
121.0,0.016784494955439214,0.055553022277991346,0.0,93.71260819075916
122.0,0.017241396520072862,0.05160533652822748,0.0,93.71260819075916
123.0,0.01774127923153372,0.047991325310791,0.0,93.71260819075916
124.0,0.018285453560453895,0.044680045907788964,0.0,93.71260819075916
125.0,0.018875322655234995,0.04164362082644668,0.0,93.71260819075916
126.0,0.01951233776857992,0.03885691002158016,0.0,93.71260819075916
127.0,0.020198086465117338,0.03629721487687929,0.0,93.71266887970464
128.0,0.020915708479258045,0.033964047332860625,0.0011538042039873188,7.092429004113841
129.0,0.021704862261974538,0.03180219304136317,0.0012100161693299914,7.0924290041137965
130.0,0.022548013526438235,0.029811694424165435,0.0012677854802600295,7.0924290041137965
131.0,0.02344696719735112,0.027977447027075653,0.0013270315569488362,7.0924290041137965
132.0,0.024403562901444097,0.026285784740811023,0.0013876650427550043,7.0924290041137965
133.0,0.02541962703611799,0.024724335685050194,0.0014495883614739436,7.0924290041137965
134.0,0.026496964812939713,0.023281891522564425,0.0015126963228255055,7.0924290041137965
135.0,0.027637364363350226,0.021948291159776808,0.0015768768069112334,7.0924290041137965
136.0,0.028842526648831735,0.020714322588304586,0.001642011569514571,7.0924290041137965
137.0,0.030114080458778822,0.019571622357504825,0.0017079770855461562,7.0924290041137965
138.0,0.031453543425435056,0.018512597171930836,0.0017746454681206965,7.0924290041137965
139.0,0.032862303876932966,0.017530346655178882,0.0018418854205399437,7.0924290041137965
140.0,0.03434160832668458,0.016618594835612406,0.0019095632148338414,7.0924290041137965
141.0,0.03589250686854129,0.015771632800201458,0.001977543695278259,7.0924290041137965
142.0,0.03751584926546686,0.014984261496178828,0.002045691271711667,7.0924290041137965
143.0,0.03921226277293112,0.014251743302460455,0.002113870897395425,7.0924290041137965
144.0,0.040982122058513724,0.013569758133525484,0.0021819490252667196,7.0924290041137965
145.0,0.042825525471979195,0.012934363752428396,0.0022497945212797154,7.0924290041137965
146.0,0.04474229472242741,0.012341958893586254,0.002317279522276579,7.0924290041137965
147.0,0.04673188467904915,0.01178925465716519,0.0023842802505423246,7.0924290041137965
148.0,0.04879343479245573,0.011273241673990277,0.00245067773145454,7.0924290041137965
149.0,0.0509257276599674,0.010791165262722672,0.002516358454449451,7.0924290041137965
150.0,0.05312717405691999,0.01034050180394284,0.0025812149482494625,7.0924290041137965
151.0,0.05539581757251104,0.009918936694396835,0.002645146264286589,7.0924290041137965
152.0,0.057729273626179946,0.009524347434049035,0.00270805840876545,7.0924290041137965
153.0,0.060124780067231966,0.009154783636077411,0.0027698646342445314,7.092429004113798
154.0,0.06257916387614126,0.008808431827527706,0.0028301951023322496,7.093862198185411
155.0,0.06508904066641594,0.008483422529089431,0.002886302816757427,7.110423666993006
156.0,0.06765038208440428,0.008178156234066872,0.002937696455462198,7.145689700397329
157.0,0.07025861570222922,0.007891214020169129,0.002984691083586472,7.199407905422999
158.0,0.07290880634897785,0.00762128828152489,0.003027604810289172,7.271322003108014
159.0,0.07559566418748187,0.007367174642741073,0.0030667527896511395,7.361172187100061
160.0,0.0783135394993444,0.007127763052962553,0.0031024426251203383,7.468695543029795
161.0,0.0810564189442252,0.006902031814552671,0.003134969086469797,7.593635627527123
162.0,0.0838180813816047,0.006689105129222804,0.0031652237997157706,7.731853648122041
163.0,0.08659209205077156,0.006488288829411415,0.003194885774283452,7.8733871757164415
164.0,0.08937204788688348,0.00629878609712116,0.003224007496629792,8.017888381086665
165.0,0.0921513994086901,0.006119851937975347,0.003252581323413467,8.165385573767496
166.0,0.09492354185181377,0.005950795922200692,0.0032806008405661742,8.315906041950704
167.0,0.09768189023701815,0.0057909757232477216,0.0033080607675176304,8.469475998324477
168.0,0.10041988031163113,0.005639793950429121,0.0033349569431052194,8.62612060490419
169.0,0.10313100168069866,0.005496695951076061,0.0033612863344248995,8.785863971651768
170.0,0.10580891704418613,0.005361165497216088,0.0033870469443515938,8.948729018805798
171.0,0.1084474844905201,0.0052327215088923875,0.0034122377590161783,9.114737505039498
172.0,0.11104075458069808,0.0051109153474229955,0.0034368587102940515,9.28391014304646
173.0,0.11358307468451564,0.0049953304649265765,0.0034609106901555007,9.45626647558888
174.0,0.11606914335769387,0.004885577149540935,0.0034843953834918628,9.63182482723568
175.0,0.11849398664471697,0.0047812909998229906,0.003507315259750284,9.810602479230624
176.0,0.1208530267913895,0.0046821338059268225,0.0035296736353507344,9.992615729890955
177.0,0.12314214190676134,0.004587788076779939,0.0035514744269744465,10.177879662411708
178.0,0.12535760123587153,0.00449795701998334,0.0035727222322851928,10.36640861772788
179.0,0.12749619481306984,0.004412364530366492,0.003593422277406469,10.558215957205224
180.0,0.12955516664587044,0.004330750823355312,0.003613580252181451,10.753314164499232
181.0,0.13153222403040962,0.0042528740478553085,0.0036332024446521344,10.95171541180133
182.0,0.13342561392355895,0.004178507844766281,0.003652295518210052,11.153431008078892
183.0,0.13523399283787108,0.004107439320831398,0.0036708665452735156,11.358472138037191
184.0,0.13695656506105158,0.004039471033290843,0.003688922996375308,11.56684983400084
185.0,0.1385929335970963,0.003974416242756083,0.0037064725613487844,11.7785749236009
186.0,0.14014318314789978,0.003912102032993142,0.0037235233221068107,11.99365909148872
187.0,0.14160779359170395,0.0038523650869127513,0.003740083457100814,12.212113976545124
188.0,0.14298764101478875,0.003795053329774475,0.003756161440150218,12.433952683214484
189.0,0.14428398352488717,0.003740024278053581,0.0037717658008198235,12.65918905756758
190.0,0.14549837614632088,0.00368714398355061,0.0037869052471307518,12.887838738166538
191.0,0.14663273025376436,0.003636288293179005,0.0038015885149118808,13.119919399802626
192.0,0.14768916606587285,0.0035873395587203293,0.003815824448946363,13.355450972827189
193.0,0.14867009064540518,0.0035401890431445344,0.0038296218357519018,13.594456425018667
194.0,0.14957806673893886,0.0034947336011223904,0.0038429895261676457,13.836961657643851
195.0,0.1504158612067809,0.0034508780920958063,0.0038559362526448425,14.082996970419037
196.0,0.15118634986977628,0.0034085324073336518,0.0038684707986584225,14.332596746998641
197.0,0.15189251906182363,0.00336761274228146,0.0038806017422259574,14.585800097163052
198.0,0.15253743073249706,0.0033280406425781005,0.0038923376868480386,14.842652289416353
199.0,0.15312418090320365,0.003289742191605733,0.0039036870046237787,15.103203204830427
200.0,0.1536558924880745,0.003252649458743568,0.003914658042044331,15.36751223173849
201.0,0.15413568133887678,0.0032166969254517268,0.003925258955982703,15.635641661106519
202.0,0.1545666206903078,0.003181825474062053,0.003935497736867496,15.907666509103652
203.0,0.1549517638221389,0.0031479777566058333,0.0039453823024678,16.183665370206416
204.0,0.15529406621426725,0.00311510155634369,0.0039549202867226385,16.46372894677976
205.0,0.1555964317549515,0.0030831471884517937,0.003964119297572326,16.747955473980593
206.0,0.15586166357926512,0.0030520680945934913,0.003972986659727729,17.0364515125833
207.0,0.15609243739039547,0.0030218215900652623,0.003981529620637951,17.329337704421206
208.0,0.15629138200479267,0.0029923660600531033,0.003989755277401457,17.62673748276616
209.0,0.15646093047727067,0.00296366414486334,0.003997670494535943,17.928790686567197
210.0,0.15660345731549705,0.0029356797441487765,0.004005282127646774,18.235642853490095
211.0,0.15672119813530494,0.0029083790959692443,0.004012596771490129,18.54744773230643
212.0,0.1568162165421645,0.0028817313924302053,0.004019620992269745,18.864372902797797
213.0,0.1568905427416861,0.0028557063072948965,0.004026361272801143,19.18658733595878
214.0,0.15694600041679627,0.002830276433933998,0.0040328238975931305,19.514270255743504
215.0,0.15698431374766172,0.002805415821207624,0.004039015216070322,19.847607472622556
216.0,0.15700714709652128,0.0027810992157902598,0.004044941410023056,20.186785230187247
217.0,0.15701594352762885,0.002757304151394965,0.004050608660344447,20.53199491118298
218.0,0.15701210049228662,0.0027340087570511826,0.004056023210193294,20.883429356918526
219.0,0.15699694441195097,0.0027111919054415,0.004061191140381505,21.24127884494519
220.0,0.15697160312535072,0.002688834759090443,0.004066118627630643,21.605726909965504
221.0,0.15693717199704302,0.002666918877103082,0.004070811921850988,21.976956113029487
222.0,0.15689468480460628,0.002645426404451682,0.0040752771274241715,22.355142134221456
223.0,0.15684499663763224,0.0026243414363600662,0.004079520533910633,22.74043731173558
224.0,0.15678893363826152,0.0026036484078856134,0.004083548518823607,23.132989880129767
225.0,0.15672729809706146,0.002583331935022945,0.004087367338658353,23.532943245119544
226.0,0.15666073495507654,0.002563378244798558,0.00409098335836801,23.94039726491161
227.0,0.15658983371747273,0.002543774197659063,0.004094403124154995,24.355434611291397
228.0,0.15651518337531165,0.002524506645315735,0.004097633157312837,24.778138178758727
229.0,0.15643730221835148,0.002505563055145633,0.004100679846991849,25.208558574661033
230.0,0.15635659404684296,0.0024869321298293247,0.004103549800365818,25.646685873080596
231.0,0.1562734532205067,0.0024686026898379496,0.004106249671462348,26.09250460527139
232.0,0.15618827057854054,0.002450563564756981,0.004108786075967218,26.545997134820798
233.0,0.15610136366454241,0.0024328042402049863,0.004111165473688296,27.007088927677195
234.0,0.1560129830914565,0.002415314971649463,0.0041133944173794785,27.47564918284236
235.0,0.15592337714624668,0.0023980860495919254,0.00411547947443214,27.951544934950167
236.0,0.15583278838639167,0.0023811077861026126,0.004117427157349846,28.434636884312972
237.0,0.155741398912882,0.0023643710745635048,0.004119243732708035,28.924716368970973
238.0,0.1556493555403175,0.002347867263277395,0.004120935432475078,29.421533417606906
239.0,0.1555568046841238,0.0023315877083885067,0.004122508490766958,29.92483757236589
240.0,0.15546388290852547,0.0023155238363654594,0.004123969035687026,30.434362863671733
241.0,0.1553706840127704,0.0022996675445059005,0.004125322853331827,30.949778461585236
242.0,0.15527729042060057,0.002284010913007582,0.004126575679994487,31.470737146179438
243.0,0.15518378214853457,0.002268546034166724,0.004127733210248331,31.996886788523668
244.0,0.15509021473035867,0.0022532652938156016,0.004128800795512036,32.527828907584826
245.0,0.15499662980984263,0.002238161300525543,0.0041297836193827245,33.06313989293748
246.0,0.15490306807090506,0.002223226668322782,0.004130686844674638,33.60239388754827
247.0,0.15480955518371126,0.002208454212256104,0.004131515315247489,34.145129603417686
248.0,0.15471610397954222,0.002193836982211379,0.004132273618268097,34.69085605674976
