Time,J,A,S,tau
0.0,100.0,10.0,0.6195788131142078,18.14412502678508
1.0,90.21926325173257,13.003455976145853,0.598613884856602,17.277941195631918
2.0,81.29859510175845,15.782485644074145,0.5767876896359401,16.390952192842782
3.0,73.17734686856922,18.297486099897775,0.553890175432748,15.503963190057133
4.0,65.7659421467046,20.549595116211094,0.5300583386100787,14.616974187271483
5.0,58.987685660110984,22.541355749924172,0.5054396297315245,13.729985184485834
6.0,52.7778752649831,24.276720359391838,0.48019019486643666,12.842996181700183
7.0,47.08241673723251,25.7610418592025,0.4544729097127919,11.956007178914533
8.0,41.85655950592883,27.001028967725908,0.42845515135398293,11.069018176128882
9.0,37.063325763005324,28.00470976465271,0.4023064872420199,10.182029173343231
10.0,33.25065299659175,28.188490018525275,0.38106004140816974,9.619551580219412
11.0,30.449495638344413,27.37619821926218,0.3676299170208396,9.615431488221027
12.0,27.60029879680941,26.63705549190647,0.35417742330705965,9.615431488221027
13.0,24.781219357612226,25.937232490022005,0.3408548991903195,9.615431488221027
14.0,22.0537160620599,25.249094958636345,0.3276835127799768,9.615431488221027
15.0,19.462825762264522,24.552751103358492,0.31468391283796593,9.615431488221027
16.0,17.039835567993197,23.834910378237687,0.30187610036824936,9.615431488221027
17.0,14.804618142871751,23.08777601509813,0.2892793013999609,9.615431488221027
18.0,12.767729003405185,22.30798661717535,0.2769118510194105,9.615431488221027
19.0,10.932260638085934,21.49568015392253,0.26479108035651777,9.615431488221027
20.0,9.302930876258557,20.64574842180921,0.2529332120918112,9.615431488221027
21.0,7.880488151561634,19.75315606080272,0.24135328143197274,9.615431488221027
22.0,6.644274648139056,18.832391141921974,0.2300650167966094,9.615431488221027
23.0,5.574660836342741,17.896575942160844,0.21908080412887165,9.615431488221027
24.0,4.6538386489532595,16.956542302065614,0.20841161914914336,9.615431488221027
25.0,3.8654227217467327,16.021277377221974,0.19806698416197932,9.615431488221027
26.0,3.194246959932469,15.098241678208563,0.18805494037567705,9.615431488221027
27.0,2.626243137409885,14.193600824095048,0.17838202950912677,9.615431488221027
28.0,2.1484291906801083,13.312397797182614,0.16905329532920066,9.615431488221027
29.0,1.7489018408535413,12.458689550937628,0.16007229697707975,9.615431488221027
30.0,1.4168596904447643,11.63563926954645,0.15144113677744112,9.615431488221027
31.0,1.1425751252855951,10.8456203216455,0.1431604964938949,9.615431488221027
32.0,0.9173291685428334,10.090364792603214,0.13522968956942719,9.615431488221027
33.0,0.7333964587376569,9.371029614735034,0.12764672410483618,9.615431488221027
34.0,0.5861491000576613,8.68610994531582,0.11866065095779849,9.691949054626336
35.0,0.48680396923364644,8.016374155564755,0.09211822797144864,10.691947643916938
36.0,0.40155709769001446,7.390048413225237,0.07105634605622528,11.691947547763082
37.0,0.3291246950401092,6.805134550101027,0.054458815627858564,12.691947451609225
38.0,0.26814023720991137,6.259651954836354,0.04146999984768997,13.691947355455369
39.0,0.21722991890947965,5.751644588619298,0.03137593483147761,14.691947259301513
40.0,0.17506635991442676,5.2791872109860725,0.023586040945806526,15.691947163147656
41.0,0.14040584963374192,4.840391395692037,0.01761621722861592,16.6919470669938
42.0,0.11211086006881225,4.433410743219417,0.013073057222920592,17.691946970839957
43.0,0.0891615920471218,4.056445486333936,0.009639597937687903,18.691946874686117
44.0,0.0706597785441084,3.7077467550695564,0.007062723230164108,19.691946778532277
45.0,0.05582615429193172,3.385620184412872,0.005142042078866671,20.691946682378436
46.0,0.04399374202572289,3.08842892063465,0.003720248710835291,21.691946586224596
47.0,0.034598606149678406,2.8145961126337293,0.002674903436713452,22.69194649007075
48.0,0.027169238574774535,2.5626069143655945,0.0019115087056074656,23.69194639391692
49.0,0.02131528983046997,2.3310098373156576,0.0013577227864154623,24.691946297763096
50.0,0.01671669167306311,2.118417828587216,0.0009586325365082899,25.691946201609266
51.0,0.013113201463053928,1.9235087595278688,0.0006728881481571353,26.691946105455443
52.0,0.010294890028520486,1.7450255662807581,0.00046960419318982046,27.691946009301613
53.0,0.008093592462064052,1.581775918340819,0.0003258901952831618,28.69194591314779
54.0,0.006375491012115609,1.4326316280002773,0.00022491486989034042,29.69194581699396
55.0,0.0050347013217664155,1.2965276517039463,0.00015439490437947016,30.69194572084014
56.0,0.0039878849689707965,1.1724608819876756,0.00010543413835691099,31.691945624686312
57.0,0.0031697369910738474,1.0594886298252846,7.163610358749438e-05,32.691945528532486
58.0,0.0025292838199427806,0.9567269309044965,4.843490493412838e-05,33.69194543237866
59.0,0.0020268640024083996,0.8633486497898379,3.259403402182081e-05,34.69194533622483
60.0,0.0016316942108179175,0.7785814326246004,2.1834922606122127e-05,35.69194524007101
61.0,0.0013199278799559757,0.7017055571100141,1.4564129160251323e-05,36.69194514391718
62.0,0.001073111359411925,0.6320516602520633,0.0,37.691945047763355
63.0,0.0008769739097273601,0.5689984395741606,0.0,38.69194495160953
64.0,0.0007204760169010392,0.5119702696062376,0.0,39.691944855455695
65.0,0.0005950727742029475,0.46043484022407377,0.0,40.69194475930184
66.0,0.0004941410836436552,0.41390077583819745,0.0,41.691944663147986
67.0,0.000412537366984963,0.3719152708331943,0.0,42.69194456699414
68.0,0.000346259165552398,0.33406180292328574,0.0,43.69194447084028
69.0,0.0002921815920315978,0.2999578245410637,0.0,44.69194437468643
70.0,0.000247857437178388,0.26925255414780364,0.0,45.69194427853259
71.0,0.0002113642060864576,0.24162485926946375,0.0,46.69194418237875
72.0,0.0001811851237588655,0.21678116002646353,0.0,47.6919440862249
73.0,0.00015611977419352182,0.19445348869576656,0.0,48.691943990071046
74.0,0.00013521404910212147,0.17439759932167098,0.0,49.6919438939172
75.0,0.00011770580046190382,0.15639112422291793,0.0,50.691943797763344
76.0,0.00010298504341745582,0.14023195980035222,0.0,51.69194370160949
77.0,9.056017148801845e-05,0.12573656078338394,0.0,52.69194360545562
78.0,8.003455528247943e-05,0.11273852638797537,0.0,53.69194350930176
79.0,7.108619958106182e-05,0.10108711289832195,0.0,54.691943413147904
80.0,6.345290721091356e-05,0.09064593376383219,0.0,55.69194331699407
81.0,5.692045068189422e-05,0.08129173738148324,0.0,56.69194322084023
82.0,5.1313015210251395e-05,0.07291323369580356,0.0,57.691943124686375
83.0,4.648593369979404e-05,0.06541005718005417,0.0,58.69194302853253
84.0,4.23196413323595e-05,0.05869174987681978,0.0,59.69194293237868
85.0,3.8715081642490977e-05,0.052676877088006266,0.0,60.69194283622484
86.0,3.558990948311435e-05,0.04729218534822237,0.0,61.69194274007099
87.0,3.287546557830294e-05,0.042471819122464415,0.0,62.69194264391714
88.0,3.0514327595118448e-05,0.03815664607420734,0.0,63.69194254776329
89.0,2.845840484955485e-05,0.03429356943057756,0.0,64.69194245160942
90.0,2.666726727522802e-05,0.030834972937170718,0.0,65.69194235545555
91.0,2.5106859296657856e-05,0.0277381766373226,0.0,66.6919422593017
92.0,2.3748520600972332e-05,0.024964929878062203,0.0,67.69194216314783
93.0,2.2568043985153642e-05,0.022480982080161683,0.0,68.69194206699396
94.0,2.1544894407331668e-05,0.02025568841261725,0.0,69.69194197084009
95.0,2.0661787563674267e-05,0.01826162392100882,0.0,70.69194187468624
96.0,1.9904138480448515e-05,0.01647426017072758,0.0,71.69194177853237
97.0,1.9259568970751488e-05,0.014871675135195833,0.0,72.6919416823785
98.0,1.871768566829262e-05,0.013434276258710659,0.0,73.69194158622463
99.0,1.8269834287597137e-05,0.012144553819367524,0.0,74.69194149007077
100.0,1.7908788345702726e-05,0.010986868083425059,0.0,75.6919413939169
101.0,1.7628545955162316e-05,0.009947254466867212,0.0,76.69194129776304
102.0,1.742432037957906e-05,0.009013239011228849,0.0,77.6919412016092
103.0,1.7292253753744088e-05,0.008173684994613038,0.0,78.69194110545536
104.0,1.72293264476786e-05,0.007418653514918,0.0,79.6919410093015
105.0,1.723349643460552e-05,0.006739264495514751,0.0,80.69194091314766
106.0,1.7303266223521954e-05,0.006127595714824665,0.0,81.69194081699382
107.0,1.743797863401034e-05,0.005576571034857347,0.0,82.69194072083997
108.0,1.7637564448475248e-05,0.005079872354221041,0.0,83.69194062468613
109.0,1.7902514198060577e-05,0.00463186043677193,0.0,84.69194052853229
110.0,1.8234043686709898e-05,0.004227495554943467,0.0,85.69194043237843
111.0,1.863377790211835e-05,0.003862279260698136,0.0,86.69194033622459
112.0,1.910405882488302e-05,0.0035321907643536842,0.0,87.69194024007075
113.0,1.9647760610883745e-05,0.0032336368430505927,0.0,88.69194014391691
114.0,2.026825241118424e-05,0.0029634079491474333,0.0,89.69194004776307
115.0,2.0969548240333162e-05,0.0027186326073085796,0.0,90.69193995160923
116.0,2.1756263891794524e-05,0.0024967438227976417,0.0,91.69193985545539
117.0,2.2633600832136046e-05,0.002295444296416547,0.0,92.69193975930155
118.0,2.3607437748165396e-05,0.002112678561537749,0.0,93.6919396631477
119.0,2.4684246510814375e-05,0.001946606043070835,0.0,94.69193956699388
120.0,2.5871253413183724e-05,0.0017955783723676618,0.0,95.69193947084004
121.0,2.7176155559054118e-05,0.0016581194546938854,0.0,96.23542043663636
122.0,2.8607929180462494e-05,0.0015329031539544468,0.0,96.23542043663636
123.0,3.0175769902111338e-05,0.0014187430076336603,0.0,96.23542043663636
124.0,3.18898170269409e-05,0.0013145732513438495,0.0,96.23542043663636
125.0,3.3761021919910674e-05,0.0012194374923512007,0.0,96.23542043663636
126.0,3.580113771117962e-05,0.0011324763285003804,0.0,96.23542043663636
127.0,3.80228123808066e-05,0.0010529173956368057,0.0,96.23542043663636
128.0,4.043943329470678e-05,0.0009800665337134317,0.0,96.23542043663636
129.0,4.306524055711175e-05,0.0009132989136462784,0.0,96.23542043663636
130.0,4.591536820522454e-05,0.0008520520213616617,0.0,96.23542047709115
131.0,4.9005355217746245e-05,0.0007958196221173375,1.2514864998955017e-05,9.615185752588673
132.0,5.2352854614805365e-05,0.0007441437929520573,1.3258804422767229e-05,9.615185752588673
133.0,5.597480671296111e-05,0.0006966133004258364,1.4036958119744224e-05,9.615185752588673
134.0,5.9889307731996795e-05,0.0006528563579582154,1.4849532093217467e-05,9.615185752588673
135.0,6.411518141447031e-05,0.0006125371459301661,1.5696603106489378e-05,9.615185752588673
136.0,6.867169457436537e-05,0.0005753522909033782,1.6578114352861395e-05,9.615185752588673
137.0,7.357847440002247e-05,0.0005410274611952356,1.7493870083785663e-05,9.615185752588673
138.0,7.885540859793697e-05,0.0005093143832032598,1.8443531645184615e-05,9.615185752588673
139.0,8.452253843341656e-05,0.0004799882021705645,1.942661411851611e-05,9.615185752588673
140.0,9.059987065436648e-05,0.0004528451618650394,2.0442484861436704e-05,9.615185752588673
141.0,9.710709448442243e-05,0.00042770052862061775,2.1490364206961603e-05,9.615185752588673
142.0,0.0001040633851616528,0.00040438667271634103,2.256932643103014e-05,9.615185752588673
143.0,0.00011148710688998318,0.0003827513818844841,2.3678303203842468e-05,9.615185752588673
144.0,0.00011939564354109669,0.00036265631778585687,2.4816086766316877e-05,9.615185752588673
145.0,0.00012780505867410454,0.00034397567716670525,2.598133580416954e-05,9.615185752588673
146.0,0.00013672978838722246,0.00032659497330676785,2.7172582226647418e-05,9.615185752588673
147.0,0.00014618242133836973,0.0003104099123842158,2.8388238765440307e-05,9.615185752588673
148.0,0.0001561730743964726,0.00029532550539199744,2.9626609142455038e-05,9.615185752588673
149.0,0.00016670935064879553,0.00028125508862648436,3.0885897184171065e-05,9.615185752588673
150.0,0.00017779591637031482,0.000268119563281325,3.2164218039355436e-05,9.615185752588673
151.0,0.00018943417585125455,0.00025584668214898113,3.3459609876518766e-05,9.615185752588673
152.0,0.00020162209114373255,0.0002443703859780782,3.4770045846058335e-05,9.615185752588673
153.0,0.00021435350089360163,0.0002336302940980859,3.609344762930706e-05,9.615185752588673
154.0,0.00022761782774246469,0.00022357117082072138,3.741513625752935e-05,9.617997421171244
155.0,0.0002414013166374057,0.00021414224573217434,3.865970069426367e-05,9.640053599304396
156.0,0.00025568516431969746,0.000205297072150831,3.982184106000378e-05,9.682275209081626
157.0,0.00027044552935503725,0.00019699307841257246,4.090270739907288e-05,9.744356624019577
158.0,0.000285654264808553,0.00018919113595626752,4.190426618963998e-05,9.82598871306725
159.0,0.0003012784803907128,0.0001818553138350593,4.282914861830474e-05,9.926859256732575
160.0,0.0003172807519149336,0.00017495256136404436,4.36804973341712e-05,10.046653419250584
161.0,0.000333619268770627,0.00016845246667455542,4.446183797102076e-05,10.18505416011623
162.0,0.00035024799233841514,0.00016232702847283326,4.517696227959774e-05,10.34174264827538
163.0,0.00036711688570931347,0.00015655045397415128,4.58298270559551e-05,10.516398660448802
164.0,0.00038417250571093955,0.00015109895471399182,4.6424346560009214e-05,10.70873146123838
165.0,0.0004013580747460364,0.0001459506025362627,4.697940158093816e-05,10.914628804959284
166.0,0.0004186148243263699,0.00014108510579700993,4.753518587888196e-05,11.124130057426889
167.0,0.0004358818087088415,0.00013648373422954006,4.808898755236707e-05,11.337880192989864
168.0,0.0004530963739299347,0.00013212917755410362,4.864055261889205e-05,11.55590876136297
169.0,0.0004701952237297764,0.00012800540265757107,4.918963403955648e-05,11.77824317524061
170.0,0.00048711501740714933,0.00012409756176483592,4.973599216804964e-05,12.00490860808756
171.0,0.0005037929932937955,0.00012039189676040486,5.0279395136184295e-05,12.23592791393235
172.0,0.0005201675636023116,0.00011687566408412553,5.08196194171602e-05,12.471321539521568
173.0,0.000536179335412828,0.00011353702483701394,5.135644943871521e-05,12.711107401716589
174.0,0.0005517714483358232,0.00011036498061620025,5.188967809611459e-05,12.955300862573745
175.0,0.0005668901680786718,0.00010734930877034026,5.241910694389246e-05,13.203914651325862
176.0,0.0005814853396005686,0.00010448053208343946,5.2944547229764304e-05,13.456958784857003
177.0,0.0005955114805480125,0.00010174981058414884,5.346581832197488e-05,13.714440369495835
178.0,0.0006089275760585819,9.914889751749436e-05,5.398274830795224e-05,13.976363708582134
179.0,0.0006216972440390227,9.667015184927318e-05,5.449517623113083e-05,14.242730303012772
180.0,0.0006337901409094301,9.430642554352314e-05,5.500294870869824e-05,14.513538351065352
181.0,0.0006451806428941135,9.205103492728759e-05,5.5505921768768686e-05,14.78878332650162
182.0,0.0006558491218563907,8.989777811725024e-05,5.600396170333526e-05,15.068457415267543
183.0,0.0006657816812018551,8.784083286292802e-05,5.649694231467486e-05,15.352549486293162
184.0,0.0006749691691905305,8.587476621059023e-05,5.6984748129717046e-05,15.64104573043732
185.0,0.0006834087968510521,8.399451378899976e-05,5.746727200216289e-05,15.933928452188717
186.0,0.0006911020437170871,8.219529873894682e-05,5.79444148145134e-05,16.231177192610136
187.0,0.0006980558553084503,8.047269286218338e-05,5.8416088145809903e-05,16.532767933093076
188.0,0.000704281541545786,7.882250982763092e-05,5.888220964002967e-05,16.838673187713464
189.0,0.0007097944078952959,7.724085337523812e-05,5.934270825643858e-05,17.148862622203602
190.0,0.0007146139107211568,7.572405350769497e-05,5.9797518612262615e-05,17.46330179269242
191.0,0.0007187623613619675,7.426866591096022e-05,6.024658511248406e-05,17.781953709488388
192.0,0.0007222655113354209,7.287147012875205e-05,6.068985908483326e-05,18.10477703800084
193.0,0.0007251510015048719,7.152941239595443e-05,6.112729914593984e-05,18.431727970999624
194.0,0.0007274489930716176,7.02396628229412e-05,6.155887261923656e-05,18.762758283540002
195.0,0.0007291906993744387,6.89995143169805e-05,6.198455231840459e-05,19.09781747997546
196.0,0.0007304088451812362,6.780646282809624e-05,6.240431936699243e-05,19.43685041832526
197.0,0.0007311366204550637,6.665810899032826e-05,6.28181599159845e-05,19.779799744368372
198.0,0.0007314076820913886,6.55522318457911e-05,6.322606795383122e-05,20.12660351142352
199.0,0.0007312556754980631,6.448670034245478e-05,6.362804189639305e-05,20.477197532553756
200.0,0.0007307138335091163,6.345954037592272e-05,6.402408746285232e-05,20.831513094496955
201.0,0.0007298149872845584,6.246885534984186e-05,6.441421422693977e-05,21.18947922103291
202.0,0.0007285908621526554,6.151288688196896e-05,6.479843848178025e-05,21.55102048444202
203.0,0.0007270724855363425,6.0589943681916124e-05,6.517677983690969e-05,21.916059176674512
204.0,0.0007252892758631856,5.969845628033489e-05,6.554926399595351e-05,22.284513216528484
205.0,0.0007232697493838114,5.883691353161297e-05,6.591591948017418e-05,22.656298230149016
206.0,0.0007210404892622966,5.800391175118446e-05,6.627678025119521e-05,23.03132554831814
207.0,0.0007186270556924921,5.7198098168038365e-05,6.663188262816705e-05,23.409504200432416
208.0,0.0007160529093012378,5.6418214885332104e-05,6.698126770167036e-05,23.79073899405939
209.0,0.0007133404378538234,5.566304863033509e-05,6.732497849668664e-05,24.17493242852893
210.0,0.000710509893683846,5.493146994610678e-05,6.766306213558417e-05,24.561982847538395
211.0,0.0007075805023062027,5.4222387110717766e-05,6.799556713141707e-05,24.951786303268204
212.0,0.0007045692875978321,5.353478718368219e-05,6.83225457193688e-05,25.34423453660976
213.0,0.0007014924231999797,5.2867686734498044e-05,6.864405140072381e-05,25.7392175044578
214.0,0.0006983640398938361,5.2220170156973945e-05,6.896013980810951e-05,26.13662038265231
215.0,0.0006951973512829887,5.159135354524268e-05,6.927086842216455e-05,26.536326715032526
216.0,0.0006920039162428557,5.0980405737059533e-05,6.957629551404028e-05,26.938215397814798
217.0,0.0006887940594393501,5.038653830541806e-05,6.987648185845253e-05,27.342163076713046
218.0,0.0006855773643356907,4.980898488087761e-05,7.017148754510691e-05,27.748043435918824
219.0,0.0006823615569056183,4.924704263269168e-05,7.04613747371714e-05,28.155725262112377
220.0,0.0006791540525343211,4.870001952818096e-05,7.074620605768901e-05,28.565076572529907
221.0,0.0006759611128880776,4.816726136649377e-05,7.102604341204443e-05,28.975960441745624
222.0,0.0006727877380796143,4.7648161295664354e-05,7.130095007802573e-05,29.38823606344129
223.0,0.0006696388037903977,4.7142116529866164e-05,7.157098922440357e-05,29.80176201175287
224.0,0.0006665181142192312,4.664856337040675e-05,7.183622289428194e-05,30.216391097238187
225.0,0.0006634286290408871,4.616697389899216e-05,7.209671349798066e-05,30.631972543079474
226.0,0.0006603732229820154,4.569682289865776e-05,7.235252325155712e-05,31.04835494626354
227.0,0.0006573539027054944,4.5237621979767814e-05,7.26037127284501e-05,31.46538059527108
228.0,0.0006543720836887616,4.478891222989462e-05,7.285034192213062e-05,31.88288793368201
229.0,0.0006514291428752767,4.4350236081987015e-05,7.309247075186922e-05,32.30071503243802
230.0,0.0006485258961829507,4.392116360278547e-05,7.33301571423487e-05,32.71869394621981
231.0,0.0006456626582269789,4.3501294932483074e-05,7.356345704437849e-05,33.13665145069725
232.0,0.0006428397034142685,4.3090232867685756e-05,7.379242620800921e-05,33.5544137470703
233.0,0.0006400569824940456,4.268759998611665e-05,7.401700174243631e-05,33.97191461403048
234.0,0.0006373142027677011,4.229301978322668e-05,7.421170650841908e-05,34.4141254720408
235.0,0.0006346111220767999,4.190590131984013e-05,7.40114574376794e-05,35.24658745783868
236.0,0.000631946916576409,4.1526082438082594e-05,7.365208352192826e-05,36.24449370113046
237.0,0.0006293206767775929,4.1153358882093663e-05,7.329870552144763e-05,37.244476675797905
238.0,0.0006267314976594592,4.078742473568002e-05,7.295294246055269e-05,38.24447621927827
239.0,0.000624178331388174,4.042799059356808e-05,7.26143865132781e-05,39.24447594807612
240.0,0.0006216600794294895,4.0074773562238635e-05,7.228262443278878e-05,40.24447569924494
