Time,J,A,S,tau
0.0,100.0,10.0,0.8451996471616275,17.5425938065555
1.0,97.74954767383039,89.6790931672449,0.800510552032102,16.601887216986377
2.0,221.47542474813707,162.2731425839968,0.7574942875344063,15.652610142642486
3.0,447.44836091613166,228.17135989145785,0.7161390659777398,14.694873602610825
4.0,754.5319893763575,287.751260100652,0.6764292176165002,13.728786392286548
5.0,1124.004929417477,341.3781457651571,0.6383457189705154,12.754461351764625
6.0,1539.3871032993882,389.4050486180847,0.6018663742152788,11.772015343318287
7.0,1986.2702956645167,432.17270324948873,0.566966005948976,10.781569225250616
8.0,2452.1555738089687,470.00952170784524,0.5336166600923786,9.783247822916307
9.0,2930.190459026694,498.95263987884505,0.5049212558777108,8.885345193583742
10.0,3386.8763461054605,532.0970927669596,0.5019445435124288,8.848358451357115
11.0,3826.4953133944305,628.9822769865635,0.4990186456488558,8.812249028769042
12.0,4337.958746770269,778.1343573619118,0.49614491937113936,8.777016879800525
13.0,4984.156659098599,969.4068899658391,0.4933246874456309,8.74266181900943
14.0,5806.536664301914,1193.8602912899257,0.49055923761885095,8.709183530395494
15.0,6829.091553255966,1443.650033259829,0.48784982199680216,8.6765815760163
16.0,8061.817933922285,1711.922996549908,0.4851976565036543,8.644855404367286
17.0,9503.685994370417,1992.722330061067,0.4826039203932599,8.614004358422141
18.0,11147.32414784361,2277.973142995246,0.4800697558710969,8.58402768349866
19.0,12965.659596100904,2569.528202369882,0.4775962677641177,8.55492453496427
20.0,14927.628971809303,2910.0811814816166,0.4751845232542642,8.526693985435747
21.0,17061.439147070258,3334.2201729406156,0.47283555169741465,8.4993350319161
22.0,19436.197083897405,3865.484317058532,0.4705503444928459,8.472846602624132
23.0,22142.914682117993,4518.447014070706,0.46832985501420027,8.447227563541762
24.0,25280.5345170789,5300.487949196179,0.46617499860774453,8.422476724800276
25.0,28945.781096002578,6213.291749507906,0.46408665264012977,8.39859284672887
26.0,33226.26598005226,7254.094333283958,0.4620656565923094,8.375574645710191
27.0,38197.203313016485,8414.412348716463,0.4601128122003108,8.353420799743565
28.0,43908.32568486992,9692.678289247111,0.45822888363776276,8.332129953830432
29.0,50390.43659614687,11113.848765576122,0.4564145977612964,8.311700724991073
30.0,57691.39938093562,12721.454473493575,0.4546706443687269,8.292131707335285
31.0,65897.61151814007,14568.828796844044,0.4529976764861341,8.27342147654454
32.0,75142.5827497849,16712.660868742034,0.45139631069573244,8.25556859432868
33.0,85606.73482352131,19208.393021659325,0.44986712748284297,8.238571612607773
34.0,97511.75148265503,22107.059259122012,0.4484106716029106,8.222429077468092
35.0,111112.06241503589,25452.992254051172,0.4470274524647556,8.20713953289516
36.0,126684.50981392807,29282.03826160766,0.44571794452953833,8.192701524301146
37.0,144511.85446466965,33630.878370762985,0.4444825877054124,8.179113601792288
38.0,164878.47258808292,38551.124730881675,0.4433217877727057,8.166374323280648
39.0,188083.97931787567,44116.993518289775,0.4422359167664786,8.154482257281925
40.0,214466.18494018278,50427.70016659926,0.4412253134132128,8.143435985666928
41.0,244425.02539738503,57606.455481268444,0.44029028352978017,8.133234106077389
42.0,278443.9685880716,65797.38820755751,0.43943110042016037,8.123875234174067
43.0,317106.66374090547,75161.33779117347,0.43864800526189873,8.115358005685096
44.0,361108.24032216537,85870.84133796136,0.4379412074793264,8.10768107825607
45.0,411259.5780086102,98106.53605032059,0.4373108850942436,8.100843133095744
46.0,468485.2016193301,112060.57800851969,0.43675718506935146,8.094842876458747
47.0,533823.6920325842,127945.9483972533,0.4362802236347712,8.089679040914314
48.0,608438.1375740954,146007.92190953367,0.4358800865855576,8.085350386422514
49.0,693639.0720801237,166535.2773208805,0.43555682955796454,8.081855701232035
50.0,790919.0593709458,189869.9155041512,0.43531047828165487,8.079193802594915
51.0,901996.5643872878,216414.26479093757,0.4351410288046921,8.077363537296756
52.0,1028866.4107129922,246636.25913168356,0.43504844768791673,8.076363782011567
53.0,1173854.7693280873,281071.9326163323,0.43503267219123576,8.07619344350089
54.0,1339673.838130504,320327.87269479956,0.4350936104207533,8.07685145860301
55.0,1529476.192249586,365087.0423903936,0.43523114145033853,8.078336794063686
56.0,1746912.419670959,416119.8607365251,0.43544511541730363,8.080648446197777
57.0,1996198.1975387128,474300.80506140296,0.4357353535921912,8.083785440382352
58.0,2282196.6135829915,540629.9541763038,0.4361016484166636,8.087746830374131
59.0,2610523.454152621,616258.4063858149,0.43654376352775554,8.09253169749149
60.0,2987677.778733345,702516.4585995522,0.4370614337610047,8.098139149609825
61.0,3421201.065269279,800943.5387678355,0.437654365124719,8.104568319991701
62.0,3919867.7057630825,913319.2495680692,0.43832223475616966,8.111818365965286
63.0,4493907.444573416,1041696.3902077163,0.439064690859633,8.119888467444994
64.0,5155261.090594004,1188438.2226827128,0.43988135262637523,8.12877782529221
65.0,5917874.33254033,1356262.8117233065,0.44077181013585665,8.138485659521761
66.0,6798042.343266653,1548296.8115246564,0.4417356242617745,8.149011207378125
67.0,7814808.762355899,1768141.26927314,0.442772326557918,8.160353721226093
68.0,8990439.29544361,2019951.2108139705,0.44388141913809703,8.172512466304187
69.0,10350986.490314359,2308530.438485621,0.4450623745525522,8.185486718330628
70.0,11926965.328116823,2639442.6542553743,0.4463146356632465,8.199275760961994
71.0,13754157.632445572,3019140.321292787,0.4476376155153897,8.213878883095294
72.0,15874582.03808113,3455112.887630675,0.4490306972211447,8.22929537605117
73.0,18337644.055898394,3956057.560968115,0.4504932338549529,8.245524530599436
74.0,21201498.471939906,4532077.842999483,0.45202454835331296,8.262565633836397
75.0,24534669.21360396,5194915.776407161,0.45362393342995133,8.280417965929253
76.0,28417954.464477405,5958225.910925828,0.45529065150380327,8.299080796700471
77.0,32946750.774255212,6837898.261099703,0.45702393465784935,8.318553382136084
78.0,38233788.44713199,7852441.817926447,0.45882298461332716,8.33883496071626
79.0,44412360.192985415,9023439.23872124,0.4606869727290262,8.359924749578617
80.0,51640247.30552934,10376083.441104839,0.4626150400362337,8.381821940604334
81.0,60104405.49613088,11939811.384996276,0.4646062973031441,8.404525696355027
82.0,70026585.83991995,13749051.885297995,0.4666598251343256,8.42803514588097
83.0,81670083.20864841,15844107.054940134,0.46877467410794266,8.45234938040304
84.0,95347850.96352226,18272192.377706677,0.47094986495248803,8.477467448870515
85.0,111432216.70190087,21088667.78714664,0.4731843887653945,8.503388353386223
86.0,130366582.13791923,24358491.95432356,0.47547720727957693,8.530111044523277
87.0,152679493.52275288,28157947.66809964,0.47782725317517677,8.55763441652
88.0,179001578.19913185,32576690.371252798,0.48023343043964006,8.585957302357313
89.0,210085953.2361409,37720182.14778439,0.4826946147779581,8.615078468721965
90.0,246832840.57623976,43712585.7924676,0.48520965407444805,8.64499661085803
91.0,290319282.2613035,50700207.64895612,0.48777736890721424,8.675710347309284
92.0,341835088.0199295,58855594.09599318,0.4903965531157258,8.707218214556322
93.0,402926231.1577749,68382412.0799838,0.493065974422029,8.739518661540343
94.0,475447344.33932006,79521259.46867417,0.49578437510910667,8.772610044096734
95.0,561625330.6206813,92556588.84830755,0.4985504727529728,8.806490619291624
96.0,664136400.4237498,107824965.71223445,0.5013629610090562,8.841158539660972
97.0,786199452.0483356,125724924.81017897,0.5042205104528379,8.876611847358413
98.0,931688526.3639201,146728768.40573913,0.5071217694758138,8.912848468192145
99.0,1105272756.1342833,171396544.2436699,0.5100653652290801,8.949866205689608
100.0,1312580846.4443083,200393022.12412804,0.5130499046182119,8.987662734843301
101.0,1560404602.5180726,234507679.42127857,0.5160739753656566,9.02623559609039
102.0,1856946569.000228,274678983.8633497,0.519136147088961,9.065582188904273
103.0,2212117899.6444273,322023131.68577933,0.5222349724637656,9.105699765617128
104.0,2637907374.0359874,377868803.4254173,0.525368988392351,9.146585424924627
105.0,3148821463.4027953,443798670.02787995,0.5285367172492308,9.188236105501911
106.0,3762431878.014188,521699140.37394124,0.5317366681375956,9.230648579509136
107.0,4500031296.504092,613820450.1770551,0.5349673382017224,9.273819445973817
108.0,5387442880.041232,722848087.2250916,0.5382272139626993,9.31774512433328
109.0,6456003126.829119,851989686.5297422,0.5415147726851088,9.362421847622507
110.0,7743757524.365704,1005078156.7866045,0.5448284837786672,9.407845656016349
111.0,9296936544.631533,1186697126.4644873,0.5481668102073322,9.454012389940432
112.0,11171728751.584652,1402330638.0367625,0.5515282099403286,9.500917683517837
113.0,13436489233.944122,1658543999.6325421,0.5549111373933955,9.548556957745292
114.0,16174388891.512495,1963201782.5025606,0.5583140449100111,9.596925413767188
115.0,19486703964.871067,2325728876.2431607,0.5617353842234069,9.646018026209662
116.0,23496798325.72343,2757428058.9001412,0.565173607949478,9.695829536281101
117.0,28355010848.617794,3271858168.7934647,0.5686271710574993,9.746354445268405
118.0,34244659299.80667,3885295852.2257667,0.572094532354721,9.797587007562871
119.0,41389308945.51207,4617286116.077965,0.5755741559550005,9.84952122422634
120.0,50061807889.240166,5491311886.865086,0.5790645127350889,9.90215083612286
121.0,60595153584.40871,6535598787.222479,0.5825640817884357,9.955469317426841
122.0,73396023535.08339,7784085435.118011,0.5860713518375198,10.009469869019597
123.0,88961117042.97359,9277601150.947859,0.5895848226560966,10.064145411882517
124.0,107897338303.58087,11065274608.77646,0.5931030064264361,10.11948858082247
125.0,130946456275.94438,13206255077.261292,0.596624429109858,10.175491717806578
126.0,159015167186.00238,15771765441.07118,0.6001476317441299,10.23214686595783
127.0,193212305913.328,18847609835.26452,0.6036711717373966,10.289445763011953
128.0,234893737867.47723,22537178636.943592,0.6071936241045096,10.347379835431484
129.0,285718254698.9227,26965093183.911873,0.6107135826639664,10.405940192204293
130.0,347714961951.0429,32281613074.425774,0.6142296612062869,10.465117618951052
131.0,423366818842.36395,38667933549.59228,0.6177404945826686,10.524902572203418
132.0,515712168866.03455,46342645711.406654,0.6212447397920943,10.585285173500248
133.0,628469198225.4916,55569453641.84111,0.6247410769607228,10.646255204146216
134.0,766189053055.3771,66666616738.05181,0.6282282103266529,10.70780209943802
135.0,934441257050.3895,80018234835.6319,0.6317048691186906,10.769914943765373
136.0,1140043894279.949,96087998167.5443,0.6351698084154398,10.832582465219517
137.0,1391340818930.0437,115435738166.29059,0.6386218099315837,10.8957930308523
138.0,1698545285121.3137,138737439391.5783,0.6420596827430034,10.959534641852896
139.0,2074156803282.625,166809430249.75287,0.6454822639611222,11.023794929021676
140.0,2533473542174.1562,200637627736.3756,0.6488884193441278,11.08856114835286
141.0,3095215817919.2085,241412849329.97888,0.6522770438489147,11.153820176926644
142.0,3782289823679.732,290573479007.74445,0.6556470621212375,11.219558508962363
143.0,4622720009373.889,349857010582.21265,0.6589974289276093,11.28576225209528
144.0,5650788286300.601,421362357027.17474,0.6623271295292134,11.352417123860207
145.0,6908425749335.287,507625032050.2226,0.6656351799911224,11.41950844846622
146.0,8446909643966.694,611707957656.9006,0.6689206274349935,11.487021153818455
147.0,10328934498962.467,737311106956.775,0.6721825502341242,11.554939768784994
148.0,12631137806512.459,888903896120.8036,0.6754200581521851,11.62324842072575
149.0,15447181420238.742,1071885083744.0841,0.6786322924273407,11.69193083327504
150.0,18891508461740.29,1292775579537.4468,0.6818184257964073,11.760970324466546
151.0,23103916870541.25,1559451109336.3865,0.6849776624680368,11.830349805141807
152.0,28255131077632.6,1881422932207.972,0.6881092380442384,11.900051777651216
153.0,34553583643506.188,2270176540503.1777,0.6912124193924751,11.970058334859333
154.0,42253674918112.22,2739580270831.767,0.6942865044699293,12.040351159452767
155.0,51665820443632.38,3306377555790.534,0.6973308220961402,12.110911523638011
156.0,63168660330032.8,3990780481781.056,0.7003447316830747,12.181720289159763
157.0,77223903179438.08,4817185112449.777,0.7033276229222921,12.252757907658944
158.0,94394356113248.42,5815033726780.897,0.7062789154320419,12.324004421376253
159.0,115365842780788.73,7019853768214.661,0.7091980583654892,12.395439464209417
160.0,140973800903038.22,8474508238654.314,0.712084529977889,12.467042263202943
161.0,172235541485838.47,10230701728394.916,0.7149378371611278,12.538791640396997
162.0,210389383600621.2,12350793421654.18,0.7177575149456007,12.61066601506239
163.0,256942087751579.12,14909980146928.326,0.720543125972506,12.68264340632171
164.0,313726401635551.6,17998923371230.46,0.7232942599372495,12.75470143617716
165.0,382970721737483.2,21726907476483.965,0.7260105330031916,12.826817333008384
166.0,467383417708495.7,26225639369102.098,0.7286915871930679,12.898967935470417
167.0,570254903543275.0,31653817216851.586,0.7313370897582715,12.971129696823263
168.0,695581091893772.9,38202625689803.97,0.7339467325289911,13.043278689688506
169.0,848212855680235.6,46102340032167.07,0.7365202312454646,13.11539061126629
170.0,1034036534457811.1,55630257594695.25,0.7390573248705766,13.187440789055836
171.0,1260192007959720.5,67120228801631.22,0.7415577748898861,13.25940418701945
172.0,1535336097319292.0,80974104563605.73,0.744021364599359,13.331255412222747
173.0,1869960506711396.5,97675490569684.8,0.7464478983834802,13.40296872194371
174.0,2276775949101949.5,117806255850359.23,0.7488372009836973,13.474518031294926
175.0,2771175050285636.5,142066340511228.9,0.7511891167579875,13.545876921379953
176.0,3371790545637828.0,171297531772829.5,0.7535035089363836,13.61701864793824
177.0,4101168137837335.0,206511991424757.66,0.7557802588727235,13.68791615050957
178.0,4986577180625180.0,248926498892718.12,0.7580192652948201,13.758542062109914
179.0,6060988188501098.0,300003503511199.5,0.7602204435528653,13.828868719469948
180.0,7364248524690685.0,361500339373795.7,0.762383724867018,13.898868173835803
181.0,8944497669486868.0,435528242438758.8,0.7645090555778746,13.968512202303307
182.0,1.0859870080272268e+16,524623098958719.7,0.7665963964000047,14.03777231971225
183.0,1.3180543527454806e+16,631830297897767.6,0.7686457216802174,14.106619791093927
184.0,1.5991204469906604e+16,760806355335690.6,0.7706570186603786,14.175025644723778
185.0,1.939400830011506e+16,915940662131964.1,0.7726302867455626,14.24296068576074
186.0,2.351213739997459e+16,1102501363798220.1,0.7745655367802947,14.310395510461483
187.0,2.849407541487034e+16,1326810117623585.2,0.7764627903329343,14.377300520989019
188.0,3.4518741694589844e+16,1596451550528006.0,0.778322078989356,14.443645940812202
189.0,4.180166120268626e+16,1920523924695999.8,0.7801434436558743,14.509401830739943
190.0,5.060236283658358e+16,2309939293432861.0,0.7819269338717929,14.574538105559988
191.0,6.123326043958333e+16,2777782941788121.0,0.7836726071336286,14.639024551284322
192.0,7.407030753847483e+16,3339743780839333.0,0.7853805282308906,14.702830843011798
193.0,8.956578258830045e+16,4014629972948216.0,0.7870507685941605,14.765926563408467
194.0,1.0826363183504718e+17,4824985683891202.0,0.7886834056555939,14.8282812218316
195.0,1.3081784811335026e+17,5797829414585402.0,0.7902785222217131,14.889864274063669
196.0,1.5801451068842445e+17,6965537859304436.0,0.7918362058600457,14.950645142666378
197.0,1.9079820033306858e+17,8366904006820376.0,0.7933565482993187,15.01059323795521
198.0,2.3030367213753034e+17,1.0048404520883358e+16,0.7948396448436682,15.069677979598058
199.0,2.778938232522962e+17,1.2065715339575852e+16,0.7962855938011628,15.127868818836069
200.0,3.352051427338331e+17,1.448552605710328e+16,0.7976944959259779,15.185135261298512
201.0,4.0420217579152774e+17,1.738771173969965e+16,0.7990664538754771,15.241446890421667
202.0,4.872427548472836e+17,2.0867933050673764e+16,0.8004015716817329,15.296773391461587
203.0,5.8715617927148e+17,2.5040750639299324e+16,0.8016999542378317,15.351084576104357
204.0,7.073368586315772e+17,3.0043350037595184e+16,0.802961706799362,15.404350407635542
205.0,8.518563727454682e+17,3.6040001818684696e+16,0.8041869344999789,15.456541026655055
206.0,1.0255977002661587e+18,4.322740172406876e+16,0.8053757418821371,15.50762677733774
207.0,1.234415922369874e+18,5.184106615051564e+16,0.806528232442356,15.557578234219655
208.0,1.4853307992211543e+18,6.216299418050617e+16,0.8076445081914333,15.606366229507715
209.0,1.786757321409366e+18,7.453083571096275e+16,0.8087246692299634,15.653961880833442
210.0,2.1487816023459438e+18,8.934887504051032e+16,0.8097688133377893,15.700336619458065
211.0,2.583491304081364e+18,1.0710118769985398e+17,0.8107770355783784,15.74546221891026
212.0,3.1053712096247194e+18,1.2836740829509618e+17,0.8117494279173475,15.789310824028616
213.0,3.7317773207351864e+18,1.5384163011471427e+17,0.8126860788558025,15.831854980391563
214.0,4.483504325646416e+18,1.843550358724446e+17,0.8135870730786225,15.873067664016403
215.0,5.385464873098229e+18,2.209030311878436e+17,0.8144524911162849,15.912922311358166
216.0,6.467503218981458e+18,2.6467777187952237e+17,0.8152824090211345,15.951392849563758
217.0,7.765369517654039e+18,3.171071823988982e+17,0.816076898057221,15.988453726948656
218.0,9.321887979926358e+18,3.7990175932377184e+17,0.8168360244047598,16.024079943652612
219.0,1.118835521060632e+19,4.551106743460855e+17,0.8175598488789587,16.05824708232703
220.0,1.3426215014916452e+19,5.451891059873925e+17,0.8182484266619917,16.09093133890525
221.0,1.6109065284605743e+19,6.530790426696097e+17,0.8189018070489235,16.12210955338296
222.0,1.9325062370044445e+19,7.823063277479464e+17,0.8195200332066767,16.151759240574922
223.0,2.3179805556535935e+19,9.370971790874054e+17,0.820103141947523,16.17985862076715
224.0,2.779979130558335e+19,1.1225180471257549e+18,0.8206511635164103,16.206386650104868
225.0,3.3336553654458044e+19,1.3446436748815982e+18,0.8211641213912,16.231323050781832
226.0,3.997162865445858e+19,1.610759046009854e+18,0.8216420320965414,16.254648340931737
227.0,4.7922506683462115e+19,1.9296022677699832e+18,0.8220849050305001,16.276343864191638
228.0,5.744977861131131e+19,2.3116565628719764e+18,0.8224927423058404,16.29639181881066
229.0,6.886569937291764e+19,2.769501295578865e+18,0.8228655386048324,16.314775286153694
230.0,8.254446244616105e+19,3.3182343952832015e+18,0.8232032810470321,16.331478258671602
231.0,9.893452938191176e+19,3.975980744578402e+18,0.8235059490706977,16.346485667219174
232.0,1.1857342743552205e+20,4.764504619231213e+18,0.8237735143270335,16.359783407699013
233.0,1.4210553078480816e+20,5.709947024664225e+18,0.8240059405895516,16.371358366855976
234.0,1.7030338812502118e+20,6.84371368440018e+18,0.824203183676974,16.38119844710458
235.0,2.0409333940127423e+20,8.203545420967795e+18,0.8243651913895746,16.389292590458684
236.0,2.4458628684432645e+20,9.83480861782714e+18,0.8244919034595442,16.395630801436138
237.0,2.9311466870178624e+20,1.1792052612066818e+19,0.8245832515147171,16.400204168929175
238.0,3.512769317227208e+20,1.4140887766767084e+19,0.8246391590582427,16.403004886820906
239.0,4.209909325243846e+20,1.6960251719927484e+19,0.8246595414622264,16.404026273284707
240.0,5.045581557784079e+20,2.034514611042323e+19,0.8246443059757225,16.403262788827178
241.0,6.04740940265923e+20,2.44099423283117e+19,0.8245933517475657,16.40071005295249
242.0,7.248553919472298e+20,2.929237877971879e+19,0.8245065698635947,16.39636485945502
243.0,8.688832594581763e+20,3.5158389990491152e+19,0.8243838434010043,16.39022519008822
244.0,1.0416064388014738e+21,4.220794603097189e+19,0.8242250474975427,16.382290226617478
