Time,J,A,S,tau
0.0,100.0,10.0,0.8483920977394164,16.713951463554427
1.0,203.45525348261884,55.074471364941736,0.8432836782661739,16.583570425524215
2.0,509.96951045606045,97.36866891574186,0.8385887094402604,16.46004663175639
3.0,1006.8902002721562,137.09914643461934,0.8342857801874601,16.343399047332536
4.0,1682.4000343156192,174.46436802593783,0.8303547117559505,16.233644187638713
5.0,2525.4429399831206,209.6460440292746,0.8267765191138495,16.130797355317696
6.0,3525.658152691783,242.81062443730733,0.823533324741727,16.034872561703196
7.0,4673.320476309487,274.11066248303507,0.820608278799927,15.945882444747337
8.0,5959.286406899848,303.68604375372064,0.8179854868163107,15.863838181370788
9.0,7374.947599699381,331.6650938443865,0.815649942504118,15.788749396752737
10.0,8912.188459257428,358.1655775963131,0.8135874674106502,15.720624066902944
11.0,10563.343289041633,383.29566157660054,0.8117846529524322,15.659468423650363
12.0,12321.170946399383,407.1546662288233,0.8102288104148541,15.605286847201118
13.0,14178.814762753282,429.83390940187047,0.808907920799374,15.5580817692937
14.0,16129.779995231203,451.4173280192683,0.8078105949212054,15.517853552078224
15.0,18167.910324694007,471.98212472255466,0.8069260292326096,15.48460039045216
16.0,20283.65512797091,507.8313556303664,0.8086191368243323,15.521424173481387
17.0,22696.784401159868,661.0012586689419,0.8124070449791604,15.617317826578663
18.0,26014.12887677799,940.1026429926418,0.8160932795504036,15.714413135533018
19.0,30817.66890254577,1335.1861009388053,0.8196794067133628,15.812708325249162
20.0,37632.57340260499,1836.978894062147,0.8231670403700491,15.912199861383769
21.0,46930.43165705264,2436.832056113542,0.8265578362275897,16.012882328814996
22.0,59132.33492063657,3126.672594035597,0.8298534861166778,16.11474830849339
23.0,74611.8687711295,3898.959891547366,0.8330557125376343,16.21778825398789
24.0,93697.99365062344,4746.646202794656,0.836166263453233,16.321990367226093
25.0,116677.79573490914,5663.140958017302,0.839186907322573,16.427340474481138
26.0,143799.21903008805,6642.277799665512,0.8421194283696262,16.53382190380506
27.0,175273.62764055733,7678.285190247282,0.8449656221066494,16.641415362283542
28.0,211278.32800434585,8765.759491819494,0.8477272910828093,16.750098812306227
29.0,251959.01278470454,9899.639802135809,0.8504062408810887,16.859847362958174
30.0,297432.13675255934,11075.18584410635,0.853004276332811,16.97063314268982
31.0,347787.0740443193,12287.957966210428,0.855523197978222,17.08242519174687
32.0,403088.42818002397,13533.797559050228,0.8579647987177184,17.19518935161551
33.0,463377.6136291303,14809.177757554578,0.8603308607037035,17.30888815751359
34.0,528717.4765205402,16224.563692683842,0.8626231525370234,17.423480768060628
35.0,600027.0824272818,18129.966812128187,0.8648434264310273,17.538922830796363
36.0,679791.4196689838,20871.237670368322,0.8669934158050141,17.655166415425715
37.0,771896.4057860137,24756.00226265763,0.8690748329599283,17.772159929147207
38.0,881413.4763183686,30056.331299671165,0.8710893669550985,17.88984804208217
39.0,1014403.1553410862,37011.27658196239,0.8730386816665674,18.008171621108435
40.0,1177737.5102892146,45829.26499399322,0.8749244140068836,18.127067670671806
41.0,1378939.595371872,56690.373826732684,0.8767481723062797,18.246469282288025
42.0,1626040.3880664683,69748.48650257762,0.8785115348508827,18.3663055935113
43.0,1927450.8680042033,85133.33378236461,0.880216048557212,18.486501755139056
44.0,2291849.5108459224,102952.43450850438,0.8818632277999422,18.606978910096533
45.0,2728082.947933315,123292.91927302918,0.8834545533346203,18.72765417845343
46.0,3245081.1741582155,146223.27479078382,0.8849914713966894,18.848440659165
47.0,3851783.6118835956,171794.96793883608,0.8864753928488367,18.969247435174093
48.0,4557076.545610934,200044.00521568436,0.8879076924927528,19.089979596332576
49.0,5369741.450759468,230992.38292358955,0.8892897084450027,19.210538269753446
50.0,6298413.006589944,264649.45800419943,0.8906227416200589,19.330820663570943
51.0,7351544.9703396065,301013.2429004524,0.8919080553223212,19.450720125303203
52.0,8537382.19433999,340071.6225397901,0.8931468748327401,19.57012620480089
53.0,9863943.608935008,381806.7057642726,0.8943403871740562,19.688924738969245
54.0,11339065.535994055,426430.7666883984,0.8954897408559013,19.806997945120543
55.0,12971885.807985164,474930.1072651828,0.8965960457969105,19.924224531800313
56.0,14775935.581745861,529117.6087689693,0.8976603731790563,20.040479818603174
57.0,16772039.355157468,591519.1632551195,0.8986837553871259,20.155635870945645
58.0,18990694.584803488,665269.3633275251,0.8996671860077653,20.269561651079886
59.0,21474000.675754365,754017.4878822733,0.9006116198742371,20.382123184322424
60.0,24277207.196450047,861843.2361325023,0.9015179731368659,20.49318373976104
61.0,27469942.496874087,993181.3908981156,0.9023871233596331,20.602604026253417
62.0,31137169.79240298,1152754.7624301447,0.9032199096305552,20.710242403979457
63.0,35379910.53268942,1345514.6043088306,0.9040171327152086,20.815955113617697
64.0,40315790.17710764,1576588.1214211946,0.9047795552223126,20.919596521601854
65.0,46079441.106468916,1851232.4451559747,0.9055079017778155,21.021019382049882
66.0,52822794.35258138,2174794.5299263955,0.906202859197551,21.120075115762067
67.0,60715271.97420849,2552676.4368267716,0.9068650766803903,21.21661410743719
68.0,69943928.31287758,2990305.476356383,0.9074951660097231,21.310486020529897
69.0,80713553.217769,3493108.812978466,0.9080937017472914,21.401540129772258
70.0,93246760.78979538,4066492.042839823,0.9086612214179136,21.489625671933204
71.0,107784057.30372491,4715821.457904071,0.9091982256905558,21.574592214970203
72.0,124583908.01248664,5446409.5388516765,0.9097051785649333,21.656290044871685
73.0,143922857.60136324,6263503.123861568,0.9101825075446408,21.734570570722745
74.0,166095649.02401164,7172274.3020646805,0.9106306037851635,21.809286747667276
75.0,191415364.61673373,8177815.275198124,0.9110498222415379,21.880293516517018
76.0,220213654.26600468,9285447.478283968,0.9114404818059223,21.947448260360435
77.0,252842855.14092326,10502254.693263263,0.9118028654078857,22.010611277424903
78.0,289684367.85137486,11839213.816268982,0.9121372201287099,22.069646266451798
79.0,331164498.1535344,13313140.850456843,0.9124437572519029,22.124420830514854
80.0,377776998.3953478,14948400.01766467,0.9127226523410001,22.17480698910707
81.0,430111526.32340807,16778411.01276528,0.9129740452814002,22.22068170037227
82.0,488887476.5206628,18846981.10631556,0.9131980402923179,22.26192739247064
83.0,554992938.4235523,21209484.07413013,0.9133947059254205,22.298432502235556
84.0,629528280.4724085,23933906.495134547,0.9135640750397276,22.33009201704336
85.0,713853955.2390095,27101776.695883933,0.9137061447540186,22.356808015057602
86.0,809642711.7372603,30808994.751401063,0.9138208763831206,22.378490203991717
87.0,918935902.9533451,35166577.39364563,0.9139081953510315,22.39505645301162
88.0,1044203892.3476185,40301329.917999186,0.9139679910836502,22.40643331414673
89.0,1188410559.6342175,46356455.67155303,0.914000116881655,22.412556528985185
90.0,1355081939.4286444,53492112.13190529,0.9140043897742022,22.413371516161188
91.0,1548379049.858423,61885921.103189446,0.9139805903542499,22.40883383490889
92.0,1773174982.2836423,71733439.1679427,0.9139284625964351,22.398909619766197
93.0,2035136328.049479,83248593.1873106,0.9138477136585467,22.38357598137369
94.0,2340809013.7283998,96664084.51372816,0.913738013667754,22.362821368237018
95.0,2697708618.6884594,112231764.2377953,0.9135989954930417,22.336645884305863
96.0,3114415188.7601995,130222980.76635304,0.9134302545042994,22.305061557453172
97.0,3600672519.3341994,150928899.0398897,0.9132313483206018,22.268092553647236
98.0,4167491894.3171535,174660913.94084233,0.9130017965494471,22.22577533226472
99.0,4827261334.157191,201753362.82599482,0.9127410805174874,22.178158738375927
100.0,5593873621.334572,232573537.5214657,0.912448642994891,22.125304028061624
101.0,6482904732.9144535,267541032.3671424,0.9121238879150837,22.06728482344579
102.0,7511880262.606155,307156133.4551616,0.911766180091677,22.004186994769167
103.0,8700667659.346071,352036816.49522066,0.9113748449344573,21.936108467558743
104.0,10072032265.673225,402963982.02234,0.9109491681663731,21.863158953759452
105.0,11652395529.979864,460934579.2080987,0.910488395543522,21.785459606575102
106.0,13472834144.78526,527222309.05803293,0.9099917325802153,21.703142599700822
107.0,15570359431.1947,603445629.3364192,0.9094583442812759,21.61635063260274
108.0,17989516613.11727,691642750.6329079,0.9088873548838244,21.525236364492116
109.0,20784343732.359222,794353329.5006921,0.9082778476109076,21.429961780630453
110.0,24020729913.576733,914706526.1877354,0.9076288644396382,21.330697495566
111.0,27779211822.008858,1056515077.990818,0.9069394058856842,21.22762199888352
112.0,32158241527.983982,1224375045.2852027,0.9062084308039335,21.12092084975108
113.0,37277979184.29819,1423770525.510532,0.9054348562213248,21.01078582742782
114.0,43284607887.56838,1661182897.454283,0.9046175571953697,20.897414044377122
115.0,50355237371.83807,1944204032.9935584,0.9037553666969055,20.78100703328726
116.0,58703401522.36178,2281653645.1787167,0.9028470755000128,20.661769815067565
117.0,68585131414.32652,2683696942.161145,0.9018914321752377,20.539909952907784
118.0,80305723736.92189,3161965532.1390038,0.9008871430599493,20.41563660932655
119.0,94227036061.46727,3729679527.821467,0.8998328722982678,20.289159607574344
120.0,110775442041.05177,4401786729.170498,0.8987272419646198,20.160688511183658
121.0,130450573447.64084,5195178032.614777,0.897568832176915,20.03043172639403
122.0,153835050211.29297,6129047414.322197,0.8963561813399137,19.898595638359506
123.0,181606245684.73465,7225474488.801812,0.8950877864349701,19.765383786999312
124.0,214550932433.86658,8510307044.482568,0.89376210335616,19.630996085548485
125.0,253584289877.27814,10014402637.423702,0.8923775473998661,19.495628096945453
126.0,299775396168.80316,11775309704.398426,0.8909324937863461,19.35947036029321
127.0,354380780215.691,13839443843.514877,0.889425278306566,19.222707780099487
128.0,418888924370.86084,16264802920.324244,0.8878541981099815,19.085519082712846
129.0,495078442237.3698,19124301044.546143,0.886217512553093,18.948076328387288
130.0,585091985733.276,22509717081.256393,0.8845134442403411,18.810544499992602
131.0,691530065934.3065,26536305569.467632,0.8827401801857829,18.673081153643263
132.0,817566712684.2782,31348107421.015717,0.8808958731046416,18.53583613068738
133.0,967089552891.9238,37123875274.61287,0.8789786429266492,18.39895134594505
134.0,1144868683280.5608,44083686888.25262,0.8769865784372369,18.2625606265246
135.0,1356753274386.1035,52496152312.967224,0.8749177391292808,18.126789616106365
136.0,1609899786481.945,62686094606.8227,0.8727701572764758,17.991755740460277
137.0,1913032811074.5554,75042764706.58789,0.8705418401811166,17.857568214241617
138.0,2276733653009.7744,90028350775.52437,0.8682307726906467,17.724328110124702
139.0,2713762869215.924,108187131552.95192,0.8658349199379103,17.59212846719839
140.0,3239411003219.3374,130156266748.10562,0.8633522303251232,17.46105443617325
141.0,3871883398565.516,156679561919.4162,0.8607806387984792,17.331183472845424
142.0,4632739954269.169,188626780556.0936,0.858118070377363,17.20258555204008
143.0,5547399183344.939,227021199938.13275,0.8553624439830875,17.075323414955047
144.0,6645756689296.715,273078390411.21835,0.8525116765649365,16.949452843683954
145.0,7962965714868.459,328260312178.82214,0.8495636875345434,16.82502294535302
146.0,9540428034975.219,394347591985.4023,0.8465164035164996,16.70207646247391
147.0,11427098662557.484,473533568108.6093,0.8433677634204658,16.58065009029838
148.0,13681159475362.42,568543838737.2263,0.8401157238608757,16.46077479975719
149.0,16372155146052.824,682781937741.9677,0.8367582648816051,16.342476174036026
150.0,19583705759995.207,820504272519.4677,0.833293396050563,16.22577473920214
151.0,23416800695846.04,987023992561.9087,0.8297191628875982,16.110686298295608
152.0,27993817042363.355,1188940468488.3157,0.8260336535982098,15.997222264984993
153.0,33463218274502.348,1434395153976.359,0.822235006197061,15.88538998718619
154.0,40004949845375.055,1733345748548.7896,0.8183214159297324,15.775193067787201
155.0,47836473164226.06,2097854485547.0073,0.8142911430138254,15.666631676560305
156.0,57219333029042.75,2542390325015.6895,0.8101425207006251,15.559702851834675
157.0,68466170704098.48,3084154669683.126,0.8058739636503928,15.454400791226162
158.0,81948114913752.17,3743453290242.7925,0.8014839765595171,15.350717131728409
159.0,98102551922141.56,4544158238592.873,0.7969711630507237,15.248641216992649
160.0,117441506730256.52,5514319607545.684,0.7923342348163377,15.148160351361568
161.0,140561125821556.73,6687000419792.371,0.7875720209779209,15.049260040738671
162.0,168152846923367.38,8101416224386.564,0.7826834775841338,14.95192422044746
163.0,201017135832194.94,9804466018754.36,0.7776676972660912,14.856135469073028
164.0,240080830972245.34,11852732518849.266,0.7725239190239355,14.761875208577512
165.0,286419330562941.94,14315003230097.701,0.7672515380559597,14.669123891196254
166.0,341284343902026.9,17275336833675.13,0.7618501155697723,14.57786117316853
167.0,406137987132965.4,20836659449488.14,0.7563193885814913,14.488066075293165
168.0,482693451114365.2,25124823237255.953,0.7506592796604221,14.399717130868853
169.0,572962000781329.8,30292983620525.434,0.7448699064711107,14.31279252158024
170.0,679304522474430.9,36526121434448.86,0.7389515910987579,14.227270201563513
171.0,804485669007759.9,44045526393312.64,0.7329048691329809,14.143128010152319
172.0,951728017385737.1,53113118318745.305,0.72673049844066,14.060343773915394
173.0,1124763115721383.6,64035614795093.17,0.7204294674479819,13.978895398443813
174.0,1327876302061687.5,77168834742049.97,0.7140030029650468,13.89876095041212
175.0,1565944189781168.5,92922661913798.16,0.7074525774980135,13.81991873054162
176.0,1844466522637127.5,111767395811629.94,0.7007799159293439,13.742347337966768
177.0,2169593960907262.2,134242400067753.45,0.6939870014229897,13.66602572644968
178.0,2548157603379506.5,160967975561970.0,0.6870760805830283,13.590933253074905
179.0,2987702796588198.0,192661351696902.16,0.6800496679043095,13.517049720258711
180.0,3496545402614642.0,230156755565350.84,0.6729105490295941,13.44435541066619
181.0,4083836891033764.5,274429978468601.06,0.665661783282828,13.37283111674801
182.0,4759662475841465.0,326625872138587.1,0.6583067050120983,13.30245816438115
183.0,5535144976396797.0,388087540825565.4,0.6508489238104267,13.233218431548114
184.0,6422571632732114.0,460384382400141.2,0.6432923237338316,13.165094362631777
185.0,7435502889997682.0,545336062397137.8,0.6356410610083595,13.098068977982653
186.0,8588865197104182.0,645029949677337.2,0.6278995608842215,13.032125880493288
187.0,9898985863711700.0,761829758988589.9,0.6200725127347204,12.967249257781772
188.0,1.1383563038750062e+16,898376210895065.5,0.6121648643436522,12.9034238824158
189.0,1.3061544596749936e+16,1057581172736478.2,0.6041818144016292,12.84063510838049
190.0,1.4952946525017194e+16,1242619544631781.2,0.5961288039128666,12.778868865659616
191.0,1.7078542084500468e+16,1456926387477868.0,0.5880115063568031,12.718111652985893
192.0,1.945955684045901e+16,1704201972263097.2,0.579835816256121,12.658350528008329
193.0,2.211730985587315e+16,1988431819865942.0,0.5716078366665853,12.599573096407672
194.0,2.5072872195489064e+16,2313922077295039.5,0.5633338653643973,12.541767499517935
195.0,2.8346798831985268e+16,2685346293967532.5,0.5550203797866282,12.484922400693709
196.0,3.1958880621153012e+16,3107798131881698.5,0.5466740209254761,12.429026970959749
197.0,3.592797524068599e+16,3586835400232866.5,0.5383015760924232,12.374070873722475
198.0,4.027189384133725e+16,4128499853965081.0,0.5299099606808361,12.320044248841343
199.0,4.500727054770509e+16,4739298397538806.0,0.5215061990743821,12.266937696334551
200.0,5.014933015860885e+16,5426135942474290.0,0.5130974048266727,12.214742259872013
201.0,5.571160499314242e+16,6196192916463671.0,0.5046907600720705,12.163449409636524
202.0,6.170540108129505e+16,7056760076268326.0,0.496293494593477,12.113051026124769
203.0,6.8139377692351384e+16,8015034461669144.0,0.4879128640260052,12.063539382551284
204.0,7.501851007166829e+16,9077930627247146.0,0.4795561285131494,12.014907127915352
205.0,8.23435813272286e+16,1.025188652120374e+16,0.4712305302987262,11.967147271734277
206.0,9.01100361210697e+16,1.1542746642059496e+16,0.4629432724692689,11.920253165802427
207.0,9.830754104048181e+16,1.2955669677286546e+16,0.45470149699656365,11.87421848029892
208.0,1.0692292748360637e+17,1.448887604132772e+16,0.44645615409620626,11.831202880648911
209.0,1.159267787679299e+17,1.6139257429026106e+16,0.43817069659604446,11.792798260330812
210.0,1.2527636127462435e+17,1.7907619486580608e+16,0.42985856255333266,11.75864621582856
211.0,1.3492323689312803e+17,1.979312788094767e+16,0.42152663570972004,11.728654834294849
212.0,1.448134390949202e+17,2.179391992187744e+16,0.4131820021557783,11.702733948432313
213.0,1.5488789643406797e+17,2.3907007580721364e+16,0.40483193058384853,11.680795064514719
214.0,1.6508344950723757e+17,2.6128098736291212e+16,0.39648384901281886,11.662751288814968
215.0,1.7533382019630925e+17,2.845138846755221e+16,0.38814532012788494,11.648517261136337
216.0,1.8557044548349626e+17,3.0869359950807664e+16,0.3798240151642243,11.638009092354983
217.0,1.9572333635922198e+17,3.3372635001636864e+16,0.3715276859256344,11.631144306497088
218.0,2.0572153535612787e+17,3.594993012120401e+16,0.363264136511449,11.627841786391313
219.0,2.154912981235375e+17,3.859103600042085e+16,0.35505296882497195,11.627594965630195
220.0,2.2495516375126838e+17,4.129898181593585e+16,0.3469775566940308,11.627590399530105
221.0,2.3406145980132035e+17,4.405736509303216e+16,0.3390501786615093,11.627590399530105
222.0,2.427572177313861e+17,4.684748061784297e+16,0.33127630793871937,11.627590399530105
223.0,2.509888715381035e+17,4.964987712227811e+16,0.32366090019409527,11.627590399530105
224.0,2.5870389845718557e+17,5.24447592036868e+16,0.31620851395792005,11.627590399530105
225.0,2.6585242038645456e+17,5.521231570257747e+16,0.3089233075336278,11.627590399530105
226.0,2.7238871410095725e+17,5.793298087395997e+16,0.3018090390254184,11.627590399530105
227.0,2.782726501345076e+17,6.058762284159213e+16,0.29486908135394835,11.627589926984385
228.0,2.884089953044214e+17,5.63108226189429e+16,0.26877921185550824,12.36146021176235
229.0,2.936762477998878e+17,5.014769030420816e+16,0.2385103135426832,13.361460095483276
230.0,2.928163863006876e+17,4.462541538364677e+16,0.211248623295654,14.361459979204245
231.0,2.8719769229948944e+17,3.9681968875313016e+16,0.1867526908437224,15.361459862925207
232.0,2.7797184557362205e+17,3.5260727999635028e+16,0.16479278140583922,16.361459746646126
233.0,2.661005318067744e+17,3.1310090416066016e+16,0.1451513702756429,17.361459630367026
234.0,2.5238024038323018e+17,2.7783077676642276e+16,0.12762332459424128,18.36145951408794
235.0,2.3746396488323536e+17,2.4636990833562936e+16,0.11201609494577638,19.36145939780886
236.0,2.2188107533141194e+17,2.183306762023411e+16,0.09814967561467304,20.361459281529797
237.0,2.060550000233567e+17,1.933616312412624e+16,0.08585645879843548,21.3614591652507
238.0,1.9031874727718208e+17,1.711446890155724e+16,0.07498109830298204,22.361459048971607
239.0,1.7492911615311123e+17,1.513921239484452e+16,0.0653800437328282,23.361458932692514
240.0,1.6007880537198e+17,1.3384409252192978e+16,0.05692120752334448,24.36145881641342
241.0,1.459071604590472e+17,1.1826623068427016e+16,0.04948350529781314,25.36145870013432
242.0,1.3250953631650586e+17,1.0444744149041622e+16,0.04295635854075203,26.361458583855228
243.0,1.1994545534003994e+17,9219775094939452.0,0.03723909738193546,27.361458467576135
