Time,J,A,S,tau
0.0,100.0,10.0,0.8390213972957805,2.272727272727273
1.0,100.99516733459947,42.01129287060286,0.7427067433469944,2.272727272727273
2.0,156.98729659338986,63.05808094244339,0.6574590504158674,2.272727272727273
3.0,235.6749361102451,77.40562211581866,0.6360210038949616,2.272727272727273
4.0,323.8189199269093,118.51916942448534,0.6360992363865782,2.272727272727273
5.0,470.9435131392215,172.50794330507654,0.6362159400007812,2.272727272727273
6.0,681.3739167800032,240.20839775713017,0.6363710553418473,2.272727272727273
7.0,970.2446094115408,348.6393517836836,0.6365645039791291,2.272727272727273
8.0,1398.1549122293468,501.7735672054248,0.6367961884982999,2.272727272727273
9.0,2014.1579193081836,716.4625432490615,0.6370659925649075,2.272727272727273
10.0,2894.578525082832,1032.048055013034,0.6373737810016005,2.272727272727273
11.0,4173.362399562947,1485.2904222847674,0.637719399876492,2.272727272727273
12.0,6022.705816309477,2135.8655411147897,0.6381026766041561,2.272727272727273
13.0,8696.3386237808,3079.487249951115,0.6385234200600638,2.272727272727273
14.0,12578.76822602066,4443.556732840918,0.6389814207064707,2.272727272727273
15.0,18219.457228779767,6417.402836830229,0.63947645073172,2.272727272727273
16.0,26425.563129679213,9283.139746424065,0.6400082642014233,2.272727272727273
17.0,38391.812528098024,13446.652213693847,0.6405765972228712,2.272727272727273
18.0,55869.782786215015,19505.29030390388,0.6411811681215038,2.272727272727273
19.0,81445.91210298381,28340.441995288747,0.6418216776304876,2.272727272727273
20.0,118951.83531584949,41246.15334386128,0.6424978090925139,2.272727272727273
21.0,174065.3877368956,60133.94950795961,0.6432092286745531,2.272727272727273
22.0,255227.27662061623,87834.44790012157,0.6439555855949642,2.272727272727273
23.0,375020.8173564718,128543.31310060901,0.6447365123633785,2.272727272727273
24.0,552243.0708763968,188499.380218118,0.645551625033027,2.272727272727273
25.0,815054.5606869748,277002.9325396452,0.646400523465622,2.272727272727273
26.0,1205753.6251299286,407950.03417550673,0.6472827916087129,2.272727272727273
27.0,1788049.6018100912,602160.5175394744,0.6481979977853297,2.272727272727273
28.0,2658161.8432373484,890912.1560515544,0.6491456949960638,2.272727272727273
29.0,3961838.696033911,1321319.4260162346,0.6501254212331118,2.272727272727273
30.0,5920467.474179931,1964553.2628920972,0.651136699806644,2.272727272727273
31.0,8871356.251295965,2928429.8494997113,0.6521790396827448,2.272727272727273
32.0,13329926.080959808,4376753.44006284,0.653251935833471,2.272727272727273
33.0,20086235.51282581,6559126.070156883,0.6543548695980326,2.272727272727273
34.0,30354963.12173534,9857033.714744976,0.6554873090557751,2.272727272727273
35.0,46009654.13809908,14855309.91631891,0.6566487094097616,2.272727272727273
36.0,69949068.20577595,22453315.52918246,0.6578385133817362,2.272727272727273
37.0,106673028.5459061,34038449.92851475,0.65905615161708,2.272727272727273
38.0,163189024.0892742,51757820.504324935,0.6603010431006182,2.272727272727273
39.0,250446593.96406314,78945005.73801135,0.6615725955817314,2.272727272727273
40.0,385610920.2477222,120792630.06777234,0.6628702060096643,2.272727272727273
41.0,595683987.3163795,185415973.11135772,0.6641932609773732,2.272727272727273
42.0,923283950.2241069,285540415.6051912,0.6655411371747967,2.272727272727273
43.0,1435912285.0016065,441188132.0945008,0.6669132018498141,2.272727272727273
44.0,2240847629.6821394,683969579.7913077,0.6683088132777368,2.272727272727273
45.0,3509181838.6801596,1063964129.0171824,0.6697273212375316,2.272727272727273
46.0,5514765454.599466,1660784203.2602417,0.6711680674956209,2.272727272727273
47.0,8697449583.492674,2601439013.4405265,0.6726303862955205,2.272727272727273
48.0,13766255586.044285,4089268903.346117,0.6741136048534928,2.272727272727273
49.0,21868188469.78033,6450978244.320185,0.675617043859425,2.272727272727273
50.0,34865489841.111824,10213361039.515078,0.6771400179824223,2.272727272727273
51.0,55792691139.59267,16228907173.041206,0.6786818363803323,2.272727272727273
52.0,89612514086.66916,25882177848.28686,0.6802418032127109,2.272727272727273
53.0,144470717608.5472,41430074132.041306,0.6818192181566208,2.272727272727273
54.0,233787042148.86203,66564893614.702126,0.6834133769244574,2.272727272727273
55.0,379750955886.77545,107349477398.00987,0.6850235717832182,2.272727272727273
56.0,619187530715.5986,173775784854.2279,0.6866490920745822,2.272727272727273
57.0,1013437572037.1371,282371930034.84576,0.688289224734995,2.272727272727273
58.0,1665056034496.6458,460579151030.50287,0.6899432548151149,2.272727272727273
59.0,2746135082614.2554,754126254531.8136,0.6916104659979541,2.272727272727273
60.0,4546525853290.405,1239499171394.6892,0.6932901411149269,2.272727272727273
61.0,7556226679106.277,2045103972076.9407,0.6949815626591455,2.272727272727273
62.0,12606633034226.684,3387311711720.2544,0.6966840132952543,2.272727272727273
63.0,21113585770737.23,5632071875632.9375,0.6983967763650635,2.272727272727273
64.0,35497197826852.22,9400610301549.75,0.7001191363883061,2.272727272727273
65.0,59909339520815.24,15751402208638.416,0.7018503795577928,2.272727272727273
66.0,101498847109279.64,26494615865534.977,0.7035897942283496,2.272727272727273
67.0,172619801361034.38,44737328756191.336,0.7053366713987662,2.272727272727273
68.0,294699154561901.44,75832320616604.42,0.70709030518614,2.272727272727273
69.0,505034585635746.94,129034982036281.81,0.7088499932919623,2.272727272727273
70.0,868783838356635.6,220407050937306.34,0.7106150374593312,2.272727272727273
71.0,1500182470476452.5,377923269526986.94,0.7123847439206339,2.272727272727273
72.0,2600223334723244.5,650483417081617.1,0.7141584238351237,2.272727272727273
73.0,4523798628717483.0,1123871468747721.1,0.7159353937158309,2.272727272727273
74.0,7899744326256777.0,1949115244700949.2,0.7177149758452688,2.272727272727273
75.0,1.3846183176972276e+16,3393053290956564.5,0.71949649867936,2.272727272727273
76.0,2.4358113618190644e+16,5928803933921851.0,0.7212792972391145,2.272727272727273
77.0,4.300733092851709e+16,1.0398167998001536e+16,0.723062713489598,2.272727272727273
78.0,7.621047187759643e+16,1.8304140160193812e+16,0.7248460967057695,2.272727272727273
79.0,1.3553368954655246e+17,3.233949881997808e+16,0.7266288038246983,2.272727272727273
80.0,2.4189488681848365e+17,5.734513303109479e+16,0.7284101997838349,2.272727272727273
81.0,4.3325026246500314e+17,1.0205311183932464e+17,0.7301896578449897,2.272727272727273
82.0,7.786979320339012e+17,1.8226734114849792e+17,0.7319665599037176,2.272727272727273
83.0,1.4044352395859105e+18,3.266857793005583e+17,0.7337402967837463,2.272727272727273
84.0,2.541675546165689e+18,5.875916245074217e+17,0.7355102685162666,2.272727272727273
85.0,4.615389920137925e+18,1.0605455316053156e+18,0.7372758846038421,2.272727272727273
86.0,8.409098910863446e+18,1.920769034590757e+18,0.7390365642687458,2.272727272727273
87.0,1.5371828677753141e+19,3.490571129213203e+18,0.7407917366856626,2.272727272727273
88.0,2.8191500962622677e+19,6.364672589938852e+18,0.7425408411984902,2.272727272727273
89.0,5.186907455818246e+19,1.1643832566297377e+19,0.7442833275212295,2.272727272727273
90.0,9.573645927010386e+19,2.1371637519311913e+19,0.7460186559229833,2.272727272727273
91.0,1.7725766452059587e+20,3.9353449652051894e+19,0.7477462973969453,2.272727272727273
92.0,3.292086319476721e+20,7.269617732116097e+19,0.7494657338134086,2.272727272727273
93.0,6.132754871366304e+20,1.3471137695593423e+20,0.7511764580569331,2.272727272727273
94.0,1.1458750860131774e+21,2.5040371914652788e+20,0.7528779741476669,2.272727272727273
95.0,2.1473103893447382e+21,4.66874766753685e+20,0.7545697973469114,2.272727272727273
96.0,4.0355883554076843e+21,8.730961910774053e+20,0.7562514542471783,2.272727272727273
97.0,7.605916003033411e+21,1.6375877863607254e+21,0.7579224828468399,2.272727272727273
98.0,1.4374955641765078e+22,3.080393346994155e+21,0.7595824326095119,2.272727272727273
99.0,2.7242664441649012e+22,5.810918426056823e+21,0.7612308645085202,2.272727272727273
100.0,5.1767616065473075e+22,1.0992544510536862e+22,0.7628673510566426,2.272727272727273
101.0,9.863005793857309e+22,2.0851821765655347e+22,0.7644914763213235,2.272727272727273
102.0,1.8839963749604664e+23,3.9660596178169515e+22,0.7661028359257782,2.272727272727273
103.0,3.607841472541603e+23,7.563469917062339e+22,0.7677010370362816,2.272727272727273
104.0,6.926088182616847e+23,1.4461269304768208e+23,0.7692856983358665,2.272727272727273
105.0,1.3328413477619308e+24,2.7719910352442467e+23,0.7708564499849214,2.272727272727273
106.0,2.570960851560324e+24,5.326647802078269e+23,0.7724129335690498,2.272727272727273
107.0,4.970675305543091e+24,1.0260520635812376e+24,0.7739548020344621,2.272727272727273
108.0,9.631960906607134e+24,1.981136216125725e+24,0.7754817196114213,2.272727272727273
109.0,1.870553172722186e+25,3.8341156600312726e+24,0.7769933617261735,2.272727272727273
110.0,3.640472790550708e+25,7.437009957755557e+24,0.7784894149016671,2.272727272727273
111.0,7.099934644268172e+25,1.445739207986137e+25,0.7799695766476001,2.272727272727273
112.0,1.3875113054110235e+26,2.8165427379739236e+25,0.7814335553402761,2.272727272727273
113.0,2.7169452131683053e+26,5.498622721500297e+25,0.7828810700926033,2.272727272727273
114.0,5.330452057770567e+26,1.075669747306018e+26,0.784311850614775,2.272727272727273
115.0,1.0477631378807667e+27,2.1084724080403534e+26,0.7857256370661471,2.272727272727273
116.0,2.0632651766135656e+27,4.140926035421572e+26,0.7871221798986752,2.272727272727273
117.0,4.07021047904492e+27,8.147871546319391e+26,0.7885012396924247,2.272727272727273
118.0,8.043139765650519e+27,1.6061460368556255e+27,0.7898625869837219,2.272727272727273
119.0,1.592060597926423e+28,3.1717342454195014e+27,0.7912060020862213,2.272727272727273
120.0,3.1564324049308244e+28,6.274174491104224e+27,0.7925312749055781,2.272727272727273
121.0,6.267785575182592e+28,1.243202540353059e+28,0.7938382047480731,2.272727272727273
122.0,1.2464959563231433e+29,2.4673463650421263e+28,0.7951266001236583,2.272727272727273
123.0,2.4825901279536994e+29,4.904549083716446e+28,0.7963962785439361,2.272727272727273
124.0,4.951486154197824e+29,9.763979210465306e+28,0.797647066315507,2.272727272727273
125.0,9.889205667210453e+29,1.946666677925919e+29,0.7988787983291147,2.272727272727273
126.0,1.9777076880809794e+30,3.886619209078492e+29,0.8000913178451027,2.272727272727273
127.0,3.960201113927299e+30,7.770460644063993e+29,0.8012844762755149,2.272727272727273
128.0,7.93975236781088e+30,1.55559016790599e+30,0.8024581329634016,2.272727272727273
129.0,1.5937185243642792e+31,3.118147141331622e+30,0.8036121549596067,2.272727272727273
130.0,3.2026682283976863e+31,6.257933268016818e+30,0.8047464167975965,2.272727272727273
131.0,6.443015044863552e+31,1.2574137386641813e+31,0.8058608002665921,2.272727272727273
132.0,1.297551393367176e+32,2.529408553836915e+31,0.8069551941835147,2.272727272727273
133.0,2.615774198642276e+32,5.09370864554985e+31,0.8080294941640392,2.272727272727273
134.0,5.2783511222600704e+32,1.0268447135441355e+32,0.8090836023931738,2.272727272727273
135.0,1.066108724876007e+33,2.0721092758270156e+32,0.8101174273957134,2.272727272727273
136.0,2.1552258770050334e+33,4.185425994580969e+32,0.8111308838068889,2.272727272727273
137.0,4.360695917674514e+33,8.461908346714146e+32,0.8121238921436029,2.272727272727273
138.0,8.830276380443117e+33,1.7123055796306006e+33,0.8130963785764921,2.272727272727273
139.0,1.7895039337426197e+34,3.4678626036677847e+33,0.8140482747032276,2.272727272727273
140.0,3.629239243614798e+34,7.029001528688444e+33,0.8149795173232461,2.272727272727273
141.0,7.365601889380395e+34,1.425806858637226e+34,0.8158900482142976,2.272727272727273
142.0,1.4958782743771073e+35,2.8943259730409214e+34,0.816779813910997,2.272727272727273
143.0,3.0399435636914477e+35,5.8794785861677725e+34,0.8176487654857129,2.272727272727273
144.0,6.181624789332161e+35,1.1951436585902732e+35,0.818496858331993,2.272727272727273
145.0,1.2577499122329713e+36,2.4309558020981166e+35,0.8193240519507914,2.272727272727273
146.0,2.560518813919143e+36,4.947615051618037e+35,0.8201303097397206,2.272727272727273
147.0,5.2154429376556897e+36,1.0075419531584168e+36,0.8209155987855283,2.272727272727273
148.0,1.0628507326016774e+37,2.0528911749466135e+36,0.8216798896600345,2.272727272727273
149.0,2.167003664619122e+37,4.1849626548056596e+36,0.8224231562196753,2.272727272727273
150.0,4.420204335592856e+37,8.535483850668716e+36,0.8231453754088937,2.272727272727273
151.0,9.020066665127808e+37,1.7416615749247554e+37,0.8238465270674856,2.272727272727273
152.0,1.8414146561288043e+38,3.555390444185984e+37,0.8245265937421222,2.272727272727273
153.0,3.7606088661580906e+38,7.260855370960956e+37,0.8251855605021531,2.272727272727273
154.0,7.682806657093442e+38,1.4833881959663297e+38,0.8258234147598624,2.272727272727273
155.0,1.5701022565484365e+39,3.0316449364141708e+38,0.8264401460952971,2.272727272727273
156.0,3.209766359593787e+39,6.197958264015424e+38,0.8270357460857911,2.272727272727273
157.0,6.563692923833592e+39,1.2675250638183097e+39,0.8276102081403119,2.272727272727273
158.0,1.342592833728125e+40,2.5929435944169378e+39,0.8281635273387165,2.272727272727273
159.0,2.746971824194417e+40,5.3057869321111216e+39,0.8286957002760423,2.272727272727273
160.0,5.621737263730712e+40,1.0859716076103998e+40,0.8292067249118988,2.272727272727273
161.0,1.1507645948680104e+41,2.2232659670278544e+40,0.8296966004250664,2.272727272727273
162.0,2.3561093812761396e+41,4.552616550468083e+40,0.8301653270733643,2.272727272727273
163.0,4.8249307184825034e+41,9.324389995456798e+40,0.830612906058872,2.272727272727273
164.0,9.88251530903532e+41,1.910128687694541e+41,0.8310393393985603,2.272727272727273
165.0,2.0245049635609547e+42,3.913643235525887e+41,0.8314446298003986,2.272727272727273
166.0,4.148010628994669e+42,8.019920785366505e+41,0.8318287805449907,2.272727272727273
167.0,8.500122222903559e+42,1.643702595706262e+42,0.8321917953727881,2.272727272727273
168.0,1.7420877467437176e+43,3.3692652010838003e+42,0.832533678376929,2.272727272727273
169.0,3.570832987201438e+43,6.90717552416708e+42,0.8328544339017413,2.272727272727273
170.0,7.320139494220355e+43,1.416166039173577e+43,0.8331540664469469,2.272727272727273
171.0,1.5007732678748688e+44,2.903830379670597e+43,0.8334325805776024,2.272727272727273
172.0,3.0771782815872532e+44,5.954800493054363e+43,0.833689980839803,2.272727272727273
173.0,6.309982259285892e+44,1.2212302029604552e+44,0.8339262716821799,2.272727272727273
174.0,1.2940101353772871e+45,2.5047136476518177e+44,0.8341414573832097,2.272727272727273
175.0,2.653858293789452e+45,5.1374159775608585e+44,0.8343355419843624,2.272727272727273
176.0,5.4430787870325325e+45,1.0537889215204843e+45,0.8345085292291009,2.272727272727273
177.0,1.1164392589679618e+46,2.1616284202430777e+45,0.8346604225077543,2.272727272727273
178.0,2.29005359078409e+46,4.434282016312394e+45,0.834791224808273,2.272727272727273
179.0,4.697569205114184e+46,9.096556670726853e+45,0.8349009386728817,2.272727272727273
180.0,9.636389571200822e+46,1.866116206793891e+46,0.8349895661606409,2.272727272727273
181.0,1.976815368597079e+47,3.8282924322668623e+46,0.83505710881592,2.272727272727273
182.0,4.0553210207634934e+47,7.853674476668621e+46,0.8351035676428016,2.272727272727273
183.0,8.319335630894931e+47,1.611161253215768e+47,0.8351289430854064,2.272727272727273
184.0,1.7066843470761053e+48,3.3052183642145895e+47,0.8351332350141604,2.272727272727273
185.0,3.501190044889953e+48,6.7803684425743e+47,0.8351164427179923,2.272727272727273
186.0,7.182456229237476e+48,1.3908977855242402e+48,0.8350785649024771,2.272727272727273
187.0,1.473403498999594e+49,2.85313803962296e+48,0.8350195996939148,2.272727272727273
188.0,3.0224466516573903e+49,5.85238417753805e+48,0.8349395446493533,2.272727272727273
189.0,6.199836039074493e+49,1.2003891019949526e+49,0.834838396772549,2.272727272727273
190.0,1.2716951649879967e+50,2.461995315295596e+49,0.8347161525358651,2.272727272727273
191.0,2.6083343336820514e+50,5.049226433692461e+49,0.8345728079081008,2.272727272727273
192.0,5.349549847138779e+50,1.0354558205752564e+50,0.834408358388249,2.272727272727273
193.0,1.0970866245068522e+51,2.123262307864038e+50,0.8342227990451766,2.272727272727273
194.0,2.2497289204211295e+51,4.353489317681074e+50,0.8340161245632133,2.272727272727273
195.0,4.612971364570139e+51,8.925428458366543e+50,0.8337883292936494,2.272727272727273
196.0,9.457754122639583e+51,1.829677159510034e+51,0.8335394073121182,2.272727272727273
197.0,1.9388640391678215e+52,3.7503291997629314e+51,0.833269352481862,2.272727272727273
198.0,3.9742358687866714e+52,7.686160441245236e+51,0.8329781585228548,2.272727272727273
199.0,8.145201520984396e+52,1.575034382501568e+52,0.8326658190867741,2.272727272727273
200.0,1.669115059225888e+53,3.227054195345649e+52,0.8323323278377895,2.272727272727273
201.0,3.4198054556145546e+53,6.610786477722857e+52,0.8319776785391573,2.272727272727273
202.0,7.005530405044873e+53,1.354020353234576e+53,0.831601865145582,2.272727272727273
203.0,1.4348249778598442e+54,2.7727901212466264e+53,0.831204881901327,2.272727272727273
204.0,2.938112486434147e+54,5.6770475238068075e+53,0.8307867234440285,2.272727272727273
205.0,6.0150957404315986e+54,1.162079295234915e+54,0.8303473849141882,2.272727272727273
206.0,1.2311587579817325e+55,2.3782095859795137e+54,0.8298868620702932,2.272727272727273
207.0,2.5192730247755743e+55,4.865852279466901e+54,0.8294051514095205,2.272727272727273
208.0,5.153689222412112e+55,9.95302292529505e+54,0.8289022502939803,2.272727272727273
209.0,1.0539852005221484e+56,2.035311767070829e+55,0.8283781570824321,2.272727272727273
210.0,2.15484264987145e+56,4.160820603779321e+55,0.8278328712674243,2.272727272727273
211.0,4.404048420152082e+56,8.503367179179024e+55,0.8272663936177767,2.272727272727273
212.0,8.997767561925146e+56,1.7372341924660332e+56,0.8266787263263491,2.272727272727273
213.0,1.8376110297591174e+57,3.5479074861494923e+56,0.8260698731629964,2.272727272727273
214.0,3.7514430542120274e+57,7.243084772776835e+56,0.8254398396326471,2.272727272727273
215.0,7.655231690180244e+57,1.4780952331900238e+57,0.8247886331383821,2.272727272727273
216.0,1.561429632027897e+58,3.0150804839044943e+57,0.8241162631494464,2.272727272727273
217.0,3.1833114215790586e+58,6.147555939955922e+57,0.8234227413740496,2.272727272727273
218.0,6.486589516875944e+58,1.2528594783690786e+58,0.8227080819368671,2.272727272727273
219.0,1.321058519256658e+59,2.552038476475672e+58,0.821972301561092,2.272727272727273
220.0,2.688952134073101e+59,5.195715360074199e+58,0.8212154197549181,2.272727272727273
221.0,5.469988577201722e+59,1.0572183340257659e+59,0.8204374590023037,2.272727272727273
222.0,1.1120344635702327e+60,2.149970974044805e+59,0.8196384449578498,2.272727272727273
223.0,2.2592517447002996e+60,4.369545025927395e+59,0.8188184066456581,2.272727272727273
224.0,4.5868115565044916e+60,8.874870333009689e+59,0.8179773766619476,2.272727272727273
225.0,9.30555292290389e+60,1.8013425008150592e+60,0.8171153913813008,2.272727272727273
226.0,1.8864402972721534e+61,3.653630762475563e+60,0.816232491166276,2.272727272727273
227.0,3.8211817569385074e+61,7.405127143514327e+60,0.8153287205802509,2.272727272727273
228.0,7.733746111539902e+61,1.4997009615228037e+61,0.8144041286032044,2.272727272727273
229.0,1.5638781862336389e+62,3.0347688436904274e+61,0.8134587688502705,2.272727272727273
230.0,3.159510524702719e+62,6.135915343378823e+61,0.8124926997927715,2.272727272727273
231.0,6.377095052583917e+62,1.2395084393990768e+62,0.8115059849815021,2.272727272727273
232.0,1.2858623089027248e+63,2.5016079050572077e+62,0.8104986932719983,2.272727272727273
233.0,2.5900971655548952e+63,5.043956243282072e+62,0.8094708990514825,2.272727272727273
234.0,5.2115766710724895e+63,1.0159870625539065e+63,0.8084226824672476,2.272727272727273
235.0,1.0474529173625496e+64,2.0443332247180655e+63,0.8073541296560988,2.272727272727273
