Time,J,A,S,tau
0.0,100.0,10.0,0.6668178040475845,5.028880912410284
1.0,156.0016069903731,31.397465632461245,0.6756304658879633,5.128000014595757
2.0,292.10469672867345,51.48220298781152,0.6847158736024106,5.22917436144826
3.0,498.9301640122543,70.36593179588468,0.694074275680218,5.33232132957312
4.0,768.1055561161593,88.15107862791062,0.7037070542229051,5.437371514168966
5.0,1092.158839029748,104.93186420004659,0.7136156229040075,5.544255315262891
6.0,1461.84283114966,127.51413592576927,0.7201658525654875,5.614926510060152
7.0,1944.429773446804,200.63450777837784,0.721094821417585,5.6265102526473525
8.0,2748.781514538546,325.7780324543421,0.7219886735384423,5.637708509484287
9.0,4058.0946671477964,496.1567365154078,0.7228473624314735,5.648515048451642
10.0,6019.952851818507,705.726655720931,0.7236708444446851,5.658923808760736
11.0,8751.16544744984,949.1125766309998,0.7244590785185411,5.6689289073985645
12.0,12339.14855971843,1236.4331992254572,0.7252120259415479,5.678524645475302
13.0,17002.351865119297,1684.77899043275,0.7259296501203975,5.687705514439801
14.0,23487.66160987435,2435.0359456844835,0.7266119163546445,5.6964662021929495
15.0,33037.07575709176,3599.7337185769,0.7272587916241855,5.704801599052482
16.0,47252.95321946344,5266.842250761585,0.7278702443870733,5.7127068035678885
17.0,67985.30635615159,7503.216237872986,0.7284462443876616,5.720177128178412
18.0,97234.82894034628,10386.384011406273,0.7289867624755961,5.727208104692831
19.0,137372.01079969388,14248.891765829048,0.7294917704355901,5.733795489595606
20.0,192408.49332544266,19811.267559548523,0.7299612408291535,5.739935269142277
21.0,269389.35439113894,28089.678740862855,0.7303951468465999,5.745623664263102
22.0,379323.45147806813,40304.75021075196,0.7307934621710233,5.750857135246716
23.0,537716.347603143,57805.92080187306,0.7311561608537664,5.755632386189842
24.0,764781.390079032,82059.94778727324,0.7314832172016563,5.759946369212458
25.0,1085931.96057413,115169.0220933409,0.7317746056760966,5.763796288429804
26.0,1535150.2742116798,160922.09487772392,0.7320303008037924,5.767179603661525
27.0,2162319.4863045486,225625.71612570225,0.7322502770999445,5.770094033874976
28.0,3043143.7935670307,318607.0032315188,0.7324345090033472,5.772537560355872
29.0,4290266.419228234,452452.63040328765,0.732582970823718,5.774508429594787
30.0,6064507.095892589,643125.0049718574,0.7326956367013434,5.776005155883245
31.0,8586323.916793106,911063.7508808279,0.7327724805790757,5.777026523612245
32.0,12153643.149321087,1285025.214711715,0.7328134761867491,5.7775715892670885
33.0,17177105.85299977,1808387.091639243,0.7328185970380658,5.777639683112691
34.0,24240480.207525536,2546792.682056653,0.732787816439996,5.777230410564355
35.0,34189166.48864899,3596211.2433793037,0.7327211075147222,5.776343653239666
36.0,48246042.98881465,5090861.406814242,0.7326184432341586,5.774979569687861
37.0,68152839.74961141,7212764.199226676,0.7324797964670581,5.773138595793779
38.0,96347780.51150438,10209771.629274158,0.732305140038718,5.7708214448542074
39.0,136219998.30944085,14429520.378543543,0.7320944468032814,5.7680291073252405
40.0,192505380.99283525,20373213.22125303,0.7318476897286251,5.76476285023997
41.0,271896554.30954206,28769860.459478267,0.7315648419938131,5.761024216296659
42.0,383934934.900079,40669498.0389505,0.731245877099085,5.756815022618252
43.0,542242107.8385357,57556895.84088564,0.7308907689883369,5.752137359185012
44.0,766162373.1554108,81504018.05968341,0.7304994921840552,5.746993586942403
45.0,1082980864.7615864,115401776.69181289,0.7300720219346205,5.741386335587568
46.0,1531049679.134342,163323792.20685667,0.7296083343739226,5.735318501038354
47.0,2164347099.059474,231075448.74123454,0.7291084066931913,5.728793242589485
48.0,3059166937.03087,326974366.7185681,0.7285722173249513,5.721813979761196
49.0,4323762326.061075,462906013.1520103,0.7279997461389827,5.714384388846397
50.0,6111902852.398809,655737188.3284577,0.7273909746501661,5.706508399163028
51.0,8641649901.932804,929274703.6888745,0.7267458862380667,5.698190189018972
52.0,12221443530.152424,1317100015.103666,0.726064466378106,5.689434181397451
53.0,17286903672.885788,1866752343.3954449,0.7253467028841496,5.680245039371451
54.0,24453497548.271946,2645844926.3721504,0.7245925861623232,5.6706276612562405
55.0,34592243476.00457,3750788515.2722254,0.7238021094758538,5.660587175509582
56.0,48937854983.15929,5318970651.445122,0.7229752692207132,5.650128935389721
57.0,69241673592.56233,7545690886.889156,0.7221120652118259,5.6392585133817255
58.0,97986591400.73457,10708002578.35412,0.7212125009795906,5.627981695402924
59.0,138689340733.44693,15198844289.75189,0.720276584076419,5.61630447479884
60.0,196328166435.3358,21576339815.827187,0.7193043263930083,5.604233046141337
61.0,277951460901.68463,30634799888.03291,0.7182957444840243,5.591773798840818
62.0,393545605138.3271,43505969255.38925,0.7172508599028545,5.57893331058468
63.0,557269438429.2263,61802199657.55348,0.716169699545068,5.565718340614395
64.0,789203219793.7128,87818626153.03,0.7150522960001962,5.552135822853826
65.0,1117820363581.4575,124820100746.01819,0.7138986879114242,5.538192858901467
66.0,1583482040480.2126,177451149127.51135,0.7127089203427598,5.5238967108994474
67.0,2243389731680.0684,252323705771.18655,0.7114830451532203,5.509254794292172
68.0,3178619953935.881,358858538267.8387,0.7102211213775521,5.494274670487541
69.0,4504122359106.754,510485063966.3548,0.7089232156129774,5.4789640394336505
70.0,6382913469434.457,726346935814.2207,0.7075894024114255,5.4633307321238895
71.0,9046193148083.805,1033726182935.3827,0.7062197646766935,5.447382703043258
72.0,12821829056767.035,1471496419130.1155,0.7048143940659438,5.431128022568542
73.0,18174698795272.22,2095054754253.7634,0.7033733913949127,5.414574869335024
74.0,25763879032391.598,2983372706961.708,0.701896867046197,5.397731522582185
75.0,36523774249960.87,4249067532362.1963,0.700384941379945,5.380606354490631
76.0,51779200006207.0,6052763686637.505,0.6988377451462515,5.363207822522305
77.0,73408517585074.19,8623550225096.51,0.6972554198985319,5.34554446177581
78.0,104074698347389.52,12288126798986.113,0.6956381184071238,5.327624877368405
79.0,147552464751056.44,17512368672111.666,0.6939860050723357,5.309457736855985
80.0,209191467753546.16,24960650592482.348,0.6922992563361391,5.291051762702037
81.0,296572186777234.1,35580519258070.7,0.6905780610916744,5.272415724806262
82.0,420434718159369.56,50723464697530.914,0.6888226210897159,5.253558433103237
83.0,595993498529422.0,72317044349117.48,0.687033151341218,5.2344887302411225
84.0,844797232946372.1,103110096515270.58,0.6852098805150442,5.215215484350067
85.0,1197358650996068.8,147022101584521.03,0.6833530513299623,5.195747581909613
86.0,1696871375985609.5,209641025422483.47,0.6814629209399529,5.176093920723981
87.0,2404461836503388.5,298932738455349.8,0.6795397613118783,5.156263403013766
88.0,3406608155805040.5,426251532909939.3,0.6775838595945433,5.136264928632129
89.0,4825615585459280.0,607778684895510.5,0.6755955184781524,5.116107388413201
90.0,6834399169578738.0,866569276892273.4,0.6735750565431678,5.095799657659945
91.0,9677331361924636.0,1235463438358431.5,0.6715228085975522,5.075350589778355
92.0,1.369962511639953e+16,1761226056087901.5,0.6694391260013811,5.054769010064396
93.0,1.9388724021639556e+16,2510431540156248.0,0.6673243769778012,5.034063709649679
94.0,2.743257323351638e+16,3577825309689058.0,0.6651789469093081,5.013243439611449
95.0,3.880160412261185e+16,5098197071264621.0,0.6630032386183206,4.992316905251974
96.0,5.48639997044418e+16,7263229914669357.0,0.6607976726310313,4.971292760552063
97.0,7.754762389962176e+16,1.034539602688565e+16,0.6585626874235193,4.9501796028029466
98.0,1.0956732220748894e+17,1.4731826866191374e+16,0.6562987396491251,4.9289859674203305
99.0,1.547437280609109e+17,2.0972292782344616e+16,0.6540063043461025,4.907720322944009
100.0,2.184500545081847e+17,2.9847122472974064e+16,0.6516858751245572,4.8863910662261025
101.0,3.082376878375793e+17,4.246327514717753e+16,0.6493379643317406,4.865006517810357
102.0,4.347113327497452e+17,6.039012251398782e+16,0.6469631031947732,4.843574917504673
103.0,6.127520467352892e+17,8.585119391353563e+16,0.6445618419398971,4.822104420148592
104.0,8.632247123682821e+17,1.2199472213717358e+17,0.6421347498873979,4.800603091577055
105.0,1.2153593363099418e+18,1.7327503901821568e+17,0.6396824155213674,4.779078904781379
106.0,1.710068509650746e+18,2.45989734940587e+17,0.6372054465335228,4.757539736267964
107.0,2.4045638794346286e+18,3.4903543730136915e+17,0.6347044698403431,4.735993362614932
108.0,3.3787727474588846e+18,4.949700690246468e+17,0.6321801315728267,4.714447457226499
109.0,4.74424585386075e+18,7.015042559072424e+17,0.629633097038234,4.692909587284488
110.0,6.656507946793097e+18,9.935929290487169e+17,0.6270640506532315,4.671387210896156
111.0,9.332159560358992e+18,1.4063652812770606e+18,0.6244736958479095,4.649887674437072
112.0,1.3072525990171748e+19,1.989224166501991e+18,0.621862754940223,4.628418210087485
113.0,1.829631512188445e+19,2.811574502341035e+18,0.6192319689804578,4.606985933560351
114.0,2.5584652747029262e+19,3.9708175041303997e+18,0.6165820975653798,4.585597842018985
115.0,3.5743093289542853e+19,5.603492113712359e+18,0.6139139186218474,4.564260812181784
116.0,4.988687741543961e+19,7.900781105039195e+18,0.6112282281597032,4.542981598611387
117.0,6.955796977666757e+19,1.1130060943494558e+19,0.6085258399938493,4.521766832185342
118.0,9.688546813620034e+19,1.5664806927266628e+19,0.605807585435495,4.5006230187451255
119.0,1.3480509827128798e+20,2.202602989676576e+19,0.6030743129526469,4.479556537920113
120.0,1.873590567100717e+20,3.093960129080106e+19,0.6003268877999988,4.458573642122917
121.0,2.6010491237992972e+20,4.341543126362313e+19,0.5975661916184615,4.4376804557123135
122.0,3.6067225811126773e+20,6.0856650218417906e+19,0.5947931220046684,4.416882974319787
123.0,4.9951914409243076e+20,8.520990833208623e+19,0.5920085920508716,4.396187064335571
124.0,6.909581176030537e+20,1.191719185465147e+20,0.589213529855741,4.375598462549942
125.0,9.545453664070044e+20,1.664727853198864e+20,0.5864088780066615,4.355122775945306
126.0,1.3169578637399307e+21,2.3226395828211794e+20,0.5835955930342237,4.334765481634607
127.0,1.8145250734365745e+21,3.2364845777115585e+20,0.5807746448396753,4.314531926941385
128.0,2.496636790022421e+21,4.504041650318954e+20,0.5779470160961797,4.294427329616897
129.0,3.430320931047554e+21,6.259685682878711e+20,0.5751137016248656,4.274456778189349
130.0,4.7063805497825443e+21,8.687768198256423e+20,0.5722757077466761,4.254625232440466
131.0,6.447604083947601e+21,1.2040762014301175e+21,0.5694340516111336,4.234937524004436
132.0,8.819726165321444e+21,1.666381575124339e+21,0.5665897605032106,4.215398357084336
133.0,1.204602933490893e+22,2.3027913256128692e+21,0.5637438711295728,4.196012309281039
134.0,1.6426754159800807e+22,3.1774558478140844e+21,0.560897428885527,4.176783832529604
135.0,2.236484490792116e+22,4.3775862293076325e+21,0.5580514871040823,4.157717254138184
136.0,3.0400023490110264e+22,6.021516346431058e+21,0.5552071062885862,4.138816777924438
137.0,4.12537852958405e+22,8.26949618080789e+21,0.5523653533304607,4.120086485444494
138.0,5.588829342452561e+22,1.1339469643905059e+22,0.5495497413311218,4.101242974791856
139.0,7.559210234375314e+22,1.5505925499900536e+22,0.5465280901869801,4.085260304223729
140.0,1.0202022304401094e+23,2.1127536944235053e+22,0.5431583604734765,4.073885957713439
141.0,1.3731457139316355e+23,2.8683386332706805e+22,0.5394397390764268,4.067056128825847
142.0,1.8425523873585943e+23,3.879536278207492e+22,0.5353467107977562,4.065027820239052
143.0,2.4640631481246635e+23,5.232814760784629e+22,0.531098406898338,4.065027820237963
144.0,3.2850690589206675e+23,7.0410321782569e+22,0.5268585436428259,4.065027820237963
145.0,4.367031850354383e+23,9.44724644968565e+22,0.5226290686603171,4.065027820237963
146.0,5.7886112766539897e+23,1.2636272930154854e+23,0.5184119348845825,4.065027820237963
147.0,7.649975048492614e+23,1.6847025005259462e+23,0.5142090982402424,4.065027820237963
148.0,1.0078654398916544e+24,2.2394141826480946e+23,0.5100225153218019,4.065027820237963
149.0,1.323798311402669e+24,2.9682391359289528e+23,0.5058541410729874,4.065027820237963
150.0,1.7335878006859433e+24,3.922841382526708e+23,0.5017059264737477,4.065027820237963
151.0,2.2635335739964234e+24,5.1688953663827824e+23,0.4975798162424972,4.065027820237963
152.0,2.946710701992086e+24,6.790087146468263e+23,0.49347774656076404,4.065027820237963
153.0,3.8246425397216805e+24,8.8931341132754e+23,0.4894016428276063,4.065027820237963
154.0,4.949397786160352e+24,1.161331328021627e+24,0.4853534174509549,4.065027820237963
155.0,6.386073909958804e+24,1.5121137800756625e+24,0.4813349676832638,4.065027820237963
156.0,8.21573278026099e+24,1.9630621768988144e+24,0.47734817350721,4.065027820237963
157.0,1.0538902906605317e+25,2.5409977439196894e+24,0.47339489557923575,4.065027820237963
158.0,1.3479891412667943e+25,3.279466780871661e+24,0.469476973236466,4.065027820237963
159.0,1.7192044036356508e+25,4.2202875540512757e+24,0.46559622257310557,4.065027820237963
160.0,2.186398263173108e+25,5.415388167600785e+24,0.46175443459165544,4.065027820237963
161.0,2.7727022167227723e+25,6.929023791815019e+24,0.4579533734381189,4.065027820237963
162.0,3.506389007036672e+25,8.840493015221899e+24,0.45419477471562175,4.065027820237963
163.0,4.421926769011755e+25,1.1247400493544494e+25,0.4504803438944091,4.065027820237963
164.0,5.561210095871048e+25,1.426954598333859e+25,0.44681175481458735,4.065027820237963
165.0,6.9750498218597505e+25,1.8053518198471533e+25,0.44319064827966836,4.065027820237963
166.0,8.724865247896622e+25,2.2778160177122987e+25,0.43961863076396956,4.065027820237963
167.0,1.0884760396724234e+26,2.8661058358977256e+25,0.436097273208334,4.065027820237963
168.0,1.3543863391755924e+26,3.5966269959006575e+25,0.43262810992923284,4.065027820237963
169.0,1.6809143307796593e+26,4.501339808961611e+25,0.4292126376376064,4.065027820237963
170.0,2.0808712039408057e+26,5.618827853546921e+25,0.42585231455375844,4.065027820237963
171.0,2.569557240984293e+26,6.995554472029057e+25,0.4225485596416454,4.065027820237963
172.0,3.16520994478294e+26,8.68733412602394e+25,0.4193027519481612,4.065027820237963
173.0,3.8895240177319655e+26,1.0761058315694573e+26,0.41611623004788095,4.065027820237963
174.0,4.768253454149503e+26,1.329671373591846e+26,0.4129902915965539,4.065027820237963
175.0,5.83191375271307e+26,1.638973585458324e+26,0.4099261929889237,4.065027820237963
176.0,7.116599488770286e+26,2.015375216963704e+26,0.40692514912056404,4.065027820237497
177.0,8.668401844088794e+26,2.4686195163604204e+26,0.40357339784675755,4.0697131160718065
178.0,1.0667502281872364e+27,2.2368779396125944e+26,0.32636061027450364,5.001261466026964
179.0,1.1831015693817399e+27,1.981982115215255e+26,0.25954966721705575,6.001261425376461
180.0,1.2333513981723878e+27,1.7556042084024267e+26,0.20607568432444623,7.001261384726042
181.0,1.235864622240223e+27,1.5546267631466773e+26,0.16335440288437397,8.001261344075637
182.0,1.2048445454696906e+27,1.3762635312177672e+26,0.12928494122441692,9.001261303425196
183.0,1.1511755296688077e+27,1.2180253687437683e+26,0.10216298566242787,10.001261262774753
184.0,1.0831073958427092e+27,1.0776897215649554e+26,0.08060909514181422,11.001261222124311
185.0,1.0068125883637489e+27,9.53272901819023e+25,0.06350905812006286,12.001261181473868
186.0,9.268343196218245e+26,8.43005435311705e+25,0.04996500059027368,13.001261140823427
187.0,8.464492054510447e+26,7.453095080804368e+25,0.03925475061721264,14.001261100172986
188.0,7.679558907736661e+26,6.587789523421955e+25,0.030798734544981013,15.001261059522541
189.0,6.92905583234474e+26,5.821611234925015e+25,0.02413274486146098,16.0012610188721
190.0,6.2228444409064e+26,5.14340590221277e+25,0.018885681377748913,17.00126097822165
191.0,5.566568287114775e+26,4.543246313282966e+25,0.014761507212210095,18.001260937571203
192.0,4.962776220756776e+26,4.012300263009598e+25,0.01152446297379083,19.001260896920755
193.0,4.4117908343964995e+26,3.5427138568197675e+25,0.008987178645788928,20.001260856270306
194.0,3.912378626318752e+26,3.1275057328191878e+25,0.0070009961744703884,21.00126081561986
195.0,3.462259696836534e+26,2.7604726190576255e+25,0.005448177739446088,22.00126077496941
196.0,3.0584923393836418e+26,2.4361052152002294e+25,0.004235648041378992,23.001260734318965
197.0,2.697758609256764e+26,2.1495120104424115e+25,0.0032899362037050565,24.001260693668517
198.0,2.3765734977321e+26,1.8963521538328957e+25,0.002553153665932933,25.00126065301807
199.0,2.0914343581583565e+26,1.6727746383885923e+25,0.0019797538433083176,26.00126061236762
200.0,1.8389248707114312e+26,1.4753643751546178e+25,0.0015339573428936471,27.00126057171717
201.0,1.615784740939889e+26,1.3010940656891834e+25,0.0011877010235585954,28.001260531066723
202.0,1.4189528288656635e+26,1.1472808999020235e+25,0.0009190013861887998,29.001260490416275
203.0,1.245591874811498e+26,1.0115484338188393e+25,0.000710664913548076,30.001260449765827
204.0,1.0930985277327634e+26,8.917921156334397e+24,0.0005492593089999892,31.00126040911538
205.0,9.591039174186848e+25,7.861488974252317e+24,0.00042430521356352357,32.00126036846493
206.0,8.414672505779571e+25,6.929700517644422e+24,0.000327636855076397,33.0012603278145
207.0,7.382646647477315e+25,6.107968890305232e+24,0.00025289783053911706,34.00126028716406
208.0,6.477757146752607e+25,5.383393680220664e+24,0.00019514659338885521,35.001260246513624
209.0,5.684678550264326e+25,4.7445681157841486e+24,0.00015054462811763008,36.00126020586319
210.0,4.989807241737374e+25,4.181409846111731e+24,0.0001161136929716037,37.001260165212756
211.0,4.381102623015946e+25,3.685009282784352e+24,8.954494460731928e-05,38.00126012456232
212.0,3.847933480524596e+25,3.2474950798215115e+24,6.904993708390088e-05,39.00126008391188
213.0,3.380933698132404e+25,2.8619154564103774e+24,5.324465799160842e-05,40.001260043261446
214.0,2.9718653762496408e+25,2.5221316407511375e+24,4.10586279823098e-05,41.00126000261101
215.0,2.6134947255905125e+25,2.2227246139862844e+24,3.166461618709273e-05,42.00125996196057
216.0,2.299477233820122e+25,1.9589114856933225e+24,2.442366908548905e-05,43.00125992131014
217.0,2.0242542541385556e+25,1.72647176801379e+24,1.8842547747430383e-05,44.0012598806597
218.0,1.7829601675975148e+25,1.5216821971327582e+24,1.4540726303106724e-05,45.00125984000927
219.0,1.571338522455877e+25,1.3412584861655055e+24,1.1224706519173459e-05,46.00125979935883
220.0,1.385668226005055e+25,1.1823043819146207e+24,0.0,47.001259758708386
221.0,1.2226974716470697e+25,1.0422661833467977e+24,0.0,48.00125971805798
222.0,1.0795854062986314e+25,9.188925768322244e+23,0.0,49.00125967740758
223.0,9.5385074552096e+24,8.101991662273054e+23,0.0,50.001259636757155
224.0,8.43326433410625e+24,7.144370070998853e+23,0.0,51.00125959610676
225.0,7.46120014272648e+24,6.300649804460851e+23,0.0,52.00125955545635
226.0,6.605787414580061e+24,5.5572522090662214e+23,0.0,53.00125951480592
227.0,5.852590424799241e+24,4.9022147033100944e+23,0.0,54.001259474155525
228.0,5.188998982587463e+24,4.3250001525289564e+23,0.0,55.001259433505126
229.0,4.603994715261301e+24,3.8163273294044875e+23,0.0,56.001259392854735
230.0,4.087946965022124e+24,3.368021192560008e+23,0.0,57.001259352204336
231.0,3.6324359947735914e+24,2.9728822187399643e+23,0.0,58.00125931155394
232.0,3.230098197330366e+24,2.6245704002911283e+23,0.0,59.00125927090354
233.0,2.874491185226037e+24,2.3175029317472493e+23,0.0,60.00125923025314
234.0,2.5599762411178923e+24,2.0467639897260514e+23,0.0,61.00125918960275
235.0,2.2816159139918469e+24,1.8080251931606694e+23,0.0,62.00125914895235
236.0,2.035084818794984e+24,1.59747549324733e+23,0.0,63.00125910830195
237.0,1.8165919391323883e+24,1.4117593866149053e+23,0.0,64.00125906765156
238.0,1.62281294679863e+24,1.2479224730967197e+23,0.0,65.00125902700118
239.0,1.450831240748044e+24,1.1033634928897135e+23,0.0,66.00125898635079
