Time,J,A,S,tau
0.0,100.0,10.0,0.8104795576799666,2.375296912114014
1.0,92.50482842219846,40.89985030997166,0.7980596632738464,2.375296912114014
2.0,124.52540889752308,68.16570975198073,0.7858300376552106,2.375296912114014
3.0,190.41926138620153,85.68900888654358,0.7812971429686717,2.375296912114014
4.0,260.8538586207483,122.85587790609108,0.7813058209824456,2.375296912114014
5.0,363.21628847984215,183.24543537219384,0.7813188790287426,2.375296912114014
6.0,524.5708631234374,257.59280094943557,0.781336312656385,2.375296912114014
7.0,747.5294862283507,366.1753491927805,0.7813581159810338,2.375296912114014
8.0,1063.9547469316583,527.7460065328402,0.7813842816875294,2.375296912114014
9.0,1525.7041246935594,754.4717994388443,0.7814148010328885,2.375296912114014
10.0,2187.298187514531,1078.4708000325074,0.7814496638498086,2.375296912114014
11.0,3135.5733978989206,1546.6267427136183,0.781488858550816,2.375296912114014
12.0,4503.647962739254,2217.20886274685,0.7815323721328978,2.375296912114014
13.0,6474.816028365049,3179.2190800345434,0.7815801901827949,2.375296912114014
14.0,9315.61290052813,4563.930216972732,0.7816322968828041,2.375296912114014
15.0,13418.110235636033,6556.408805093682,0.7816886750171335,2.375296912114014
16.0,19348.430881872016,9425.513862208225,0.7817493059788835,2.375296912114014
17.0,27929.414875229766,13563.111436163803,0.7818141697775113,2.375296912114014
18.0,40363.293663216784,19535.79487638492,0.7818832450468709,2.375296912114014
19.0,58403.99545050961,28166.552739626906,0.7819565090538383,2.375296912114014
20.0,84614.7981344884,40654.25990645263,0.7820339377074053,2.375296912114014
21.0,122750.94616310306,58745.25895702441,0.7821155055683618,2.375296912114014
22.0,178321.2146271406,84987.74790915067,0.7822011858595161,2.375296912114014
23.0,259420.08390135667,123107.30496972681,0.7822909504763783,2.375296912114014
24.0,377963.94960681116,178558.61478178666,0.7823847699984295,2.375296912114014
25.0,551527.5960247561,259341.1502938046,0.7824826137008843,2.375296912114014
26.0,806078.4046010183,377207.7249225184,0.7825844495669129,2.375296912114014
27.0,1180057.407411905,549455.6734519026,0.7826902443004372,2.375296912114014
28.0,1730484.0964800753,801588.498899566,0.7827999633393696,2.375296912114014
29.0,2542101.321505914,1171280.1438581992,0.7829135708693221,2.375296912114014
30.0,3741109.6818160373,1714288.3237616841,0.783031029837852,2.375296912114014
31.0,5515845.163985339,2513295.8779817373,0.7831523019691154,2.375296912114014
32.0,8147955.123441861,3691158.625914778,0.7832773477789942,2.375296912114014
33.0,12059534.705671426,5430793.158056913,0.7834061265907127,2.375296912114014
34.0,17884561.504270677,8005105.760152218,0.7835385965508356,2.375296912114014
35.0,26577332.772730708,11822126.991337363,0.7836747146457345,2.375296912114014
36.0,39577563.947993934,17493220.52922774,0.7838144367184936,2.375296912114014
37.0,59062301.0793485,25936425.560905654,0.7839577174861729,2.375296912114014
38.0,88331049.97157523,38533355.91775414,0.7841045105575318,2.375296912114014
39.0,132396378.09872538,57367963.5209292,0.7842547684511321,2.375296912114014
40.0,198891411.2532428,85590824.83429033,0.7844084426137876,2.375296912114014
41.0,299467547.5351363,127976106.18627432,0.7845654834394473,2.375296912114014
42.0,451953666.7167299,191775267.3798181,0.7847258402884063,2.375296912114014
43.0,683698100.1533418,288028984.28730375,0.7848894615068533,2.375296912114014
44.0,1036755172.7439128,433587617.1421312,0.7850562944468127,2.375296912114014
45.0,1575957710.0859563,654231242.684622,0.7852262854863676,2.375296912114014
46.0,2401505664.917359,989499897.2851344,0.7853993800502133,2.375296912114014
47.0,3668655138.301935,1500188612.3377655,0.7855755226305493,2.375296912114014
48.0,5618597577.307143,2280009877.758552,0.7857546568082228,2.375296912114014
49.0,8626987507.499254,3473785858.552707,0.7859367252741799,2.375296912114014
50.0,13280442848.89751,5305895531.103041,0.786121669851207,2.375296912114014
51.0,20497454567.244392,8124884667.769301,0.786309431515888,2.375296912114014
52.0,31719879977.58284,12473593880.943253,0.7864999504208504,2.375296912114014
53.0,49217328237.38508,19199684429.202732,0.7866931659172413,2.375296912114014
54.0,76571947992.32686,29630320221.515,0.7868890165774148,2.375296912114014
55.0,119452579416.28825,45848970411.56778,0.7870874402178399,2.375296912114014
56.0,186854719107.96274,71135169350.31801,0.7872883739222111,2.375296912114014
57.0,293091521231.16187,110665083896.23029,0.787491754064745,2.375296912114014
58.0,460999551698.4341,172630562525.56558,0.7876975163336546,2.375296912114014
59.0,727114224378.6727,270031445342.59753,0.7879055957547842,2.375296912114014
60.0,1150047749233.3975,423553951894.97186,0.7881159267153991,2.375296912114014
61.0,1824088045394.2017,666205822015.1418,0.7883284429881132,2.375296912114014
62.0,2901331893308.9653,1050800632027.9968,0.7885430777549421,2.375296912114014
63.0,4627805623819.432,1662075504086.6729,0.788759763631471,2.375296912114014
64.0,7402572692067.801,2636364037870.6665,0.7889784326911243,2.375296912114014
65.0,11874720489609.312,4193621976593.6523,0.7891990164895243,2.375296912114014
66.0,19102926334394.152,6689704443882.699,0.7894214460889261,2.375296912114014
67.0,30818693328494.25,10701932317906.617,0.7896456520827196,2.375296912114014
68.0,49861780613445.01,17169527182296.97,0.7898715646199832,2.375296912114014
69.0,80902402440593.95,27624725263707.758,0.790099113430077,2.375296912114014
70.0,131642270346774.62,44574154024339.59,0.7903282278472649,2.375296912114014
71.0,214817311858935.28,72129871688146.16,0.7905588368353546,2.375296912114014
72.0,351546135615110.3,117056332017888.02,0.7907908690123394,2.375296912114014
73.0,576943218604275.6,190512113478976.97,0.7910242526750351,2.375296912114014
74.0,949553589396863.5,310955216189711.4,0.7912589158236975,2.375296912114014
75.0,1567251696861202.2,509002362323755.2,0.7914947861866092,2.375296912114014
76.0,2594104977577287.5,835577693644386.5,0.7917317912446263,2.375296912114014
77.0,4305889274928589.5,1375614438750201.8,0.791969858255671,2.375296912114014
78.0,7167377782371062.0,2271155290741993.0,0.7922089142791583,2.375296912114014
79.0,1.1963963154239404e+16,3760398721932798.5,0.7924488862003507,2.375296912114014
80.0,2.0026352925518344e+16,6243873197629495.0,0.7926897007546266,2.375296912114014
81.0,3.361513638555331e+16,1.0396879540917064e+16,0.7929312845516523,2.375296912114014
82.0,5.658063389817311e+16,1.7361042848713056e+16,0.7931735640994462,2.375296912114014
83.0,9.549791195360293e+16,2.9071472092457296e+16,0.793416465828328,2.375296912114014
84.0,1.6162398593065997e+17,4.881695698655892e+16,0.7936599161147406,2.375296912114014
85.0,2.7428110262426358e+17,8.220162205187507e+16,0.7939038413049343,2.375296912114014
86.0,4.667194546224145e+17,1.3879988553741251e+17,0.7941481677385069,2.375296912114014
87.0,7.96300931804798e+17,2.3501166166137584e+17,0.7943928217717868,2.375296912114014
88.0,1.362231025616714e+18,3.9900043863689485e+17,0.7946377298010517,2.375296912114014
89.0,2.336506706124769e+18,6.792546044774838e+17,0.794882818285575,2.375296912114014
90.0,4.0180570802733655e+18,1.1594665305413202e+18,0.7951280137704891,2.375296912114014
91.0,6.927677515152702e+18,1.984453643162988e+18,0.7953732429094584,2.375296912114014
92.0,1.1974875677876173e+19,3.405423234219154e+18,0.7956184324871546,2.375296912114014
93.0,2.0751766791520313e+19,5.859202250374493e+18,0.7958635094415241,2.375296912114014
94.0,3.605192201400094e+19,1.0107240567272305e+19,0.7961084008858434,2.375296912114014
95.0,6.278837840995947e+19,1.7480043367280771e+19,0.7963530341305516,2.375296912114014
96.0,1.0962143868649733e+20,3.030797319904047e+19,0.7965973367048543,2.375296912114014
97.0,1.9185127284365754e+20,5.268222431173801e+19,0.7968412363780946,2.375296912114014
98.0,3.3656899328028606e+20,9.180199469797217e+19,0.7970846611808788,2.375296912114014
99.0,5.918487496013429e+20,1.60364633041798e+20,0.7973275394259586,2.375296912114014
100.0,1.0431848741840413e+21,2.808153690783959e+20,0.7975697997288543,2.375296912114014
101.0,1.842944211611441e+21,4.929194873429124e+20,0.7978113710282242,2.375296912114014
102.0,3.263244808203642e+21,8.67282706431241e+20,0.7980521826059631,2.375296912114014
103.0,5.791081150527565e+21,1.5295421236658776e+21,0.798292164107036,2.375296912114014
104.0,1.0299779481655734e+22,2.703737151475949e+21,0.7985312455590338,2.375296912114014
105.0,1.8358601541571075e+22,4.790224890961169e+21,0.7987693573914525,2.375296912114014
106.0,3.2792960399151414e+22,8.505919130091097e+21,0.7990064304546831,2.375296912114014
107.0,5.869974551020634e+22,1.5137218286110693e+22,0.799242396038722,2.375296912114014
108.0,1.0529101792774048e+23,2.6997016943036547e+22,0.7994771858915852,2.375296912114014
109.0,1.892477892270493e+23,4.8252017362948525e+22,0.7997107322374298,2.375296912114014
110.0,3.408312626095747e+23,8.642315853779942e+22,0.7999429677943773,2.375296912114014
111.0,6.150377721886591e+23,1.5511171571653057e+23,0.8001738257920373,2.375296912114014
112.0,1.1119940486563161e+24,2.7896104181485002e+23,0.8004032399887284,2.375296912114014
113.0,2.0143081469738914e+24,5.027030929274318e+23,0.8006311446883944,2.375296912114014
114.0,3.65558194857212e+24,9.076806166830988e+23,0.800857474757213,2.375296912114014
115.0,6.646280500038685e+24,1.6420728651849823e+24,0.8010821656398974,2.375296912114014
116.0,1.2105330215250448e+25,2.976280991210873e+24,0.8013051533756869,2.375296912114014
117.0,2.2086897704556184e+25,5.404578128687845e+24,0.8015263746140274,2.375296912114014
118.0,4.036799301770477e+25,9.83196211614513e+24,0.8017457666299396,2.375296912114014
119.0,7.390404432855988e+25,1.7918153302511597e+25,0.8019632673390762,2.375296912114014
120.0,1.3552272288370623e+26,3.2711846112374905e+25,0.8021788153124643,2.375296912114014
121.0,2.4891620728997616e+26,5.982183126298095e+25,0.802392349790938,2.375296912114014
122.0,4.579053128223806e+26,1.095825197199308e+26,0.8026038106992563,2.375296912114014
123.0,8.436532660748758e+26,2.0106380209036488e+26,0.8028131386599108,2.375296912114014
124.0,1.556691341330521e+27,3.69506134858885e+26,0.8030202750066201,2.375296912114014
125.0,2.8765750374814657e+27,6.801249870473717e+26,0.8032251617975165,2.375296912114014
126.0,5.323143217299928e+27,1.2537742063293553e+27,0.803427741828021,2.375296912114014
127.0,9.86425944807529e+27,2.3147160938211731e+27,0.8036279586434123,2.375296912114014
128.0,1.830414519008239e+28,4.27965027438959e+27,0.8038257565510879,2.375296912114014
129.0,3.401009851814158e+28,7.923834736021456e+27,0.8040210806325216,2.375296912114014
130.0,6.327392227247375e+28,1.4691415344753836e+28,0.8042138767549183,2.375296912114014
131.0,1.1786507327146496e+29,2.727580552242485e+28,0.8044040915825688,2.375296912114014
132.0,2.1982355151284638e+29,5.070630734102952e+28,0.8045916725879043,2.375296912114014
133.0,4.104661727974961e+29,9.438471819994303e+28,0.8047765680622588,2.375296912114014
134.0,7.67326288958668e+29,1.759064071141164e+29,0.8049587271263355,2.375296912114014
135.0,1.4360447716545782e+30,3.2823661046890064e+29,0.8051380997403842,2.375296912114014
136.0,2.690462117057928e+30,6.1320123285394766e+29,0.8053146367140919,2.375296912114014
137.0,5.045947922593849e+30,1.146872288673605e+30,0.8054882897161895,2.375296912114014
138.0,9.473310664188995e+30,2.147379017904484e+30,0.8056590112837764,2.375296912114014
139.0,1.7802879307796562e+31,4.025035263161626e+30,0.8058267548313686,2.375296912114014
140.0,3.348842061556836e+31,7.5523813628714e+30,0.8059914746596729,2.375296912114014
141.0,6.305241340387011e+31,1.4185264728431606e+31,0.8061531259640907,2.375296912114014
142.0,1.188223833871813e+32,2.666960233483626e+31,0.8063116648429541,2.375296912114014
143.0,2.241152224133373e+32,5.018889448902677e+31,0.806467048305501,2.375296912114014
144.0,4.230661223376783e+32,9.453602393090892e+31,0.8066192342795885,2.375296912114014
145.0,7.992752804826222e+32,1.782265731362434e+32,0.8067681816191541,2.375296912114014
146.0,1.511205013090289e+33,3.3629468433152615e+32,0.8069138501114227,2.375296912114014
147.0,2.8594143549377896e+33,6.3507814113424326e+32,0.8070562004838693,2.375296912114014
148.0,5.414340274202798e+33,1.2002765821074865e+33,0.8071951944109355,2.375296912114014
149.0,1.0259282548760249e+34,2.270231276029998e+33,0.80733079452051,2.375296912114014
150.0,1.9452698695161105e+34,4.297157519997586e+33,0.8074629644001722,2.375296912114014
151.0,3.6908193053463057e+34,8.139595940845032e+33,0.8075916686032052,2.375296912114014
152.0,7.007039828857684e+34,1.5428475659118604e+34,0.8077168726543829,2.375296912114014
153.0,1.3310803907149317e+35,2.9263764381719254e+34,0.8078385430555334,2.375296912114014
154.0,2.5300033216957744e+35,5.554090579231706e+34,0.8079566472908853,2.375296912114014
155.0,4.811432553021037e+35,1.0547756942364048e+35,0.8080711538321994,2.375296912114014
156.0,9.154904175426319e+35,2.0042904005161647e+35,0.8081820321436888,2.375296912114014
157.0,1.7428060602277087e+36,3.81069104230185e+35,0.8082892526867345,2.375296912114014
158.0,3.319327663344899e+36,7.24901109764358e+35,0.8083927869243981,2.375296912114014
159.0,6.324804819273954e+36,1.379670195058008e+36,0.8084926073257357,2.375296912114014
160.0,1.2056753631638156e+37,2.6271389458223998e+36,0.8085886873699185,2.375296912114014
161.0,2.299272126064968e+37,5.0048605869092306e+36,0.8086810015501621,2.375296912114014
162.0,4.386495877447376e+37,9.538766627435698e+36,0.8087695253774679,2.375296912114014
163.0,8.371499007521472e+37,1.8187543623287756e+37,0.8088542353841836,2.375296912114014
164.0,1.598224664347051e+38,3.469188620193438e+37,0.8089351091273811,2.375296912114014
165.0,3.052197313764603e+38,6.619793418853799e+37,0.8090121251920614,2.375296912114014
166.0,5.83067432902415e+38,1.2636138976243363e+38,0.8090852631941833,2.375296912114014
167.0,1.1141604029491036e+39,2.4128410330853788e+38,0.8091545037835242,2.375296912114014
168.0,2.1295649481304455e+39,4.6087001837962694e+38,0.8092198286463747,2.375296912114014
169.0,4.0713636241858184e+39,8.805516650456792e+38,0.8092812205080679,2.375296912114014
170.0,7.785498763399382e+39,1.6828647345035914e+39,0.8093386631353503,2.375296912114014
171.0,1.4890948716152677e+40,3.217014564489738e+39,0.8093921413385914,2.375296912114014
172.0,2.8486532849258453e+40,6.151172308828228e+39,0.8094416409738416,2.375296912114014
173.0,5.450421901019173e+40,1.1764013529385216e+40,0.8094871489447345,2.375296912114014
174.0,1.0430041411426142e+41,2.2502859369463147e+40,0.8095286532042392,2.375296912114014
175.0,1.9961789978618052e+41,4.3052301378380476e+40,0.8095661427562644,2.375296912114014
176.0,3.820873716293089e+41,8.238032600247467e+40,0.809599607657115,2.375296912114014
177.0,7.314218127392853e+41,1.5765624639052752e+41,0.8096290390168054,2.375296912114014
178.0,1.4002560811055997e+42,3.017529632499826e+41,0.809654429000228,2.375296912114014
179.0,2.6808573952668593e+42,5.776127833013888e+41,0.8096757708281817,2.375296912114014
180.0,5.132855307784032e+42,1.1057557330269174e+42,0.809693058778258,2.375296912114014
181.0,9.827788344539544e+42,2.1169522319364636e+42,0.8097062881855903,2.375296912114014
182.0,1.8817263276061804e+43,4.053075694325001e+42,0.809715455443463,2.375296912114014
183.0,3.602910238578832e+43,7.760193473138908e+42,0.8097205580037848,2.375296912114014
184.0,6.898253479156713e+43,1.4858226072803867e+43,0.809721594377423,2.375296912114014
185.0,1.3207054589432092e+44,2.8448564922607647e+43,0.8097185641344038,2.375296912114014
186.0,2.5284029128754596e+44,5.446846844405137e+43,0.8097114679039745,2.375296912114014
187.0,4.840078522137103e+44,1.0428305978335527e+44,0.8097003073745311,2.375296912114014
188.0,9.264385898240636e+44,1.9964505285427825e+44,0.8096850852934079,2.375296912114014
189.0,1.7730917347912384e+45,3.821834579431887e+44,0.8096658054665328,2.375296912114014
190.0,3.39303458785886e+45,7.315534909415547e+44,0.8096424727579438,2.375296912114014
191.0,6.492022033736437e+45,1.4001463672307423e+45,0.8096150930891683,2.375296912114014
192.0,1.2419334608965098e+46,2.679453136167505e+45,0.8095836734384649,2.375296912114014
193.0,2.3753919357010523e+46,5.126918768969192e+45,0.8095482218399238,2.375296912114014
194.0,4.542371961275284e+46,9.808359132776192e+45,0.8095087473824288,2.375296912114014
195.0,8.684250303529051e+46,1.8761085637280994e+46,0.8094652602084749,2.375296912114014
196.0,1.659876726782182e+47,3.5878411174986606e+46,0.8094177715128448,2.375296912114014
197.0,3.1717922220081313e+47,6.859838974324979e+46,0.8093662935411371,2.375296912114014
198.0,6.0591320188795585e+47,1.31126923324814e+47,0.8093108395881508,2.375296912114014
199.0,1.1571353467390643e+48,2.5058708972217096e+47,0.8092514239961177,2.375296912114014
200.0,2.2091087380865235e+48,4.787468249232279e+47,0.809188062152785,2.375296912114014
201.0,4.215996084570436e+48,9.14376197855764e+47,0.8091207704893442,2.375296912114014
202.0,8.04311554539005e+48,1.745850195335267e+48,0.8090495664782027,2.375296912114014
203.0,1.533840123852369e+49,3.332293339817614e+48,0.8089744686305989,2.375296912114014
204.0,2.9238701931815935e+49,6.358060296977704e+48,0.8088954964940523,2.375296912114014
205.0,5.571198693040645e+49,1.212668423853011e+49,0.8088126706496539,2.375296912114014
206.0,1.0610649083011148e+50,2.311991295437024e+49,0.8087260127091835,2.375296912114014
207.0,2.019891307214728e+50,4.4060309545008237e+49,0.808635545312061,2.375296912114014
208.0,3.843232066793621e+50,8.392985542728892e+49,0.8085412921221222,2.375296912114014
209.0,7.308654105083038e+50,1.5980235413847749e+50,0.808443277824216,2.375296912114014
210.0,1.389120231531717e+51,3.04114862454142e+50,0.808341528120623,2.375296912114014
211.0,2.6387189616603584e+51,5.784551847612913e+50,0.808236069727289,2.375296912114014
212.0,5.009407490082546e+51,1.0996868516111297e+51,0.8081269303698698,2.375296912114014
213.0,9.50404216600416e+51,2.0894165984445246e+51,0.8080141387795857,2.375296912114014
214.0,1.8019708747317448e+52,3.967591967743359e+51,0.8078977246888788,2.375296912114014
215.0,3.414232247466822e+52,7.529462631889478e+51,0.8077777188268718,2.375296912114014
216.0,6.464463603425497e+52,1.4279889816916698e+52,0.807654152914624,2.375296912114014
217.0,1.223077903204988e+53,2.7064394017039565e+52,0.8075270596601783,2.375296912114014
218.0,2.312308524571773e+53,5.125931729146818e+52,0.8073964727533988,2.375296912114014
219.0,4.368125572361852e+53,9.701450404158298e+52,0.80726242686059,2.375296912114014
220.0,8.244979099371495e+53,1.8347543972370445e+53,0.8071249576188994,2.375296912114014
221.0,1.5549497049217374e+54,3.467244781840633e+53,0.8069841016304942,2.375296912114014
222.0,2.9299655115965527e+54,6.547025640892066e+53,0.8068398964565118,2.375296912114014
223.0,5.515880876730292e+54,1.2352191851438263e+54,0.8066923806107762,2.375296912114014
224.0,1.037433083269836e+55,2.3284758570187293e+54,0.80654159355328,2.375296912114014
225.0,1.9493265448430758e+55,4.385450902962913e+54,0.8063875756834249,2.375296912114014
226.0,3.6591031571031904e+55,8.251985428698203e+54,0.8062303683330183,2.375296912114014
227.0,6.861457097691523e+55,1.5512829978500208e+55,0.8060700137590225,2.375296912114014
228.0,1.2852736108016724e+56,2.913389206501362e+55,0.8059065551360491,2.375296912114014
229.0,2.4049059065350004e+56,5.465969478747664e+55,0.8057400365485987,2.375296912114014
230.0,4.4947898956591946e+56,1.0244323016581164e+56,0.8055705029830391,2.375296912114014
231.0,8.391022677827594e+56,1.9179295889838221e+56,0.8053980003193213,2.375296912114014
232.0,1.5645873342004009e+57,3.5867506374400835e+56,0.8052225753224249,2.375296912114014
233.0,2.913729386790006e+57,6.69999482570851e+56,0.8050442756335341,2.375296912114014
234.0,5.419360404292694e+57,1.2500804894669984e+57,0.8048631497609372,2.375296912114014
235.0,1.0066559379405137e+58,2.3295767726737496e+57,0.804679247070648,2.375296912114014
