Time,J,A,S,tau
0.0,100.0,10.0,0.6615161984700588,196.02904328414544
1.0,99.97362985961584,8.95642721361985,0.6613644737250853,197.02829362685972
2.0,99.94819948836383,8.021886805529256,0.6612150266175477,198.02767364246967
3.0,99.92303858275645,7.185231667914716,0.6610668180376914,199.02707134097287
4.0,99.8981137445263,6.436172571464549,0.6609197015344074,200.02648427764106
5.0,99.87339269325601,5.765510072601055,0.660773533251792,201.02591016340153
6.0,99.8488441011734,5.165018402529437,0.6606281715958663,202.0253468399897
7.0,99.82443743466699,4.627336255946714,0.6604834768974691,203.02479225665962
8.0,99.8001428071488,4.1458795749796495,0.6603393110860795,204.02424444896442
9.0,99.77593083955928,3.7147604125569194,0.6601955373695846,205.02370151896667
10.0,99.75177252410548,3.32870817966932,0.6600520199119413,206.02316161619694
11.0,99.72763909332747,2.983007242716988,0.6599086235169049,207.02262291954034
12.0,99.7035018917327,2.67343997951741,0.6597652133139866,208.02208361957204
13.0,99.67933224778511,2.3962303314135838,0.659621654443473,209.02154190097576
14.0,99.65510134664858,2.147998908589104,0.6594778117442092,210.02099592500437
15.0,99.6307801005368,1.925722856310194,0.6593335494391708,211.0204438114508
16.0,99.60633901614656,1.7266956269559974,0.659188730819982,212.0198836199859
17.0,99.5817480590898,1.5484945224091036,0.6590432179328846,213.01931333075947
18.0,99.55697651054551,1.3889522959272895,0.6588968712578684,214.01873082347876
19.0,99.53199281643344,1.2461286472847093,0.6587495493849336,215.01813385490465
20.0,99.50676442999907,1.1182866592128058,0.6586011086926201,216.017520034791
21.0,99.48125764020259,1.0038726337332158,0.6584514030154451,217.01688679902279
22.0,99.45543738576505,0.90149601630259,0.6583002833048693,218.01623137976617
23.0,99.42926705837777,0.8099122358137398,0.6581475972953816,219.01555077302154
24.0,99.40270828347674,0.7280083520847138,0.6579931891562528,220.0148417016507
25.0,99.37572067616536,0.6547890166242856,0.6578368991317536,221.01410057324483
26.0,99.34826158014704,0.5893639547215263,0.6576785631910571,222.01332343386537
27.0,99.32028577297059,0.5309377557577407,0.6575180126623701,223.01250591479695
28.0,99.29174513044612,0.47880012590792786,0.6573550738499917,224.01164317075953
29.0,99.26258826380933,0.4323167854930912,0.6571895676666455,225.01072981150483
30.0,99.2327601071686,0.3909222556688408,0.657021309251599,226.00975982278487
31.0,99.20220144004652,0.35411312645363574,0.6568501075674574,227.00872647353694
32.0,99.1708483642977,0.321441549131431,0.6566757650178598,228.00762221213756
33.0,99.13863170944417,0.292510142702937,0.6564980770592881,229.00643854683895
34.0,99.10547632962108,0.26696759508173934,0.6563168317824672,230.00516590299014
35.0,99.0713003375463,0.24450390125035895,0.6561318095385646,231.00379346458516
36.0,99.03601421134029,0.22484735866099356,0.6559427825490938,232.00230898789385
37.0,98.9995197455035,0.2077610221169995,0.6557495145058274,233.0006985804832
38.0,98.96170892257929,0.1930401822005212,0.6555517602497856,233.99894645967734
39.0,98.92246247214459,0.18051048068229936,0.6553492653583718,234.99703464408512
40.0,98.88164841322799,0.17002564747415888,0.6551417659120765,235.99494263502245
41.0,98.83912014206626,0.16146635702072856,0.654928988140883,236.99264700007862
42.0,98.79471436999522,0.1547393799507648,0.6547106482221952,237.9901209175827
43.0,98.74824873371628,0.14977677856351243,0.6544864521304955,238.98733364547925
44.0,98.69951899662111,0.1465355139108596,0.6542560955440423,239.9842498960797
45.0,98.64829533681389,0.14499998618799756,0.6540192637001028,240.980829007472
46.0,98.59431928601217,0.14517882420788067,0.6537756318054626,241.97702424011703
47.0,98.53729864790218,0.1471089536959721,0.653524865080629,242.9727816326704
48.0,98.47690242785978,0.15085726837033464,0.6532666192811099,243.9680388420641
49.0,98.4127549525038,0.1565214258525342,0.6530005414071607,244.96272379315243
50.0,98.34442825712183,0.16423508854563532,0.6527262705731897,245.95675293224184
51.0,98.27143432772813,0.17417057184129148,0.6524434393470563,246.9500294283513
52.0,98.19321475235952,0.18654393463665228,0.6521516753522487,247.94244077943443
53.0,98.10912963370384,0.2016213282766129,0.6518506034121935,248.9338562295223
54.0,98.01844371248713,0.21972578018251085,0.6515398482339136,249.92412353318173
55.0,97.92031110268431,0.24124563702985297,0.6512190377406187,250.9130653783092
56.0,97.81375624936292,0.26664498269771225,0.6508878072329719,251.9004749197179
57.0,97.69765240083724,0.2964756163957647,0.6505458044686385,252.88611070929676
58.0,97.57069616470368,0.3313912794000135,0.6501926958489663,253.86969069023044
59.0,97.43137767011393,0.3721645296541859,0.6498281739137496,254.85088513638271
60.0,97.27794540539571,0.419706754647559,0.6494519664145184,255.82930831176594
61.0,97.10836548074364,0.47509093911839084,0.6490638471383047,256.8045087814472
62.0,96.92027408449071,0.5395789355622523,0.6486636488008385,257.77595807736685
63.0,96.71092208194636,0.6146525200013032,0.6482512783435952,258.74303745965045
64.0,96.47711039844705,0.7020498912881571,0.647826735052702,259.7050224399466
65.0,96.21511569313573,0.8038076722270281,0.647390131727028,260.66106493478003
66.0,95.92060457192818,0.9223086249430171,0.6469417193930408,261.61017261780216
67.0,95.5885353170711,1.060335977291711,0.646481915915032,262.55118520898213
68.0,95.21304600856487,1.2211345431695184,0.6460113388591446,263.48274741190573
69.0,94.78732814600815,1.4084787104548122,0.6455308428983234,264.40327826328934
70.0,94.30348525831724,1.6267470007177962,0.6450415619253456,265.31093674701333
71.0,93.75237659009208,1.881002366065187,0.6445449558502757,266.20358366732484
72.0,93.20100058280065,2.206627842758829,0.6440428619075321,267.0787398730545
73.0,93.15567607192943,2.7833546316991167,0.6435375491168164,267.93354191709847
74.0,93.2316862701992,3.449237495912788,0.6430317758861885,268.7646949834906
75.0,93.47026508048613,4.2182400597154395,0.6425288479190734,269.5684253423913
76.0,93.92396494570298,5.1061916124793605,0.6420326731888595,270.34043482288894
77.0,94.65943717938362,6.130913893787677,0.6415478120916674,271.07585854501787
78.0,95.7607589208582,7.312306047596341,0.6410795152915026,271.76923191629584
79.0,97.33342827043836,8.672376390783985,0.6406337454696177,272.4144695973498
80.0,99.50906471514658,10.235198875900778,0.6402171753484397,273.004862398348
81.0,102.45086799350481,12.026768301482587,0.6398371535740165,273.5330987398322
82.0,106.35987448602542,14.074738736089081,0.639501632538033,273.9913151365907
83.0,111.48197585594397,16.408023018314417,0.6392190505205104,274.3711818058078
84.0,118.11564519805421,19.056245555532417,0.638998164602796,274.66402612199795
85.0,126.62022322050284,22.049048479347636,0.6388478333758032,274.8609947683727
86.0,137.42456439178787,25.415267641229356,0.6387767536788316,274.953251302612
87.0,151.03576398135854,29.182012141697772,0.6387931611597211,274.9322015052866
88.0,168.04762669960832,33.373698557080935,0.6389045102303993,274.7897343227147
89.0,189.14849676797866,38.01110529466142,0.639117153866905,274.51846236950354
90.0,215.12805736872278,43.11052018202111,0.639436046557973,274.11194369914114
91.0,246.88273105814523,48.68305303470264,0.6398644937596117,273.56486652199067
92.0,285.41937594756587,54.73417313207639,0.6404039679188991,272.8731811698617
93.0,331.8570605496874,61.26351062180844,0.6410540048482586,272.0341686005056
94.0,387.4268081096364,68.26493411480442,0.6418121859862408,271.04644129179354
95.0,453.46931049287804,75.72688859388444,0.6426742032204471,269.9098794075009
96.0,531.4307075584267,83.63295311337171,0.6436339950342592,268.6255113815753
97.0,622.856598805804,91.96256038859796,0.644683936993281,267.1953525901405
98.0,729.3844940932624,100.69181220391937,0.6458150666708843,265.6222180372077
99.0,852.7349196996178,109.79432549244888,0.6470173230423253,263.9095249652513
100.0,994.701382785444,119.24205211514604,0.6482797827008273,262.0610994233463
101.0,1157.1393542953506,129.00602853464048,0.6495908786153446,260.08099786408866
102.0,1341.95440791593,139.05702560021916,0.6509385927217196,257.97335100956474
103.0,1551.0895884814058,149.36608364782984,0.6523106161188454,255.74223424956787
104.0,1786.5120857276106,159.90492774812662,0.6536944760826144,253.3915657575705
105.0,2050.1991775381825,170.64627459669666,0.6550776308680419,250.92503013133845
106.0,2344.123621672929,181.5640289764559,0.6564475356997634,248.34602742373434
107.0,2670.238136050782,192.63340463629234,0.657791684075291,245.65764091723764
108.0,3030.459581865122,203.83096240959742,0.6590976290655586,242.86262317886593
109.0,3426.651885917548,215.13460707891346,0.6603529897930537,239.96339295404704
110.0,3860.609281342178,226.5235229431317,0.6615454461915572,236.96204585527346
111.0,4334.038149394936,237.97809760345177,0.6626627274549396,233.86036798355883
112.0,4848.5384415389435,249.47981898393166,0.6636925960652987,230.65985593141545
113.0,5405.58538674397,261.0111581995535,0.6646228304938538,227.36174069331238
114.0,6006.510019401753,272.5554505038337,0.66544120876404,223.96701116598337
115.0,6652.480129645387,284.09677503989747,0.6661354943384239,220.47643913856174
116.0,7344.48113123245,295.61983471241285,0.6666934258188633,216.89060358646836
117.0,8083.299573031055,307.10984000482836,0.6671027115722106,213.20991511269398
118.0,8869.500793294093,318.55242273089397,0.6673510273808911,209.43463471652862
119.0,9703.401631140661,329.9335202699702,0.667426022981746,205.5648932292764
120.0,10585.094793896978,341.2392569376717,0.6673153351088597,201.60072377450393
121.0,11514.350926595936,352.4559775871318,0.6670065985076782,197.5420521497118
122.0,12490.714537043948,363.56999662619165,0.6664874776579203,193.38874595120265
123.0,13513.374129521177,374.56773475670303,0.6657456921199641,189.1405985191278
124.0,14581.251322438018,385.435476603627,0.6647690551469172,184.7973644304085
125.0,15692.933798990574,396.15946297832147,0.663545509892012,180.35875841950508
126.0,16846.66708366577,406.7257791415682,0.6620631982322698,175.82446980419712
127.0,18040.387933868762,417.12034900817883,0.6603104869449209,171.19417319426913
128.0,19271.68916625525,427.32895613333477,0.6582760407102083,166.4675351496924
129.0,20537.819931205064,437.3371495571448,0.6559489106957747,161.64422368331645
130.0,21835.722018087756,447.13030732712593,0.6533185511699192,156.72391386072871
131.0,23162.00368158831,456.6936067080883,0.6503749382089417,151.7062951395389
132.0,24512.959907144934,466.01204304390075,0.6471086398066014,146.59107732399357
133.0,25884.591209107246,475.0704457761246,0.6435108874383898,141.3779954412783
134.0,27272.62047190125,483.8535084644813,0.6395736526811595,136.0668142887237
135.0,28664.122793275095,494.80863356394383,0.6573134646458109,52.4911262884726
136.0,30117.867971943124,550.797737754895,0.6526829408183683,46.74870195922871
137.0,31811.313157292014,644.4751892538706,0.6454546071695713,43.760314889877
138.0,33895.45870694504,775.5384494492805,0.6372112726808202,41.68101335356909
139.0,36522.53034386949,945.4187272512779,0.6284144654241112,40.05494171498067
140.0,39849.577520385246,1155.7239424374395,0.6192740931948243,38.69924710049577
141.0,44037.39389999708,1407.7788650595112,0.6099082123197948,37.522954458614855
142.0,49247.79419709708,1702.4185370590578,0.6003925350607133,36.47474848793519
143.0,55640.04857713451,2039.8830022427578,0.5907802332117087,35.523175492133156
144.0,63366.96275403765,2419.7672767745676,0.5811112252358146,34.64776023092672
145.0,72570.88035583861,2841.0087012450317,0.5714170328207863,33.83454144609896
146.0,83379.71596813735,3301.903278804869,0.561723542085653,33.07363008780257
147.0,95903.326048662,3800.142616448333,0.552052668308456,32.35778848022384
148.0,110230.3189103232,4332.868920317188,0.5424234150996725,31.681560543872493
149.0,126425.05399906557,4896.740629950562,0.5328525646814075,31.040727070248135
150.0,144526.043386173,5488.00646276416,0.5233551482465841,30.431938973602904
151.0,164544.03663866787,6102.583430924102,0.5139447652475704,29.852482873038877
152.0,186461.58177261753,6736.139772633549,0.5046338214765727,29.30011053466629
153.0,210232.70591597565,7384.1735765296235,0.49543368429268353,28.77292703361798
154.0,235783.56682048956,8042.091856873607,0.4863548105763035,28.269307218221787
155.0,263013.7872487172,8705.283479548629,0.47740683084941643,27.787836112743857
156.0,291797.9991851364,9369.187952156522,0.46859861612088144,27.327267057180862
157.0,321988.2316564142,10029.357388709557,0.4599383323927558,26.886488829156853
158.0,353416.6227642363,10681.51098496483,0.45143348139587475,26.46450135989718
159.0,385898.34844912455,11321.582820690172,0.4430909324514266,26.0603974263524
160.0,419234.9138123797,11945.735402664448,0.43491695073572445,25.673348803642796
161.0,453206.3432995541,12566.770412607952,0.42691722752605726,25.302594587199476
162.0,487830.9525177162,13338.225237230045,0.41909689273219886,24.947432424692
163.0,523822.9223258271,14403.024952484031,0.41146054719517716,24.607211568659707
164.0,562443.3071266941,15885.616668017079,0.4040122799721429,24.281326945077012
165.0,605398.3402371212,17899.021652309944,0.39675568942781486,23.969214338626468
166.0,654753.2011838047,20542.84726940859,0.38969390415935873,23.67034636455336
167.0,712837.6503696163,23900.260259501843,0.3828296044039457,23.384229073541878
168.0,782144.8228342202,28035.33616603827,0.3761650432423863,23.11039902782129
169.0,865230.0897890654,32976.03773114916,0.36967100684008014,22.851133101706743
170.0,964432.4449769201,38675.40919946042,0.3632391590449322,22.615195494539478
171.0,1081761.579477067,45127.931615454836,0.35691044946211736,22.39809435136226
172.0,1218974.6796791502,52292.911713901805,0.3506875477421237,22.198853929632335
173.0,1377466.645259924,60113.598538062055,0.34457333389250583,22.016559994854116
174.0,1558232.3426643307,68520.31867251256,0.3385708697547492,21.850354489818752
175.0,1761848.4896620568,77433.72141967459,0.332683369389731,21.699430515280046
176.0,1988468.8130266927,86767.86059301157,0.3269141717578628,21.56302812275256
177.0,2237839.880885327,96433.06047722035,0.321266710070217,21.44043043356978
178.0,2509327.203035674,106338.50528665337,0.3157444844240139,21.33096001495857
179.0,2801951.1124993768,116394.47713272145,0.31035103432138833,21.2339759188721
180.0,3114432.8283567457,126514.22454937958,0.30508991237700295,21.14887058255164
181.0,3445241.035068945,136615.6602931454,0.29996465977579445,21.075067470185438
182.0,3792642.9684129283,146622.64334412556,0.2949787851476259,21.012018553451707
183.0,4154820.843309783,156592.03757816687,0.2901357436137342,20.959202188811847
184.0,4530631.541916908,166810.44643857397,0.2854389181166659,20.91612119360773
185.0,4920410.950915739,177710.85638551196,0.28089160589494455,20.88230101245478
186.0,5326399.983404842,189818.94252664916,0.27649700540221406,20.85728807808012
187.0,5752938.184029931,203711.78236962183,0.27225820672955603,20.840648296284094
188.0,6206484.698858679,219982.0391222781,0.268178184491142,20.831965646471733
189.0,6695501.396825446,239207.2155594273,0.2642597935088628,20.830840892978472
190.0,7230210.2847643625,262064.95305233615,0.26056067321173587,20.833146347389878
191.0,7823400.599781564,289277.03199742705,0.25716314752922054,20.833146346624147
192.0,8489321.06738214,321220.10959432216,0.2540319703116845,20.833146346624147
193.0,9242987.719438735,358276.1121315303,0.25116554363391946,20.833146346624147
194.0,10100022.911232717,400742.6270555292,0.24856228018979745,20.833146346624147
195.0,11076322.264956556,448831.2775260505,0.2462206338061604,20.833146346624147
196.0,12187758.505117022,502669.6651626861,0.24413912756734302,20.833146346624147
197.0,13449916.326451875,562306.2195896996,0.24231637937668016,20.833146346624147
198.0,14877888.899112137,627717.3828413052,0.2407511249950281,20.833146346624147
199.0,16486092.684757117,698816.2664944207,0.23944223750293508,20.833146346624147
200.0,18288170.85191743,775461.8786279109,0.238388746018982,20.833146346624147
201.0,20296902.28721122,857469.2999969185,0.23758984855371193,20.833146346624147
202.0,22524195.570168916,944619.2747988884,0.23704492536705898,20.833146346624147
203.0,24981075.64979587,1036666.4900614397,0.23675354754474512,20.833146346624147
204.0,27677754.381018966,1133418.9273895072,0.23671548231818917,20.833146346624147
205.0,30624188.489779092,1234948.0854678936,0.23693069698810357,20.833146346624147
206.0,33831436.90591284,1341746.0445257546,0.23739935846520352,20.833146346624147
207.0,37313540.74659048,1454811.4725904465,0.23812183329954908,20.833146346624147
208.0,41089569.4196749,1575700.1877862206,0.23909868000092005,20.833146346624147
209.0,45185776.88754511,1706534.97583125,0.24033064172054094,20.833146346624147
210.0,49637717.02646657,1850000.8035227978,0.24181863540541182,20.833146346624147
211.0,54492180.480122626,2009373.847966728,0.24356373735471576,20.833146346624147
212.0,59809703.876015574,2188709.106295828,0.24556716761287073,20.833146346624147
213.0,65667000.23841851,2392498.1479026168,0.24783026996479224,20.833146346624147
214.0,72158288.25024302,2625664.7592508537,0.25035449004921234,20.833146346624147
215.0,79396674.37375504,2893531.054153556,0.2531413506108738,20.833146346624147
216.0,87515390.44703674,3201771.2391611775,0.25619242417696664,20.833146346624147
217.0,96668878.29614353,3556368.725265995,0.2595093032297906,20.833146346624147
218.0,107033189.02209987,3964543.3886225536,0.2631214712769732,20.831624388567555
219.0,118815935.54634334,4431771.027971067,0.26699487081159773,20.830551369449495
220.0,132230478.18935479,4959003.451789821,0.2710006756566296,20.836858850251325
221.0,147496806.86562645,5550664.464859227,0.27513165733909817,20.850761677215388
222.0,164849756.6265394,6210848.877969902,0.2793805243739674,20.87246735883434
223.0,184537593.34068114,6943290.859649392,0.28373994658934687,20.902175928236005
224.0,206820369.86613017,7751342.064561576,0.2882025808248181,20.9400798233861
225.0,231968445.5000327,8637984.280423313,0.29276109754781915,20.986363781121014
226.0,260261155.0340521,9605999.567780646,0.2974082078480577,21.04120476184925
227.0,291985985.2865625,10658299.787774641,0.3021366908464565,21.104771865311452
228.0,327439913.99288946,11798323.370628122,0.3069394205563095,21.177226255799145
229.0,366931944.79074156,13030442.15356133,0.3118093911908693,21.25872115512188
230.0,410787023.3983248,14360365.937494459,0.3167397432530628,21.34940174754704
231.0,459351900.46576965,15795471.042211663,0.32172378494649284,21.449405232049116
232.0,513001954.4787995,17345100.835337874,0.3267550150300968,21.558860745514593
233.0,572148142.7245727,19020831.56240527,0.33182714040511213,21.67788943515882
234.0,637246374.0934677,20836834.398886375,0.3369340938419004,21.806604426348112
235.0,708805417.3835684,22809919.46164045,0.34207004730689056,21.945110900111285
236.0,787397092.3970685,24959516.010073133,0.3472294235353594,22.0935061160546
237.0,873662289.8452207,27307623.180488523,0.3524069050332412,22.25187948746243
238.0,968319897.7969824,29878668.93513702,0.3575974390789658,22.420312663649053
239.0,1072170125.0424609,32699360.881324414,0.3627962424926084,22.59887960185401
240.0,1186100675.9786713,35798433.49347175,0.3679988003530881,22.78764670723104
241.0,1311094393.2294886,39196092.24102325,0.3731670162073379,22.988305146478062
242.0,1448133373.3137555,42936233.837294966,0.3783359290470007,23.199028478629977
243.0,1598445569.9298544,47084107.06804623,0.3835904325872551,23.41557680262494
244.0,1763416095.9973228,51679993.71014088,0.3889266111050244,23.637985224527217
245.0,1944527328.1749713,56765573.02558302,0.3943404370969576,23.8662893868505
246.0,2143351372.7732637,62383605.83153243,0.39982777724324864,24.10052545795323
247.0,2361544116.112653,68577605.7243491,0.4053843965627449,24.340730143406393
248.0,2600829789.893721,75391536.28982916,0.41100596536374623,24.5869407093073
