Time,J,A,S,tau
0.0,100.0,10.0,0.588967700022917,57.409870512395976
1.0,99.7374511228079,8.983905576957278,0.5876413132816555,58.40447064191306
2.0,99.47825055821427,8.073002855151504,0.5863268613225352,59.399399416493566
3.0,99.22239183650849,7.256626937766794,0.5850236278477436,60.394507769414
4.0,98.9695806548357,6.524931984958254,0.5837308158712683,61.389774752294706
5.0,98.71953732854368,5.869111772197564,0.5824476390638799,62.3851809932642
6.0,98.47199503598287,5.281280084815893,0.5811733214927702,63.38070847913106
7.0,98.22669827694695,4.754382414736413,0.5799070973148021,64.37634036432046
8.0,97.98340147948416,4.282105352270324,0.5786482104268628,65.37206079818353
9.0,97.74186766593854,3.8587947831190235,0.5773959140053919,66.36785476145027
10.0,97.5018672688365,3.479393051290535,0.5761494700565615,67.36370792011236
11.0,97.26317701424041,3.1393715244261733,0.5749081489298182,68.35960648747091
12.0,97.02557885269647,2.8346751984395153,0.5736712287775213,69.35553709262639
13.0,96.78885897737223,2.561677002737624,0.5724379950510523,70.35148665756829
14.0,96.55280686386592,2.317128581948942,0.5712077399673087,71.34744227652266
15.0,96.31721434376448,2.098122563936918,0.5699797619706698,72.34339109856492
16.0,96.08187470842628,1.9020588962630929,0.5687533652402098,73.33932021082593
17.0,95.84658181152281,1.7266096417101529,0.567527859183207,74.33521652065507
18.0,95.61112918010426,1.5696930796601314,0.5663025579625668,75.33106663619704
19.0,95.37530910648721,1.4294486027267708,0.5650767800741926,76.3268567403852
20.0,95.13891172721131,1.304212152996006,0.5638498479369037,77.32257246158998
21.0,94.90172406946435,1.1924981330684477,0.562621087545335,78.31819873542365
22.0,94.6635290333501,1.0929808259963318,0.5613898281868924,79.31371965272058
23.0,94.42410436394728,1.0044777581007704,0.560155402196423,80.30911830413343
24.0,94.18322148497327,0.9259371053620806,0.5589171448228306,81.3043765968308
25.0,93.94064433169913,0.856422658440565,0.5576743941479311,82.29947506903943
26.0,93.69612799208824,0.7951053522555375,0.5564264911358788,83.29439266755325
27.0,93.44941732261037,0.7412506427796416,0.555172779773234,84.28910651746287
28.0,93.20024532107227,0.6942126464785221,0.5539126073636108,85.28359164585257
29.0,92.94833146920026,0.6534239225909472,0.5526453249458144,86.27782069549757
30.0,92.69337970966345,0.6183906768754753,0.5513702879269424,87.2717635700543
31.0,92.43507642461302,0.5886863365109127,0.5500868568548426,88.26538707397657
32.0,92.17308797623559,0.5639459984390641,0.5487943984741185,89.25865446877405
33.0,91.90705798404798,0.5438637961833962,0.5474922870311223,90.25152497635723
34.0,91.63660446317024,0.5281883806839441,0.5461799058152246,91.2439532492568
35.0,91.36131634297122,0.5167206625775123,0.5448566491176533,92.23588872187023
36.0,91.080749704984,0.5093117508790252,0.5435219245227448,93.22727490116165
37.0,90.79442362235372,0.5058613439209849,0.5421751555868144,94.21804857476504
38.0,90.50181397903006,0.5063222496000351,0.5408157857120459,95.20813863948058
39.0,90.20235057454371,0.5106909669661516,0.5394432807531255,96.19746551130154
40.0,89.89540839994388,0.5190140623253279,0.5380571346945181,97.18593945577825
41.0,89.58030176244415,0.5313902373165492,0.5366568742622326,98.17345942332967
42.0,89.25627599674601,0.5479727263101277,0.5352420651077058,99.1599114172346
43.0,88.92249822355872,0.5689681882970139,0.5338123189706194,100.1451666512779
44.0,88.57804697226825,0.5946455733936181,0.5323673017757297,101.12907947968455
45.0,88.22190076298827,0.6253390284633649,0.5309067427938874,102.11148509260431
46.0,87.85292466985935,0.6614532355118493,0.5294304454678436,103.09219679303492
47.0,87.46985572116333,0.7034709272130111,0.527938299372451,104.07100301563081
48.0,87.07128564821826,0.7519604003993678,0.52643029439106,105.04766378557217
49.0,86.6556418602815,0.8075863079613489,0.5249065365345605,106.0219067847966
50.0,86.23174681314349,0.8766460277059079,0.5233672647920312,106.99342318454634
51.0,85.96264178476686,1.0389846554793647,0.5218128715671446,107.96186254156999
52.0,85.71225267071856,1.2176436733308758,0.5202439244692331,108.92682736709331
53.0,85.48499378153139,1.4147026195086325,0.5186611906736587,109.88786702321967
54.0,85.28618613829106,1.6325071130799191,0.5170656634701083,110.8444710393035
55.0,85.12223494572847,1.8736983138279026,0.515458591068753,111.79606180752103
56.0,85.00084366036334,2.141244854949965,0.5138415073008598,112.74198672935155
57.0,84.93126912641077,2.438476546826849,0.5122162642433751,113.68150977466603
58.0,84.9246254895674,2.7691179510857453,0.5105850652825429,114.61380280224981
59.0,84.9942422640384,3.1373217192374434,0.5089504983607633,115.53793666445743
60.0,85.15608738025038,3.5477000322707353,0.5073155680566731,116.45287239551115
61.0,85.42926603611804,4.005352578426864,0.505683725115549,117.35745278186363
62.0,85.83660252485747,4.515887708062328,0.5040588905063412,118.25039501226914
63.0,86.405311605645,5.08543448827135,0.5024454718430726,119.13028490684763
64.0,87.16777229902003,5.720642374322443,0.5008483693159984,119.99557340152533
65.0,88.16241071968571,6.428665324560554,0.4992729681112801,120.8445760038652
66.0,89.4347085935969,7.217124924824197,0.49772511274285886,121.67547635812456
67.0,91.03829284264117,8.09404834046896,0.4962110588602857,122.48633512928672
68.0,93.03616877896648,9.067781019667114,0.49473740264450805,123.27510403736048
69.0,95.50205204952498,10.146866913845804,0.4933109812383581,124.03964689405203
70.0,98.52171534368131,11.33989911355283,0.49193874548531785,124.77776750010698
71.0,102.19451251245425,12.655338859071005,0.49062760475966016,125.48724425113092
72.0,106.63473673307703,14.10131212445007,0.4893842487784108,126.16587096768417
73.0,111.97315520064916,15.685381732173337,0.48821494747032906,126.81150307445239
74.0,118.35820807806193,17.414319485206967,0.4871253468999851,127.42210577608894
75.0,125.95732566711925,19.293870134117803,0.48612025680671084,127.99580431358875
76.0,134.95774686851803,21.328549233587665,0.4852034641445833,128.53092916742864
77.0,145.5673621006974,23.521454600298487,0.48437755667972754,129.02605875256208
78.0,158.014952711666,25.87414494657581,0.4836438030025024,129.48004961380997
79.0,172.55034771680795,28.386551120214666,0.4830020590064096,129.8920599115639
80.0,189.44396995343848,31.056971641826816,0.48245074775275976,130.2615559863181
81.0,208.98620942964968,33.88210817724196,0.4819868725292539,130.58831036469638
82.0,231.48628058013668,36.85717761219892,0.48160609869627335,130.87238358608488
83.0,257.2708521698414,39.976056214567805,0.48130286258233684,131.11409886741077
84.0,286.68232038235254,43.231472273450606,0.4810705262218614,131.3140058653889
85.0,320.07683600944836,46.61521237900966,0.4809015438673351,131.47284106095242
86.0,357.8221392845541,50.11834151632115,0.4807876447937535,131.59148424948597
87.0,400.2951572871256,53.73141664165489,0.4807200110171508,131.67091595259564
88.0,447.87952517544045,57.44468672000374,0.4806894472171596,131.7121767030045
89.0,500.96290063856685,61.24827152205859,0.4806865333025613,131.71633048873397
90.0,559.9342443391514,65.13231342118867,0.4807017565780168,131.68443306597683
91.0,625.1809215958548,69.08710210226415,0.48072562130242524,131.61750589178106
92.0,697.0858123936333,73.10316855003737,0.48074873505405935,131.51651577562805
93.0,776.0241939137361,77.17135714034907,0.48076187501683365,131.38235927902497
94.0,862.3606502966618,81.28286956161872,0.4807560333435829,131.21585262237537
95.0,956.4458838897215,85.42928939559229,0.48072244621902466,131.0177255705024
96.0,1058.6133522586679,89.60259278916062,0.48065261087567895,130.78861826648696
97.0,1169.175904593245,93.79514218994217,0.48053829024504824,130.52908142553468
98.0,1288.4223170648743,97.99967336464225,0.48037151065924966,130.239578272611
99.0,1416.61379170657,102.20927097723671,0.4801445528056835,129.92048846014794
100.0,1553.9805093850855,106.4173434052817,0.4798499397951589,129.57211277870212
101.0,1700.7179411689306,110.61759397736806,0.47948042419463743,129.1946783034292
102.0,1856.9829324183854,114.80399036529558,0.4790289745750792,128.78834396028006
103.0,2022.8905064403207,118.97072739770728,0.47848875854783723,128.3532076279009
104.0,2198.513150062554,123.11219766834498,0.47785312390121715,127.88931333910347
105.0,2383.868281640864,127.22298724624143,0.47711561719827483,127.39664920418188
106.0,2578.931374612426,131.2977936845888,0.4762699213569441,126.8751676547834
107.0,2783.611953747844,135.33147556398788,0.47530991750210144,126.32477252393947
108.0,2997.774041404633,139.31895022437286,0.4742296102489499,125.74534221173137
109.0,3221.2106503578816,143.25525068722607,0.47302319573908896,125.13671780224469
110.0,3453.662288742559,147.13544405656094,0.4716850047046343,124.4987203684872
111.0,3694.8019082515048,150.95465909361596,0.47020954516839014,123.83114655024214
112.0,3944.235467518181,154.70805589706842,0.4685915048344221,123.13377478562253
113.0,4201.508205559024,158.3908195426513,0.46682574158897383,122.40636941526677
114.0,4466.096577663277,161.9981608716114,0.4649073187298572,121.64868167086111
115.0,4737.410290982612,165.52529825406077,0.4628315150558607,120.86045362201739
116.0,5014.798534777024,168.96746524870133,0.46059382271416294,120.04142043300395
117.0,5297.543878025199,172.3199053006818,0.45818999235295066,119.19131213139397
118.0,5584.867613367526,175.57787421454952,0.4556160441788927,118.30985602050468
119.0,5873.323621697897,178.27676406025824,0.5346191722564336,53.76456142732811
120.0,6167.045411370595,191.72769915517222,0.5426269795572373,47.13525807162387
121.0,6490.47230925646,212.43130703346873,0.5435524126998215,43.73285549527814
122.0,6860.947284952507,240.19715890523756,0.5417932090619164,41.4176128511684
123.0,7295.574094938505,275.26826372726606,0.5386210514817592,39.641928358257886
124.0,7811.992162034731,317.9850731294863,0.5345930016134391,38.18458595904353
125.0,8428.451707977349,368.6873078103223,0.530006338126913,36.93516846734332
126.0,9163.643368375971,427.6678536938346,0.5250394644676541,35.83130204384481
127.0,10036.430946221684,495.14445045974094,0.5198081661933858,34.834745371132236
128.0,11065.473740776999,571.2417891598471,0.5143918371729383,33.92067267853901
129.0,12268.819547205736,655.9791322532928,0.5088471881376796,33.072261019011655
130.0,13663.458839441751,749.2628599424735,0.5032160208615297,32.2777211602833
131.0,15264.884521461276,850.8831854509227,0.4975299474034282,31.528554092337256
132.0,17086.621776200707,960.514348727619,0.4918133676178649,30.81848774989254
133.0,19139.85487806372,1077.717788620123,0.4860854733914776,30.142784643553835
134.0,21432.985723870024,1201.9481197069936,0.48036159070490436,29.497796970756674
135.0,23971.343490105606,1332.561759071513,0.4746541563571434,28.880653877030888
136.0,26756.926953533493,1468.8267875982167,0.468973396058148,28.289052227170732
137.0,29788.204910100085,1609.9346235018036,0.4633278259976232,27.721108488495037
138.0,33059.98650622491,1755.0127077891211,0.45772462321105534,27.17525354729134
139.0,36563.378823723906,1903.1381487945662,0.452169907824252,26.650156289246922
140.0,40285.840945727294,2053.351522353301,0.44666895368642373,26.144668159415268
141.0,44211.304058969756,2204.6707234168703,0.4412263487507464,25.65778281110249
142.0,48320.36429559658,2356.1046024560205,0.4358461182862566,25.188606216675318
143.0,52590.59179133155,2506.6085971194843,0.4305318198574601,24.73633455442934
144.0,56993.94730173886,2655.891989723097,0.42528662166088826,24.300237284828793
145.0,61511.16291996131,2827.1065704773814,0.4201133542927582,23.879644033096657
146.0,66186.7842400686,3039.6304353184637,0.41501456371558393,23.473935441477057
147.0,71110.96841442902,3310.597371229573,0.4099925457332039,23.082535426001492
148.0,76410.91239252346,3656.9115593456518,0.40506885738500176,22.703241534256158
149.0,82248.61607140716,4088.6318750221535,0.4001167146157628,22.346364015104157
150.0,88792.6243101138,4612.661769822186,0.3950547455589995,22.01744664009154
151.0,96214.86133297313,5235.351362927784,0.3898833856951484,21.715039319592126
152.0,104685.11909031996,5959.918487435394,0.3846037753649298,21.437795206770282
153.0,114361.77044368537,6786.427589982466,0.37921776511542926,21.184460674269225
154.0,125383.26183986764,7711.903735085361,0.3737279129524505,20.953866566932167
155.0,137861.21001259872,8730.548983208122,0.368137474789294,20.744920663932998
156.0,151874.5807714097,9834.079274999196,0.36245038512660066,20.556600603105306
157.0,167466.07412115368,11012.084161268987,0.356671236751263,20.38794826677368
158.0,184639.6422825583,12252.467882948971,0.3508052495406309,20.238064114588088
159.0,203360.2423747185,13541.872567718072,0.3448582376071777,20.106102605603464
160.0,223554.48261975724,14866.121515741217,0.3388365709496766,19.991267839206255
161.0,245113.32009205082,16210.625442810733,0.3327471305906909,19.89280962578998
162.0,267895.22881016484,17560.76751758671,0.3265972645996709,19.81002014439752
163.0,291730.90104473365,18902.07317554251,0.32039473446506234,19.742230539942668
164.0,316426.26169824816,20221.23116789556,0.31414766577578224,19.68880830917942
165.0,341770.75918996026,21523.37656820941,0.3078644907019383,19.649154428704612
166.0,367588.05293976236,22831.881203659555,0.301553893036597,19.622701168849158
167.0,393771.64788308594,24179.738730581532,0.2952247492898362,19.60890973499554
168.0,420296.1090133296,25604.25734842764,0.28887971289175834,19.607689668801044
169.0,447230.10628637986,27178.629384544598,0.2826917909125379,19.607689668801044
170.0,474795.2958990565,28948.15276150475,0.2766809666061915,19.607689668801044
171.0,503286.5255457993,30952.012076256637,0.2708484953179193,19.607689668801044
172.0,533053.4505249147,33224.46805371529,0.2651953308786009,19.607689668801044
173.0,564482.3247505777,35793.01610434752,0.25972213980320696,19.607689668801044
174.0,597977.3142602643,38677.07721616078,0.25442931666770985,19.607689668801044
175.0,633939.8231179239,41887.17628123312,0.2493170000057226,19.607689668801044
176.0,672749.5173636917,45424.68898812689,0.244385090439686,19.607689668801044
177.0,714748.7153984585,49281.953415898715,0.23963326641464402,19.607689668801044
178.0,760225.5100538916,53442.80284925629,0.23506100329565577,19.607689668801044
179.0,809403.827534334,57883.43009149271,0.23066759175564305,19.607689668801044
180.0,862436.1209566487,62573.43356212608,0.22645215546016387,19.607689668801044
181.0,919398.7049626923,67477.02862155101,0.2224136697602761,19.607689668801044
182.0,980290.7675782266,72554.32851962512,0.2185509800237367,19.607689668801044
183.0,1045036.3991572717,77762.54341276649,0.21486281978319316,19.607689668801044
184.0,1113488.4370861636,83057.63286883227,0.21134782860375817,19.607689668801044
185.0,1185434.7909905436,88402.89635396661,0.2080045695791333,19.607689668801044
186.0,1260622.2117594087,93777.38961843667,0.20483154614506877,19.607689668801044
187.0,1338796.2362105248,99178.72285592512,0.20182721930403172,19.607689668801044
188.0,1419739.4608092352,104623.40818950713,0.1989900231765062,19.607689668801044
189.0,1503301.3940773683,110157.44252086704,0.19631837984360162,19.607689668801044
190.0,1589458.2467852507,115844.26172597763,0.19381071452711213,19.60768966880102
191.0,1678332.714406231,121757.75857531179,0.19146546969342654,19.607689651516324
192.0,1770201.0152490712,127978.82050259924,0.18928106117272753,19.607693435274342
193.0,1866756.8747688998,132839.74754355848,0.1856073769398909,19.719664727824814
194.0,1962849.8052916771,125076.00858880271,0.1703991132069362,20.669115685570816
195.0,2034842.289949038,117073.24910175594,0.15580045918386612,21.66905612746229
196.0,2085114.4133717855,109579.96275959027,0.1424452922162586,22.669052861451178
197.0,2116689.5716918097,102566.20975995886,0.13023467142721237,23.66904980445786
198.0,2132261.1996798697,96002.92037415339,0.11907586580679719,24.669044633857585
199.0,2134034.247339212,90120.7658178309,0.1091255650602401,25.64082853245628
200.0,2124121.7993518906,91821.88655777485,0.10658895532361563,25.811191314585592
201.0,2120078.1518896855,95426.89125386771,0.10562852975100019,25.81120421171763
202.0,2124174.3876662236,99446.9564040482,0.10478548542790686,25.811204205920152
203.0,2136724.8384408704,103921.91123749987,0.1040583741729705,25.81120420592013
204.0,2158118.432214141,108886.7905852035,0.10344603065079808,25.81120420592013
205.0,2188806.082794261,114371.08032623319,0.10294746518077076,25.81120420592013
206.0,2229291.028722044,120398.35506499816,0.10256186631262389,25.81120420592013
207.0,2280116.418502018,126986.21309062466,0.10228860233931279,25.81120420592013
208.0,2341858.5463621547,134146.38125445906,0.10212722391771449,25.81120420592013
209.0,2415117.54565809,141885.06281280145,0.10207746474811141,25.81120420592013
210.0,2500509.9439123063,150203.4115514171,0.10213924214279158,25.81120420592013
211.0,2598662.588803485,159099.21621354416,0.10231265721741689,25.81120420592013
212.0,2710210.4955025055,168570.27429688818,0.10259799463627772,25.81120420592013
213.0,2835801.8338996614,178618.34913326017,0.10299572190864359,25.81120420592013
214.0,2976110.5845290376,189253.03160630204,0.10350648822858217,25.81120420592013
215.0,3131856.427042399,200496.94635501434,0.10413112284588115,25.81120420592013
216.0,3303835.374033029,212390.08066915954,0.1048706329510489,25.81120420592862
217.0,3492957.6844706256,224991.8385468501,0.10572620105122811,25.81120420597489
218.0,3700284.095162301,238383.88336405886,0.10669956288151065,25.811164183209293
219.0,3842471.0404051277,450302.2956427297,0.1876957257616752,19.617957476093057
220.0,4519844.241190894,458511.47121774347,0.18994168062284641,19.6077249989287
221.0,5175804.914184277,467885.60108799994,0.1921757325411108,19.607724924732853
222.0,5816686.368959903,478952.9666847872,0.19457111241804967,19.607724924732654
223.0,6449211.624602327,491901.9289488547,0.19712935719763913,19.607724924732654
224.0,7080141.879926976,506942.421503697,0.19985202859505702,19.607724924732654
225.0,7716359.103386328,524305.4075288282,0.20274070086009072,19.607724924732654
226.0,8364937.750994919,544242.6457522355,0.20579694676141286,19.607724924732654
227.0,9033232.651627067,567025.9195832256,0.20902232267933962,19.607724924732654
228.0,9728944.727258313,592946.960627212,0.21241835305728243,19.607724924732654
229.0,10460198.140285866,622316.925531155,0.21598651444274955,19.607724924732654
230.0,11235607.27089299,655466.5562687066,0.21972821847456986,19.607724924732654
231.0,12064345.900716914,692746.481221993,0.22364479519244518,19.607724924732654
232.0,12956218.499607027,734529.4017571622,0.2277374747223194,19.607724924732654
233.0,13921727.194959786,781213.7627979376,0.23200737023766993,19.607724924732654
234.0,14972162.387529777,833229.9008835575,0.23645545860970782,19.607724924732654
235.0,16119683.60783014,891048.6821182708,0.24108256342000245,19.607724924732654
236.0,17377452.435014136,955193.4771801882,0.24588933497953233,19.607724924732654
237.0,18759752.130325764,1026253.869719912,0.25087623379071966,19.607724924732654
238.0,20282179.606425315,1104905.8715516757,0.2560435106287772,19.607724924732654
239.0,21951110.61915318,1265793.4890106274,0.2613911906310352,19.607724924732654
240.0,24032579.651704527,1471383.7917373201,0.2669190535439876,19.607724924732654
241.0,26580323.056153595,1680722.514530845,0.27262661904679386,19.607724924732654
242.0,29590897.897815578,1895559.4963703759,0.27851313089753627,19.607724924732654
243.0,33066794.209780283,2117804.251218091,0.2845775399828288,19.607724924732654
244.0,37016541.15751223,2349556.337232829,0.2908184924916418,19.607724924732654
245.0,41455497.31577279,2591403.618693015,0.2971354986427096,19.612301713796843
246.0,46398031.743416086,2842315.5997225405,0.3033506676409792,19.62944612824974
247.0,51858351.23304358,3104283.4076601383,0.30947031734902825,19.65852867402457
248.0,57855903.94576135,3379139.295269442,0.3154869811905722,19.699592253778235
