Time,J,A,S,tau
0.0,100.0,10.0,0.8709096957286717,17.712604361114547
1.0,109.57894754269499,14.155900094780751,0.8705468515647816,18.520209275195366
2.0,123.86408382297198,18.16244066240788,0.8701768653888412,19.331204756219613
3.0,142.61942032712813,22.028282537579752,0.8698003275235193,20.145351514801025
4.0,165.6276361419057,25.761359161337815,0.8694177695734171,20.962431520796535
5.0,192.6888653278908,29.36923528709712,0.8690296994042036,21.782232678600568
6.0,223.61959065187716,32.8591292193756,0.8686366024489476,22.6045484584909
7.0,258.2516974731822,36.23793273270918,0.8682389430098822,23.429177538129622
8.0,296.43148358796566,39.51223210871204,0.8678371656690614,24.25592342446411
9.0,338.01893267642635,42.688324997845,0.8674316966068905,25.084594104233013
10.0,382.8867948085769,45.77224122693389,0.8670229451657018,25.915001639731887
11.0,430.9199447964296,48.76975869275671,0.8666113052172165,26.746961816209172
12.0,482.0147016811171,51.686420461884126,0.8661971566555623,27.58029376195224
13.0,536.078223841542,54.527550701407996,0.8657808668678605,28.414819576200536
14.0,593.0279626670552,57.29826982523639,0.8653627922090152,29.250363957742117
15.0,652.7911376245452,60.00350952157716,0.86494327950768,30.08675382728765
16.0,715.3041077407008,62.64802970286042,0.8645226676507208,30.923817933828506
17.0,780.5122385723039,65.23642706261481,0.8641012888841214,31.76138652726223
18.0,848.369693544027,67.7731453092601,0.8636794702712299,32.59929098696782
19.0,918.8380799353148,70.26250412797263,0.8632575355594635,33.437363375872344
20.0,991.8873832577384,72.70869098431133,0.8628358061627713,34.27543617478693
21.0,1067.4951823712172,75.1157818493837,0.8624146030612075,35.11334180879003
22.0,1145.645736532248,77.48775984519297,0.8619942478074208,35.95091241817082
23.0,1226.3313967811328,79.82850611725405,0.861575064701349,36.78797927003078
24.0,1309.550326054633,82.14183495678432,0.8611573812658659,37.624372684419605
25.0,1395.3085331684981,84.43147907311365,0.8607415309129505,38.45992131749061
26.0,1483.6178466249285,86.70111978921202,0.8603278532728227,39.29445210851818
27.0,1574.4970281510666,88.95438269084102,0.859916696248651,40.12778973964204
28.0,1667.9713835434447,91.19485238807113,0.8595084178595239,40.95975615906986
29.0,1764.0720501257383,93.42608104625171,0.8591033857811395,41.790170718190005
30.0,1862.8376656716919,95.6515926625395,0.8587019827098661,42.61884874325238
31.0,1964.3118365332537,97.87489625478926,0.8583046018958062,43.44560273843706
32.0,2068.546145075394,100.09948911501547,0.8579116558498217,44.27024005494391
33.0,2175.5969643845096,102.3288656075252,0.8575235693295714,45.0925647690091
34.0,2285.5289537333683,104.56652548482086,0.8571407901686993,45.91237476588165
35.0,2398.4115272569616,106.81597525697809,0.8567637800356278,46.72946421458451
36.0,2514.3227458307315,109.080743155901,0.8563930273644471,47.54362005337569
37.0,2633.3455157397075,111.36437162150078,0.8560290358666283,48.354625081207004
38.0,2755.5717843332636,113.67043999430201,0.8556723394323006,49.16225385173141
39.0,2881.098570322974,116.00254703392744,0.8553234885257258,49.9662763679903
40.0,3010.0323455926773,118.36434184447027,0.8549830667303726,50.76645343437251
41.0,3142.4850211164194,120.75949598849827,0.8546516753499934,51.562540896604844
42.0,3278.578379528881,123.19174224895865,0.8543299510373925,52.35428455428277
43.0,3418.440153095117,125.66483670378963,0.854018549111828,53.14142484277488
44.0,3562.208359559428,128.18260417298475,0.8537181615229075,53.92369145132943
45.0,3710.0276191116754,130.74889111272842,0.8534294995171077,54.70080831397446
46.0,3862.0532322084637,133.3676160997741,0.853153311049862,55.47248810942667
47.0,4018.44789490862,136.04271470558228,0.8528903635155781,56.23843740598411
48.0,4179.385341176208,138.77819305828754,0.8526414596235392,56.998351243787354
49.0,4345.047628722887,141.57806596937533,0.8524074209380993,57.75191826466938
50.0,4515.628151847223,144.44641152191073,0.8521891011960199,58.49881559191239
51.0,4691.329680591879,147.3873036122334,0.8519873713687803,59.238713772833925
52.0,4872.366536000002,150.40486568950828,0.8518031294428441,59.97127217244969
53.0,5058.963571042338,153.5031985105343,0.8516372875955334,60.69614356719933
54.0,5251.357291396511,156.68643164577358,0.8514907776087347,61.41297025315137
55.0,5449.795963767643,159.95864660459884,0.8513645405265996,62.1213881563695
56.0,5654.539465625341,163.32392556048111,0.8512595271484973,62.82102382013977
57.0,5865.860691303484,166.78626908550075,0.8511766901990573,63.51149794286217
58.0,6084.043927785733,170.34964274124022,0.8511169797626779,64.19242334995099
59.0,6309.38769709891,174.01788749654656,0.8510813375415442,64.8634079341042
60.0,6542.201486760782,177.7947663503362,0.8510706876553288,65.52405363559839
61.0,6782.8101142759015,181.68386417132788,0.8510859320020223,66.17395884041346
62.0,7031.548694736822,185.68863827989767,0.8511279375394826,66.81271828992041
63.0,7288.768536022253,189.81230307206295,0.8511975311263718,67.43992508484956
64.0,7554.830306142263,194.05789034015945,0.851295485192002,68.05517132765422
65.0,7830.111363585863,198.42811281072142,0.8514225097702336,68.65804997673564
66.0,8114.997195796244,202.92544171014382,0.8515792392906767,69.24815590178478
67.0,8409.889957675172,207.5519424898042,0.8517662188976134,69.82508792197292
68.0,8715.198390194877,212.3093784660488,0.8519838958741784,70.38844983981873
69.0,9031.347184068198,217.1990117838935,0.8522325968484812,70.9378530658996
70.0,9358.765750681314,222.22174257077714,0.8525125279881131,71.47291710653572
71.0,9697.897854146131,227.37786884826096,0.8528237394318913,71.99327321194973
72.0,10049.188982308637,232.66725745333864,0.8531661306037078,72.49856444402664
73.0,10412.748333531765,238.4445856773105,0.8535609084333259,72.93929729816026
74.0,10781.713835964441,275.8795285496285,0.8549726642175618,71.16040858628658
75.0,11217.010971708976,346.8844062107245,0.8565497081087257,69.16142084153404
76.0,11781.336532237034,453.3752861834279,0.8582897874244153,66.94278342180183
77.0,12543.473195168528,596.6003209487694,0.8601827521099716,64.51574805397188
78.0,13577.271948919755,776.8480073349061,0.8622088077165668,61.90495546704278
79.0,14959.966203321534,993.2085790445542,0.8643377805656309,59.14939593651771
80.0,16769.86323826725,1243.4753464657495,0.8665300418001846,56.30069429785506
81.0,19083.65409134834,1524.253559645793,0.8687393447095612,53.41838783035097
82.0,21973.767362877352,1831.2820891243905,0.8709171344333538,50.563096555035344
83.0,25506.21531708539,2159.8907783241757,0.8730172550470834,47.78950314609038
84.0,29739.292805544348,2505.4718070203376,0.8749998350357211,45.141141188398734
85.0,34723.20777241325,2863.8526660689677,0.8768335662063113,42.64804367947765
86.0,40500.51221517851,3231.5158421913857,0.8784962600926267,40.32710715963483
87.0,47107.03745525615,3605.669502786163,0.8799740703751576,38.184250825381675
88.0,54573.05492691585,3984.2135855516394,0.8812600558027174,36.217209181595116
89.0,62924.440073256425,4365.6427985792825,0.882352469330913,34.41832028872533
90.0,72183.71512808547,4748.929947621815,0.8832532267602413,32.77675823132888
91.0,82370.86894536769,5133.414428121914,0.8839666335874603,31.280196154057215
92.0,93504.01834439061,5518.701789346368,0.8844984212915714,29.915918431667123
93.0,105599.85785917286,5904.583866326876,0.8848550491727096,28.671525267877467
94.0,118673.96416260731,6290.975681735112,0.885043227681589,27.535332328931545
95.0,132740.97544926035,6677.867296589288,0.8850696079925433,26.4965673929925
96.0,147814.6698605528,7065.28769625322,0.8849405900428619,25.545439238938087
97.0,163907.96271391143,7453.277975366961,0.8846622128328844,24.673130119715466
98.0,181017.7935277519,7870.244595666184,0.884240099836532,23.87174910438112
99.0,199243.1571697606,8538.354315165026,0.8836794458580282,23.134241069280396
100.0,219303.19866962553,9719.230140053842,0.8829850155180468,22.454328474024912
101.0,242600.271907509,11640.266482488887,0.8821611653816546,21.82642250760181
102.0,271155.13038195716,14481.654398480725,0.8812118709977985,21.245546569188544
103.0,307497.8298652754,18364.828490690415,0.880140757898139,20.70726583867622
104.0,354522.18722443667,23351.07268045613,0.8789511339863942,20.207623767498152
105.0,415331.5511017429,29450.48186084718,0.8776460217785601,19.743085445172674
106.0,493103.4495948608,36636.24286060969,0.8762281895172517,19.310487720649142
107.0,590987.640291983,44858.69229045663,0.8747001806533165,18.9069953836585
108.0,712037.6857986386,54056.17612793891,0.8730643414263257,18.530062849413397
109.0,859169.101220796,64162.23531383563,0.8713228464628362,18.177400576492044
110.0,1035134.6771237585,75109.85391488165,0.8694777224017732,17.84694596558229
111.0,1242511.0914301316,86833.68909719236,0.8675308696741525,17.53683769919013
112.0,1483691.0913530441,99271.06567791938,0.8654840824382972,17.245393520728843
113.0,1760878.5030628252,112362.25124630761,0.8633390669587532,16.97109074289641
114.0,2076084.9046228386,126050.32533510393,0.8610974583249082,16.712549123312513
115.0,2431090.209875148,140372.13535139785,0.8587608367598256,16.468515874834853
116.0,2827937.18856978,156195.25013176107,0.8563307401180159,16.23785236383926
117.0,3271910.2834396195,175558.44439678424,0.8538086783649457,16.01952261170887
118.0,3775077.3344887234,201364.96381330054,0.8511961452564675,15.812582982706385
119.0,4358894.624035512,237002.17467680332,0.8484946294764247,15.616173085570528
120.0,5055647.431823705,285961.5915253623,0.845705624857068,15.429507703252044
121.0,5908715.129979931,351536.52594648325,0.8428306398194909,15.25186960353514
122.0,6971894.820382579,436633.5245199709,0.8398712061225062,15.082603152131032
123.0,8308131.409112094,543684.3459261671,0.836828886840094,14.921108581864079
124.0,9987928.870610662,674624.75637599,0.8337052837888341,14.766836887652394
125.0,12087656.90939049,830909.6341260998,0.830502044273144,14.61928522570763
126.0,14687846.238008266,1013544.493549406,0.8272208673026565,14.477992788486246
127.0,17871543.26660042,1223122.2898281575,0.8238635092227826,14.342537083779876
128.0,21722729.107714333,1459860.3385110672,0.820431788852416,14.212530580224431
129.0,26324828.978805095,1723664.2411054634,0.8169275920672012,14.08761768045195
130.0,31759468.067939855,2015338.5404787236,0.8133528758990596,13.967471959763332
131.0,38111434.466362946,2340692.841262744,0.8097096721845212,13.85179368823217
132.0,45488529.15975468,2714443.5805275906,0.8060000906201267,13.740307564658137
133.0,54053380.168395646,3162095.2585052038,0.8022263214079203,13.632760649025947
134.0,64060307.291775174,3719848.735511251,0.7983906374911811,13.52892050145148
135.0,75890454.5755503,4432980.821648732,0.7944953962417997,13.428573468458891
136.0,90080206.18798018,5353386.6769414935,0.7905430407097251,13.331523124339354
137.0,107340198.40867946,6536866.819613285,0.7865361004167458,13.237588846877854
138.0,128564171.73793963,8040520.186470514,0.7824771916978395,13.146604515131367
139.0,154828073.85236675,9920414.970724756,0.7783690175950843,13.058417317870694
140.0,187380402.86349702,12229596.061468065,0.7742143673098457,12.972886662523514
141.0,227625011.85819042,15016432.344150294,0.7700161152198968,12.889883175527668
142.0,277097668.71232563,18323317.771825694,0.7657772194651603,12.809287785689866
143.0,337437673.6402235,22187815.628597476,0.7615007201305917,12.730990884556652
144.0,410369469.48055315,26655476.061430927,0.7571897369925632,12.654891554091275
145.0,497741787.5593897,31807296.267785396,0.752847466911704,12.580896859728716
146.0,601672408.3194453,37793248.91477365,0.7484771808049943,12.508921201523501
147.0,724807957.1053611,44862556.97318785,0.7440822202460037,12.438885714334289
148.0,870680654.9764105,53384491.1676975,0.7396659937746118,12.370717723595458
149.0,1044121421.7772747,63856687.4424055,0.7352319727851421,12.304350239016408
150.0,1251678832.2289371,76901480.01767743,0.730783687186011,12.23972149366675
151.0,1502002227.2981255,93251859.30973491,0.7263247207225757,12.17677451872731
152.0,1806150490.1682065,113729560.89594339,0.721858706042962,12.115456753163686
153.0,2177800007.582569,139217710.19961318,0.7173893195202317,12.05571968512561
154.0,2633334865.635904,170630254.24755895,0.7129202758562041,11.997518522505544
155.0,3191811153.728244,208882105.0420092,0.7084553224932716,11.940811890304097
156.0,3874810423.6183133,254882543.2249877,0.7039982338603835,11.885561552593288
157.0,4706306324.948836,309598920.9540526,0.6995528054845382,11.831732157336727
158.0,5712832481.6261425,374217472.5370968,0.6951228479943925,11.779291001869273
159.0,6924298860.642853,450388280.2972474,0.6907121810368223,11.72820781740571
160.0,8375703616.013346,540514833.9187859,0.6863246271525912,11.678454571574882
161.0,10109833814.37355,648038703.4352789,0.6819640056217832,11.630005287089016
162.0,12180851726.754848,777674753.5821859,0.6776341263160167,11.582835875020743
163.0,14658507838.385939,935565121.2050475,0.6733387835887918,11.536923982003916
164.0,17632630391.502296,1129333735.4762356,0.6690817502250483,11.492248850076875
165.0,21217487736.146687,1368035985.3543324,0.6648667714761314,11.448791188201536
166.0,25555649314.99444,1662007404.3440032,0.6606975592020282,11.406533054335249
167.0,30820970783.141457,2022633838.1652029,0.6565777861571714,11.365457747209234
168.0,37220495693.28367,2462140076.0368867,0.652511080432385,11.325549707237279
169.0,44995532751.479836,2993617530.70949,0.6485010200739478,11.286794425710907
170.0,54423025162.565254,3631544275.3786345,0.6445511278943347,11.249178361656094
171.0,65819192169.855515,4392951616.243226,0.6406648665008507,11.212688865538393
172.0,79547656587.75156,5299232637.819673,0.6368456335590299,11.17731410940373
173.0,96034101902.87875,6378431712.47414,0.6330967572941733,11.14304302296124
174.0,115788639746.79405,7667752486.180809,0.6294214922436029,11.10986523508638
175.0,139436046347.68237,9215978190.288153,0.625823015264202,11.077771020307285
176.0,167752868261.5775,11085503506.99223,0.6223044218213002,11.04675124974225
177.0,201709262778.20062,13353736838.252335,0.6188687225479885,11.01679734626781
178.0,242512893961.48624,16113702365.94949,0.6155188400768412,10.98790124353436
179.0,291651642096.1195,19473851393.10527,0.6122576061414201,10.960055348515716
180.0,350932734788.235,23557515316.68741,0.6090877589523567,10.933252507266644
181.0,422517605515.52515,28503046294.502556,0.6060119408566884,10.907485973585604
182.0,508956312224.1649,34466072072.64316,0.603032696254798,10.882749380425738
183.0,613230397767.4674,41625213292.23094,0.6001524697736635,10.859036713791967
184.0,738816934579.9283,50192123667.473816,0.5973736046804798,10.836342288931068
185.0,889789119004.0243,60425924883.46678,0.5946983415482231,10.814660728574818
186.0,1070965929953.1422,72651357795.54506,0.5921288171525111,10.793986943080599
187.0,1288121020113.5225,87279283913.82486,0.5896670635776301,10.774316112344371
188.0,1548254388500.1914,104827756152.43994,0.5873150075219931,10.755643669319763
189.0,1859924092002.042,125941711820.34856,0.5850744697844034,10.737965285019849
190.0,2233629081860.697,151409490103.97968,0.5829471649437888,10.721276854833219
191.0,2682226310794.713,182175603256.3853,0.5809347011893561,10.705574486080899
192.0,3221368982756.2075,219351327442.396,0.5790385802906948,10.690854486716939
193.0,3869958952883.3433,264227679950.07794,0.5772601976881497,10.677113355073008
194.0,4650629870629.846,318297701660.58575,0.5756008426972921,10.664347770564781
195.0,5590297813651.861,383296125177.5895,0.5740616988242014,10.652554585249433
196.0,6720844241946.044,461263803153.32404,0.572643844150753,10.641730816203786
197.0,8080020014756.554,554641689637.6014,0.571348251785573,10.631873638652227
198.0,9712664811786.26,666395859010.3114,0.570175790357716,10.622980379789714
199.0,11672345947234.111,800170599774.4276,0.569127224564861,10.61504851324092
200.0,14023480746218.475,960463533964.4536,0.5682032157499199,10.608075654092659
201.0,16843996965777.752,1152813819561.5393,0.5674043224859,10.602059554489433
202.0,20228544380674.812,1383994496817.7368,0.5667310011639922,10.596998099745536
203.0,24292243702153.29,1662204622725.2007,0.5661836065697237,10.592889304949507
204.0,29174969039375.395,1997265454323.522,0.5657623924686821,10.589731312014733
205.0,35046142686359.027,2400840466508.594,0.565467512163772,10.587522387154053
206.0,42110154827174.54,2886711345873.719,0.5652990190260508,10.586260918776672
207.0,50612607914617.766,3471153710773.853,0.5652568669916944,10.585945415782936
208.0,60847784111336.16,4173459880845.668,0.565340911028501,10.586574506253534
209.0,73167849077370.36,5016653118870.332,0.5655509075863375,10.58814693649533
210.0,87994413258050.25,6028430413452.61,0.5658865150024122,10.5906615704575
211.0,105833232211200.58,7242352957167.298,0.5663472938754088,10.594117389518669
212.0,127292778576774.4,8699288796912.326,0.5669327074018019,10.59851349264352
213.0,153107560393408.62,10449090455340.531,0.5676421216994508,10.603849096914548
214.0,184166704146300.7,12552491379003.348,0.5684748061146592,10.610123538418456
215.0,221548442385174.03,15083217054454.498,0.569429933507214,10.617336273525268
216.0,266561101237911.8,18130342473304.56,0.5705065805277206,10.625486880566143
217.0,320791302165415.6,21800990256824.977,0.5717037278878311,10.634575061931919
218.0,386160773832215.8,26223520529695.086,0.5730202606597034,10.644600646596965
219.0,464993073705317.0,31551463161414.13,0.5744549685891279,10.655563593081364
220.0,560093098138735.06,37968489133347.23,0.576006546436134,10.667463992899787
221.0,674842882162762.1,45694769477742.34,0.5776735943539364,10.680302074517986
222.0,813318744803074.4,54995078604141.76,0.5794546183180609,10.694078207859693
223.0,980435838195663.9,66188964406640.305,0.5813480306380715,10.708792909367128
224.0,1182126349550317.0,79663314828145.55,0.5833521505359724,10.72444684767311
225.0,1425559732160798.2,95887562858179.77,0.5854652048135774,10.741040849936393
226.0,1719412857344285.2,115431794292733.19,0.5876853286149379,10.758575908888254
227.0,2074200778152586.2,138987999786367.6,0.5900105663078546,10.77705319064384
228.0,2502676562624478.0,167394907058386.66,0.5924388724986492,10.79647404329919
229.0,3020311868190266.0,201667098541175.75,0.5949681131745821,10.8168400064143
230.0,3645872598560634.5,243029446580280.16,0.5975960669920728,10.838152821442582
231.0,4402106646290252.5,292958428115656.7,0.6003204267141912,10.86041444319328
232.0,5316570771711788.0,353232186374688.4,0.6031388008248654,10.883627052376177
233.0,6422621081618796.0,425992006235749.56,0.6060487153160087,10.907793069305008
234.0,7760609115012620.0,513818181181313.94,0.60904761564944,10.932915168885355
235.0,9379331161647816.0,619823714874756.0,0.6121328689026717,10.958996296976506
236.0,1.1337792683720248e+16,747769634538507.6,0.6153017661002371,10.986039688253602
237.0,1.3707363875661762e+16,902205576847773.5,0.6185515247504965,11.014048885614594
238.0,1.657439943329311e+16,1088640282063333.0,0.6218792915722627,11.043027761296711
239.0,2.0043428220497084e+16,1313746543436428.5,0.6252821454140285,11.072980539841735
240.0,2.424101765239897e+16,1585606390088863.8,0.6287571003644,11.103911823056423
241.0,2.9320458484060436e+16,1914002961870228.5,0.6323011090534864,11.135826617113663
242.0,3.5467406776966216e+16,2310767633524726.0,0.6359110661492294,11.168730361872669
243.0,4.2906657403962904e+16,2790194286569377.5,0.6395838120292753,11.202628962673774
244.0,5.191027428432854e+16,3369535118036070.0,0.6433161366254235,11.237528824767745
245.0,6.2807328803798344e+16,4069597440394809.0,0.6471047834308816,11.273436890608957
246.0,7.599562119557979e+16,4915463037681181.0,0.6509464536647527,11.310360680135236
247.0,9.19557155772389e+16,5937359230235176.0,0.6548378105830551,11.348308334228376
248.0,1.1126780882652982e+17,7171714782591990.0,0.6587754839163832,11.38728866166445
249.0,1.3463201581213389e+17,8662438990114115.0,0.6627560744237657,11.427311189767199
