Time,J,A,S,tau
0.0,100.0,10.0,0.7138658100501066,14.451487651592085
1.0,116.56811586416869,16.170108565352816,0.7029520694077884,13.319580724430503
2.0,145.83548978416866,21.83673066065763,0.691653766898145,12.152256517228551
3.0,186.0026320409424,27.014687593282694,0.6799827210422233,10.94937978702345
4.0,235.28563638194947,31.7198129791093,0.6679508285486109,9.710714692895804
5.0,291.93514369060256,35.968544279591576,0.655571526572353,8.436039326070347
6.0,354.2552318745312,39.77784890928637,0.6428597740537264,7.125146515898787
7.0,418.0071011512854,49.4310203399369,0.6353770682991224,6.42468211038407
8.0,503.6643610452087,71.91684798785126,0.6329780353119199,6.318052496310196
9.0,636.231690185094,102.24729856351559,0.6305932797804651,6.214450468219627
10.0,829.410540700559,138.69220327043922,0.6282240082364495,6.11379808294334
11.0,1091.3558882188186,179.63570373447567,0.625871387955999,6.016020219522915
12.0,1425.2199656307785,223.58747459851367,0.6235365499564368,5.921044387637064
13.0,1827.620234589558,273.4220072965045,0.6212205916499672,5.828800564046347
14.0,2306.98301547605,350.880209563368,0.6189245790054191,5.739221044045029
15.0,2920.6917212355424,469.2493923731486,0.6166495486414102,5.652240320126184
16.0,3746.666673967429,635.4119708450104,0.6143965095145848,5.5677949707943215
17.0,4866.854428375917,851.5931827300905,0.6121664444066863,5.4858235635833585
18.0,6355.198837870191,1116.202680139654,0.609960311218336,5.406266569844384
19.0,8265.132344634245,1436.907968901366,0.6077790440902818,5.329066288968432
20.0,10660.93164533558,1856.5987072220485,0.6056235543287797,5.254166779541719
21.0,13691.277202650375,2434.07550470217,0.6034947312486845,5.181513799087117
22.0,17604.719407865534,3228.272453267928,0.6013934428633191,5.1110547483931335
23.0,22730.032571687774,4288.334117385708,0.5993205364758583,5.042738621260095
24.0,29434.880143703915,5652.7380452085035,0.5972768391821175,4.976515958307294
25.0,38086.76674780794,7391.702431621853,0.5952631582986672,4.912338804498988
26.0,49120.33501610889,9648.923063975093,0.5932802817084345,4.8501606695865025
27.0,63166.789151995574,12637.017346111947,0.591328978150592,4.789936490954855
28.0,81143.56592746294,16609.708620611193,0.5894099974707173,4.731622599306521
29.0,104264.53915266976,21830.080488196534,0.5875240708145008,4.675176685830504
30.0,133970.2409299181,28593.603413257184,0.5856719107920659,4.620557771415411
31.0,171917.01717124725,37320.89721435068,0.5838542116018118,4.567726176947588
32.0,220137.82023572043,48633.50290618358,0.5820716491335598,4.516643495190399
33.0,281298.8905698382,63367.21770895842,0.580324881047221,4.467272563785678
34.0,358910.2834317653,82530.90632385563,0.5786145468312561,4.419577439277364
35.0,457383.9177603518,107304.99119554617,0.5769415007187328,4.373520059613374
36.0,582139.0101455564,138975.59374128218,0.5750563200123893,4.33258466055804
37.0,739321.2207207631,178925.09048267052,0.5725224848232279,4.302682679221081
38.0,935797.520777438,229151.00645878652,0.5693432599184972,4.2834336084233104
39.0,1179866.5449573416,292038.9009592299,0.5655333148084923,4.274367759391859
40.0,1481295.8756920288,370524.4528633433,0.5612247362431909,4.273488911885636
41.0,1851795.9258960485,468836.36684775946,0.5569503417675605,4.273488911885636
42.0,2306499.731254716,591222.6002221734,0.5527777343148349,4.273488911885636
43.0,2862879.3695865185,742671.1711426771,0.5487100877678263,4.273488911885636
44.0,3541122.5957537135,929086.6526248569,0.54475046413297,4.273488911885636
45.0,4364405.849376209,1157728.1827002002,0.5409018118738818,4.273488911885636
46.0,5359965.534138946,1437631.0473456082,0.5371669646551182,4.273488911885636
47.0,6560395.162257602,1779213.4687036609,0.5335486404723483,4.273488911885636
48.0,8004002.079198991,2194494.48392267,0.5300494411547613,4.273488911885636
49.0,9735300.958318843,2697381.2878607023,0.5266718522076309,4.273488911885636
50.0,11805627.588817997,3304325.896496808,0.5234182429899954,4.273488911885636
51.0,14274564.664980847,4034890.180157623,0.5202908671822205,4.273488911885636
52.0,17211766.930977527,4911969.164145636,0.5172918635302041,4.273488911885636
53.0,20698666.17041853,5962116.315394915,0.514423256842363,4.273488911885636
54.0,24830052.826622996,7216054.568023225,0.5116869591689298,4.273488911885636
55.0,29716044.46849283,8709558.726951998,0.5090847712362133,4.273488911885636
56.0,35484607.30285702,10484468.482448697,0.5066183839856215,4.273488911885636
57.0,42284936.043940626,12589643.927259969,0.5042893802304739,4.273488911885636
58.0,50291484.45055596,15081961.523363456,0.5020992364686641,4.273488911885636
59.0,59708408.24434428,18027538.439327735,0.5000493247445725,4.273488911885636
60.0,70774338.06095442,21503416.993104286,0.4981409144817466,4.273488911885636
61.0,83769225.3321457,25599556.866399504,0.4963751744612195,4.273488911885636
62.0,99021443.80710924,30421239.65158642,0.4947531746627128,4.273488911885636
63.0,116918056.3260522,36091692.82870781,0.49327588815484014,4.273488911885636
64.0,137915181.96825102,42755343.6270996,0.4919441928633326,4.273488911885636
65.0,162552610.81318557,50581668.88442317,0.4907588732852108,4.273488911885636
66.0,191469094.90585762,59770080.53862691,0.489720622090943,4.273488911885636
67.0,225423706.45305815,70555664.34592125,0.48883004157646825,4.273488911885636
68.0,265319267.01722822,83216221.19565138,0.4880876450209349,4.273488911885636
69.0,312233757.8060988,98080625.51693967,0.48749385780715354,4.273488911885636
70.0,367456191.6666004,115539102.08171138,0.4870490184710935,4.273488911885636
71.0,432532800.9568926,136055801.28232655,0.48675337943861585,4.273488911885636
72.0,509322635.3395088,160184110.32301837,0.48660710771845284,4.273488911885636
73.0,600066512.4857023,188585658.12032026,0.48661028522260236,4.273488911885636
74.0,707474018.6534585,222053181.76729283,0.4867629090689879,4.273488911885636
75.0,834827925.795571,261539386.3454568,0.48706489147587184,4.273488911885636
76.0,986120645.3380785,308191629.60441625,0.48751605965471717,4.273488911885636
77.0,1166214981.6862602,363396245.4904429,0.4881161552896011,4.273488911885636
78.0,1381059415.6248043,428831883.2957512,0.4888648340194034,4.273488911885636
79.0,1637939903.1271708,506538097.69569016,0.48976166453112857,4.273488911885636
80.0,1945821936.2943456,598998340.1498578,0.4908061276500387,4.273488911885636
81.0,2315751084.785399,709247121.564813,0.4919976150929309,4.273488911885636
82.0,2761400860.0838575,841000869.6004015,0.49333542820389187,4.273488911885636
83.0,3299719477.761232,998827171.684212,0.49481877642968897,4.273488911885636
84.0,3951815628.300769,1188353719.3272245,0.4964467757571818,4.273488911885636
85.0,4744018054.6596775,1416538514.8523002,0.4982184469874449,4.273488911885636
86.0,5709322177.841358,1692007660.223998,0.5001327139482898,4.273488911885636
87.0,6889150262.62691,2025491836.5579834,0.5021884016559401,4.273488911885636
88.0,8335739491.129904,2430379263.3643136,0.5043842343922903,4.273488911885636
89.0,10115105907.937088,2923429433.496201,0.5067188338523658,4.273488911885636
90.0,12311031200.2972,3525689546.4431844,0.509190717190469,4.273488911885636
91.0,15030075624.307352,4263680709.087686,0.5117982952408927,4.273488911885636
92.0,18408442839.109875,5170921677.587763,0.5145398707149463,4.273488911885636
93.0,22620588005.2166,6289930093.759051,0.5174136365263104,4.273488911885636
94.0,27890798422.04184,7674815772.209926,0.5204176742545003,4.273488911885636
95.0,34508403562.893005,9394676346.721552,0.5235499527630361,4.273488911885636
96.0,42847905751.49653,11538050564.768478,0.526808327006953,4.273488911885636
97.0,53395699208.20062,14218776035.195963,0.5301905370586881,4.273488911885636
98.0,66785641227.56134,17583728309.850803,0.5336942073807179,4.273488911885636
99.0,83846459869.50134,21823075085.076256,0.5373168463716793,4.273488911885636
100.0,105665514561.32352,27183886687.685104,0.5410558462135128,4.273488911885636
101.0,133674472885.92567,33988275972.655098,0.5449084830441885,4.273488911885636
102.0,169764081754.72406,42657673186.56687,0.5488719174875041,4.273488911885636
103.0,216440306948.69025,53745366361.94355,0.5529431955268174,4.273488911885636
104.0,277034701415.3326,67980335037.302284,0.5571192497930662,4.273488911885636
105.0,355991412143.947,86326272918.90784,0.5613969012593342,4.273488911885636
106.0,459289519046.51117,110017257055.28697,0.5656915605241177,4.274536728901431
107.0,594899207209.4751,140326114534.87778,0.5694446483803507,4.283847750500596
108.0,772729526236.3987,179026927918.9012,0.5725505039404654,4.302923426062659
109.0,1005633855075.7852,228435268929.70642,0.5750133666356908,4.33190273892355
110.0,1310350474924.7688,291499182919.1692,0.5768439973181256,4.370883911625464
111.0,1708476773091.9988,372631634524.68726,0.5784406005379558,4.41478173563722
112.0,2229750930238.748,477407612871.106,0.580068650230853,4.460106626560239
113.0,2913662763640.329,612525779841.525,0.5817274171225509,4.506880777692732
114.0,3811658999841.305,786564558010.9988,0.5834161587416982,4.555126919079888
115.0,4990699258458.574,1010512672764.1074,0.5851341189936163,4.6048683207811765
116.0,6537784598013.236,1298963839020.2903,0.5868805283989261,4.656128787050194
117.0,8567286605251.749,1671132745776.4875,0.5886546043315063,4.70893265028912
118.0,11229828172262.75,2151609040674.5884,0.5904555512537469,4.763304764817076
119.0,14722683446525.494,2771811464795.058,0.5922825609468013,4.819270500502344
120.0,19303044797404.445,3571840368638.801,0.5941348127332632,4.876855736320601
121.0,25304832516828.29,4603119942987.87,0.5960114736893706,4.936086853914541
122.0,33160926715956.69,5932060657880.115,0.5979116988436614,4.99699073124862
123.0,43432563750743.16,7644095886386.006,0.5998346313584284,5.059594736464852
124.0,56846265374592.484,9848591410222.846,0.6017794026901072,5.123926722070043
125.0,74339831941265.03,12684967260359.742,0.6037451327243266,5.19001501960581
126.0,97119387415426.86,16330359614332.795,0.6057309298808969,5.257888434977262
127.0,126729999191887.12,21009578986350.74,0.6077358911835673,5.327576244644431
128.0,165143933765519.0,27007784690213.28,0.6097591022887896,5.399108192907315
129.0,214870713389340.06,34685983432804.312,0.6117996374666742,5.472514490556303
130.0,279092430755834.5,44499861797437.8,0.6138565595319238,5.547825815251934
131.0,361828991465258.8,57022575057934.43,0.6159289197082018,5.625073313841281
132.0,468137071553456.44,72972302921688.31,0.6180157574270077,5.704288607195952
133.0,604348193544206.4,93245754739738.75,0.6201161000468628,5.785503797861479
134.0,778351482828665.4,118958962300321.83,0.6222289624875084,5.868751481150046
135.0,999928537938577.9,151496402744044.3,0.624353346764377,5.954064760146049
136.0,1281143887690527.2,192569661759774.25,0.626488241424253,6.041477265605668
137.0,1636803084782767.5,244286527391538.0,0.6286326208442058,6.131023180760248
138.0,2084972685776469.2,309231969276440.56,0.6307854444186265,6.222737272712453
139.0,2647575450410357.0,390562211006608.1,0.6329456555815315,6.316654930662465
140.0,3351050079124621.0,492113447553210.75,0.6351121806863812,6.412812212313627
141.0,4227080441156555.0,618527200453771.1,0.6372839277022514,6.511245899730646
142.0,5313388013786057.0,775393154844743.6,0.6394597847212796,6.61199356541974
143.0,6654578735042529.0,969410745918956.5,0.6416386182582511,6.715093650289334
144.0,8303036030825068.0,1208570042729652.0,0.643819271318455,6.820585555065097
145.0,1.0319822294940374e+16,1502352187035261.0,0.6460005612350956,6.928509747162355
146.0,1.2775583799770004e+16,1861947929700834.5,0.648181277235536,7.038907884079531
147.0,1.5751422519106268e+16,2300493539741086.5,0.6503601777174417,7.151822955816347
148.0,1.933968670240418e+16,2833322128176988.5,0.6525359872268256,7.267299448504375
149.0,2.364462755393794e+16,3478228170763889.5,0.6547073931121614,7.385383532007452
150.0,2.87828942425509e+16,4255739951681934.0,0.6568730418298432,7.506123273197633
151.0,3.488380876135912e+16,5189395672296218.0,0.6590315348752455,7.629568878182375
152.0,4.208933036518239e+16,6306017008248749.0,0.6611814243402329,7.755772966747747
153.0,5.055366599875588e+16,7635973185946348.0,0.6633212080507701,7.884790882971186
154.0,6.044258503530632e+16,9213420080535458.0,0.6654493242694467,8.016681041457561
155.0,7.193211964710691e+16,1.107651286115001e+16,0.6675641460102243,8.151505318185073
156.0,8.520691276441629e+16,1.326757506594802e+16,0.6696639748059582,8.289329488223318
157.0,1.004580085698564e+17,1.5833206266092158e+16,0.6717470341404069,8.430223707040177
158.0,1.1788008896219557e+17,1.882432989722113e+16,0.6738114622882959,8.574263053397196
159.0,1.376682062270036e+17,2.2296152074976904e+16,0.6758553047924495,8.721528123460976
160.0,1.6001403595200906e+17,2.6308025834656428e+16,0.6778765064747759,8.872105686405806
161.0,1.8510169730086995e+17,3.092320818769296e+16,0.6798729030028243,9.026089406094448
162.0,2.1310317700954013e+17,3.620849839535143e+16,0.681842212082821,9.183580630020902
163.0,2.4417353862423914e+17,4.223374418991241e+16,0.6837820243403261,9.344689246328361
164.0,2.7844591471834442e+17,4.907121320102369e+16,0.6856897939308311,9.509534614566835
165.0,3.1602667812388006e+17,5.679481771290778e+16,0.6875628289578325,9.67824656693673
166.0,3.5699050796573754e+17,6.547920343712651e+16,0.6893982817918077,9.850966491381836
167.0,4.0137649176344474e+17,7.519867732512126e+16,0.6911931397056796,10.027848450608221
168.0,4.491831198245016e+17,8.602605219086762e+16,0.69294421552766,10.209060424716336
169.0,5.003665205583589e+17,9.803128390280459e+16,0.6946481386488731,10.394785557581612
170.0,5.548361789272029e+17,1.1128011615073754e+17,0.6963013472013608,10.58522350887132
171.0,6.124560446461467e+17,1.2583252148793344e+17,0.697900081266963,10.780591706203909
172.0,6.730414665999279e+17,1.4174118149483206e+17,0.6994403761196845,10.981126895271
173.0,7.363609620197578e+17,1.5904992418569466e+17,0.7009180593543192,11.187086390617985
174.0,8.021387000951273e+17,1.7779213602517853e+17,0.702328748696815,11.398749429151811
175.0,8.700572296313228e+17,1.979892644604976e+17,0.7036678529070913,11.61641845441519
176.0,9.397617572843402e+17,2.196494070650409e+17,0.7049305757366984,11.84042029161144
177.0,1.0108654700623112e+18,2.4276601987094592e+17,0.7061119233857703,12.071107199741048
178.0,1.0829552436018135e+18,2.6731684425917632e+17,0.7072067166299267,12.30885772739943
179.0,1.1555988348292142e+18,2.932630565649976e+17,0.7082096078333536,12.554077253706962
180.0,1.2283523453942044e+18,3.2054868276519386e+17,0.7091151032109317,12.807198240947235
181.0,1.3007679801114355e+18,3.491003230669108e+17,0.7099175910184946,13.068680102157572
182.0,1.3724021734727045e+18,3.788272095325027e+17,0.7106113759404483,13.339008578060874
183.0,1.4428225841060257e+18,4.09621623117605e+17,0.7111907208423265,13.618694736016236
184.0,1.5116162052612628e+18,4.413597109781726e+17,0.7116498947933834,13.908273130536326
185.0,1.5783959040388065e+18,4.739026691332323e+17,0.7119832284803712,14.208299462370567
186.0,1.6428064706493056e+18,5.070983105555279e+17,0.7121851762061178,14.519347474165334
187.0,1.7045297481774098e+18,5.4078297899156544e+17,0.7122503840535341,14.84200509875928
188.0,1.763288695701302e+18,5.747837898098175e+17,0.7121737634207506,15.176869842015263
189.0,1.8188503254210368e+18,6.089211377250963e+17,0.7119505687467123,15.524543407801323
190.0,1.8710274781318797e+18,6.430114085101492e+17,0.7115764779124124,15.885625604247075
191.0,1.9196794098242834e+18,6.768698334447681e+17,0.7110476726828368,16.26070761870508
192.0,1.9647113735420508e+18,7.103134292137747e+17,0.7103609210397609,16.65036468547894
193.0,2.0060728863626406e+18,7.431638819205961e+17,0.7095136507178463,17.055148496432103
194.0,2.0437554245619082e+18,7.752503261438776e+17,0.7085040193255498,17.47557929639149
195.0,2.0777892779973115e+18,8.064120095432434e+17,0.7073309795339277,17.912137790724284
196.0,2.108239436133352e+18,8.365005414874358e+17,0.7059943229202839,18.36525781001339
197.0,2.1352016225788846e+18,8.653819761050578e+17,0.7044947210501238,18.83531869893873
198.0,2.1587974539661742e+18,8.929382973320532e+17,0.7028337417273526,19.322639384730014
199.0,2.1791700964458836e+18,9.190687262318772e+17,0.7010138567087542,19.827472288992436
200.0,2.196479716119924e+18,9.436907256794116e+17,0.6990384431527874,20.349997793269736
201.0,2.2108987205529646e+18,9.667399985638516e+17,0.6969117304178416,20.890322114099
202.0,2.222607667033412e+18,9.881697155961425e+17,0.6946387385404281,21.448478610903862
203.0,2.231791973712283e+18,1.0079519301356594e+18,0.6922252867887851,22.02441883758581
204.0,2.2386380748379223e+18,1.0260747637098537e+18,0.689677830953871,22.6180220229983
205.0,2.2433309523389286e+18,1.042541787284575e+18,0.6870034147728876,23.22909570165185
206.0,2.2460512410060165e+18,1.0573717625010582e+18,0.6842095996727517,23.857373544895264
207.0,2.2469737845781376e+18,1.0705955733077815e+18,0.6813043111357924,24.50252767162079
208.0,2.2462660986643617e+18,1.0822551586420684e+18,0.6782957679915359,25.164171795357394
209.0,2.244086551401107e+18,1.0924024139656145e+18,0.6751923774926909,25.841864031060894
210.0,2.2405845620496522e+18,1.1010965728255908e+18,0.6720026200981659,26.535119087513053
211.0,2.2358997788488312e+18,1.1084029640885793e+18,0.6687349730077843,27.24341344137819
212.0,2.2301611723901716e+18,1.1143917534001466e+18,0.6653977986217032,27.966190337319418
213.0,2.2234887651575734e+18,1.1191359479123936e+18,0.6619993033381868,28.702871273762263
214.0,2.2159916696131612e+18,1.1227105029196411e+18,0.6585474172030567,29.452859279048802
215.0,2.1765868129959457e+18,1.0328871910088529e+18,0.6550497935506375,30.215547130344973
216.0,2.1341525138180426e+18,9.383449194629619e+17,0.6515137198731816,30.990322457401362
217.0,2.0936966654882028e+18,8.533582629278808e+17,0.6479460947791269,31.77657372335126
218.0,2.055106108048416e+18,7.768853303925348e+17,0.644353399762439,32.57369472377416
219.0,2.0182716007571136e+18,7.08007292633272e+17,0.6407416806785748,33.38108870385058
220.0,1.9830881873131236e+18,6.459124076922726e+17,0.6371165361275557,34.19817186285686
221.0,1.949455417763665e+18,5.898820913477028e+17,0.6334831171018891,35.024376114742566
222.0,1.9172775322558495e+18,5.392806191120371e+17,0.6298461276845495,35.85915146755279
223.0,1.8864635111391675e+18,4.935435443939338e+17,0.6262098359154669,36.70196765044351
224.0,1.856927095544419e+18,4.521703902490986e+17,0.6225780855215269,37.552315430550586
225.0,1.8285867319682504e+18,4.147156927608624e+17,0.618954312665127,38.409707396716776
226.0,1.8013654713193446e+18,3.8078354310516646e+17,0.6153415654195267,39.273678382580684
227.0,1.7751908463479514e+18,3.500207976345318e+17,0.6117425237297818,40.14378561824417
228.0,1.749994699423218e+18,3.2211281958790714e+17,0.6081595225581174,41.019608513446144
229.0,1.7257130068942938e+18,2.967781769077491e+17,0.6045945741764358,41.90074828288932
230.0,1.7022856870276413e+18,2.73765728207795e+17,0.6010493910401576,42.786827393322426
231.0,1.6796563843871135e+18,2.5285029840571696e+17,0.5975254094748004,43.677488765435385
232.0,1.657772279094874e+18,2.3383048555136416e+17,0.5940238108880064,44.57239503677332
233.0,1.6365838559630492e+18,2.165255451553932e+17,0.5905455450441361,45.47122751076577
234.0,1.6160447215672125e+18,2.0077332210253014e+17,0.5870913493199768,46.37368530903631
235.0,1.596111382282613e+18,1.864282596129628e+17,0.5836617699515287,47.27948423797154
236.0,1.5767430510369674e+18,1.7335927642515696e+17,0.5802571806043522,48.188355758429296
237.0,1.5579014708800479e+18,1.614486297761868e+17,0.5768777993727711,49.10004600989688
238.0,1.539550714750265e+18,1.5059030832865635e+17,0.5735237065386963,50.01431464886942
239.0,1.5216570223464722e+18,1.4068863557429496e+17,0.5701948594729187,50.93093386355409
240.0,1.504188640094604e+18,1.3165760067015472e+17,0.5668911069046676,51.84968737632695
241.0,1.4871156551068723e+18,1.2341957657567694e+17,0.5636122028616366,52.770369377807974
