Time,J,A,S,tau
0.0,100.0,10.0,0.9978752822564219,16.713951463554427
1.0,216.41370441139657,63.25950300788259,0.9974448835402412,16.583570262385514
2.0,576.9236494325012,113.52151433116865,0.9970600497630553,16.460046468632925
3.0,1171.2916510766042,161.00135428156105,0.9967168655155753,16.343398884224964
4.0,1989.581404776066,205.89692080710816,0.9964117438483102,16.23364402458303
5.0,3022.1387478868664,248.38992718862352,0.996141402847231,16.130797192398102
6.0,4259.5751787590025,288.64731739640877,0.9959028401069703,16.034872398959045
7.0,5692.753658520672,326.822563352238,0.9956933090388442,15.945882282268272
8.0,7312.776696698364,363.0568301473391,0.9955102974063047,15.863838019200694
9.0,9110.976429889335,397.48003972571234,0.9953515075104021,15.788749233828828
10.0,11078.907439015857,430.2118434073053,0.9952148376698804,15.720623905620625
11.0,13208.340749855879,461.362460153369,0.9950983664321311,15.659468261152195
12.0,15491.25782940684,491.0335381121687,0.995000335967355,15.60528668646007
13.0,17919.846887368753,519.3188345899093,0.9949191391797896,15.558081609271909
14.0,20486.50251030416,546.3048683057597,0.9948533066458084,15.51785339157441
15.0,23183.821600511623,572.0715623515532,0.9948014943093944,15.484600229760089
16.0,25999.38961590279,620.9300819684755,0.9949741900360399,15.521688798288118
17.0,29258.645312058503,840.4049647453807,0.9953168743726815,15.617583910565873
18.0,33848.67332840735,1241.651100953819,0.9956341029140648,15.714680696388182
19.0,40624.06782692036,1809.658324243076,0.995927811228595,15.812977380739463
20.0,50360.85013070518,2530.4733751680005,0.9961997895969492,15.912470429434602
21.0,63760.05279972264,3391.115123845024,0.9964516932755454,16.01315442736626
22.0,81451.30584243804,4379.497619814736,0.9966850521451184,16.115021955641783
23.0,103996.38543719242,5484.360545015977,0.9969012797479714,16.218063467780464
24.0,131892.79226662754,6695.205754910794,0.9971016817689834,16.322267165992155
25.0,165577.2235411569,8002.240439947514,0.9972874639116379,16.427618876327557
26.0,205429.13541660894,9396.324448717487,0.9974597393466512,16.53410192688474
27.0,251774.1591878386,10868.923372154797,0.9976195355671038,16.641697024943348
28.0,304887.45553040755,12412.066244935391,0.9977678007188513,16.750382132456988
29.0,364997.28238150885,14018.30416144023,0.9979054098859907,16.860132360849004
30.0,432287.9762494286,15680.678055797795,0.9980331701687393,16.970919834822748
31.0,506903.3028060666,17392.68465682733,0.9981518261520369,17.082713592495868
32.0,588949.8138595284,19148.244932807454,0.998262064785009,17.19547948379435
33.0,678498.6903403731,20942.482039055245,0.9983645193789757,17.3091800392092
34.0,775664.4277030961,22964.887354319373,0.9984597744272068,17.423774416204562
35.0,882018.5488322518,25801.75436329425,0.9985483687684824,17.539218263032275
36.0,1001761.6967059759,30024.744472618037,0.9986307993872346,17.655463649285984
37.0,1141432.443889551,36136.182620247055,0.9987075246357945,17.77245898184203
38.0,1309536.4069805015,44574.626405655334,0.9987789672509468,17.890148930865784
39.0,1516210.1850179895,55720.05455212353,0.9988455171357443,18.00847436275492
40.0,1772917.3790516725,69898.72304906732,0.9989075339318665,18.127372281533727
41.0,2092176.9769064933,87387.69304782417,0.9989653493933147,18.246775778595588
42.0,2487320.4940964323,108419.06254851264,0.9990192695736466,18.36661399096072
43.0,2972277.4354733387,133183.92318755022,0.9990695768470776,18.48681206948747
44.0,3561386.3310551955,161836.0536594217,0.9991165317678626,18.60729115618984
45.0,4269231.469591037,194495.3544434031,0.9991603747810948,18.72796837078919
46.0,5110500.801555118,231251.08982588362,0.9992013278152062,18.848756811653807
47.0,6099866.100974667,272164.86064996076,0.9992395957229449,18.96956556155833
48.0,7251881.322173218,317273.4132090711,0.9992753676282021,19.09029970933762
49.0,8580899.935908794,366591.2341808402,0.9993088181594515,19.21086038159133
50.0,10101007.144291835,420112.96874896577,0.9993401085832365,19.33114478579484
51.0,11825968.025353856,477815.6697959438,0.9993693878563741,19.451046268700058
52.0,13769185.018789742,539660.8762052302,0.9993967935702247,19.57045437930476
53.0,15943670.816833401,605603.4458006765,0.9994224528476531,19.689254953666016
54.0,18362150.158717148,676040.4254872275,0.9994464831488505,19.8073302079052
55.0,21039871.97811172,752817.5794481722,0.9994689930330435,19.92455885030692
56.0,24000397.083959557,839301.5826043587,0.9994900828331754,20.04081619934619
57.0,27280951.81925855,940148.4073246694,0.9995098452854165,20.15597431843382
58.0,30936749.912056766,1061093.2126457028,0.9995283661164889,20.269902169281266
59.0,35044468.2642357,1208764.8802639784,0.9995457245754048,20.38246577657392
60.0,39704987.212232575,1390521.852237003,0.9995619939204978,20.49352840725262
61.0,45045491.53382562,1614306.499510752,0.9995772418738885,20.60295076872785
62.0,51221096.67998666,1888517.8399741228,0.9995915310333151,20.710591220311237
63.0,58416040.36687701,2221900.4050821057,0.999604919249533,20.81630600081145
64.0,66844521.26459836,2623447.2773033986,0.999617459978004,20.919949475135503
65.0,76751317.9766988,3102316.597530409,0.9996292025969374,21.02137439567556
66.0,88412174.9316913,3667760.132507643,0.9996401926988675,21.120432181248905
67.0,102134035.98764956,4329062.328598215,0.9996504723618334,21.21697321488345
68.0,118255224.51564182,5095488.9839737415,0.9996600803939214,21.310847158045185
69.0,137145520.8409203,5976244.748922314,0.9996690525575458,21.4019032833122
70.0,159206221.12695274,6980438.117695811,0.9996774217767299,21.489990825362156
71.0,184870215.3175885,8117053.215601738,0.9996852183242387,21.57495934971861
72.0,214602109.3109497,9394927.438433765,0.9996924699927826,21.656659140003892
73.0,248898341.0971431,10822734.688017232,0.9996992022506991,21.734941602990734
74.0,288287397.90263987,12408973.038876586,0.9997054383840441,21.80965969102824
75.0,333330124.8634079,14161961.202608464,0.9997111996244946,21.880668342493717
76.0,384620066.18491036,16090493.030529696,0.9997165052652384,21.947824937529393
77.0,442787967.30873185,18206997.87459365,0.9997213727652031,22.010989770658732
78.0,508519036.79427916,20531865.80496333,0.999725817841507,22.070026538523763
79.0,582585450.9179225,23097317.569988962,0.9997298545521078,22.124802842160182
80.0,665892164.7377722,25950738.98015386,0.9997334953698339,22.17519069743481
81.0,759534333.6742035,29157571.275089376,0.9997367512454914,22.221067057365577
82.0,864866073.1681273,32803822.128556784,0.9997396316622245,22.26231434782624
83.0,983578058.979107,36998232.22134448,0.9997421446817211,22.29882100279401
84.0,1117784552.787079,41874156.66552105,0.9997442969821067,22.330482005866788
85.0,1270118775.4567492,47591203.67686306,0.9997460938877184,22.35719943167877
86.0,1443836404.4346626,54336667.27108922,0.9997475393909934,22.37888298437805
87.0,1642927016.1982632,62326786.7033076,0.9997486361665802,22.395450529545275
88.0,1872233418.929237,71807861.0391985,0.9997493855777266,22.406828615622057
89.0,2137578922.90628,83057243.44523776,0.9997497876749424,22.412952980624826
90.0,2445902678.324045,96384236.18872425,0.9997498411868726,22.413769039651932
91.0,2805403273.536807,112130903.955635,0.9997495435032663,22.409232348458055
92.0,3225690831.373604,130672819.75186546,0.9997488906498601,22.39930903817914
93.0,3717947867.5250254,152419755.66847485,0.9997478772549364,22.383976216152774
94.0,4295099189.33884,177816327.63997117,0.999746496507257,22.363222327701965
95.0,4971991106.436035,207342600.40234253,0.9997447401049963,22.337047473744295
96.0,5765580202.983907,241514658.16760263,0.9997425981952406,22.305463679161065
97.0,6695131888.522658,280885140.78987545,0.9997400593035369,22.268495107020097
98.0,7782428787.442409,326044035.96605647,0.999737110252901,22.22617821399711
99.0,9051991836.22217,377624755.24916166,0.999733736071609,22.178561842688392
100.0,10531344614.300413,436326630.50378495,0.9997299198890086,22.125707246953876
101.0,12251392406.539778,502958133.58137554,0.9997256428184891,22.06768804697459
102.0,14247000216.7284,578499863.5053644,0.9997208838266449,22.004590111348914
103.0,16557853898.24716,664186170.7204195,0.9997156195875592,21.93651136428228
104.0,19229688727.3677,761604362.9365193,0.999709824321007,21.863561516736212
105.0,22315970348.9194,872810692.0294211,0.9997034696132532,21.785861721283258
106.0,25880114462.400085,1000462330.9876758,0.9996965242189721,21.70354415134998
107.0,29998332887.40175,1147964656.4093912,0.9996889538426659,21.616751506503373
108.0,34763195168.22385,1319633215.6445713,0.9996807208977873,21.52563644642798
109.0,40287988354.455635,1520870044.6369739,0.9996717842410209,21.43036095778616
110.0,46712005739.83192,1758352368.4342406,0.9996620988826019,21.331095655454487
111.0,54206780198.8653,2040236222.9678686,0.9996516156629499,21.228019031629344
112.0,62983407612.31768,2376369640.5802803,0.9996402809042187,21.12131664570828
113.0,73301085646.4603,2778519710.482736,0.9996280360209147,21.011180279555848
114.0,85476839898.60802,3260608972.6563687,0.9996148170968652,20.89780704918624
115.0,99896599887.17151,3838959986.594156,0.9996005544233977,20.78139848978947
116.0,117027756119.0932,4532551368.034201,0.9995851719854781,20.662159625436022
117.0,137433061492.69395,5363278487.78966,0.999568586905184,20.54029802340893
118.0,161786112301.5655,6356218376.688477,0.9995507088329,20.416022849632114
119.0,190888472012.68396,7539905934.672148,0.999531439271085,20.289543931815576
120.0,225688203662.15457,8946657970.162142,0.9995106708437225,20.1610708373192
121.0,267300514366.30273,10613084971.558361,0.9994882864954111,20.030811977611013
122.0,317031510643.23175,12580983280.866295,0.9994641586034376,19.89897374228509
123.0,376406660836.5386,14898783239.237059,0.9994381480204254,19.76575967511006
124.0,447207393894.4189,17623740058.12243,0.999410103022554,19.631369696299117
125.0,531519416869.816,20825060662.651314,0.9993798581462362,19.4959993719841
126.0,631797054258.989,24588107202.90859,0.9993472329355837,19.3598392462429
127.0,750950112879.3467,29019852716.59685,0.9993120305638294,19.22307423095153
128.0,892459271032.205,34255768829.44296,0.9992740363129249,19.08588305428863
129.0,1060526584267.5549,40468205694.75497,0.9992330159379108,18.948437783134906
130.0,1260270578299.722,47876433801.36226,0.9991887138643109,18.810903406499097
131.0,1497973126624.8958,56758480806.452324,0.9991408512067289,18.673437482101956
132.0,1781385541890.0354,67464690448.74809,0.9990891236375751,18.536189858547782
133.0,2120106945841.853,80433175686.1106,0.999033199033392,18.399302453598978
134.0,2526037094059.816,96207083440.81683,0.9989727149225252,18.262909099813665
135.0,3013916667589.441,115453710451.592,0.9989072756834465,18.127135445609124
136.0,3601958954747.816,138985221944.92633,0.9988364495140837,17.992098918601172
137.0,4312578107417.3022,167780957215.50534,0.9987597651209308,17.857908739799623
138.0,5173219834115.556,203011338841.96793,0.9986767080999164,17.724665984914434
139.0,6217296721712.443,246064121091.12228,0.9985867170175509,17.59246369459025
140.0,7485233326455.632,298575872064.78796,0.9984891791508607,17.46138702542335
141.0,9025648609563.074,362473719010.7335,0.9983834258387592,17.331513434949848
142.0,10896727896844.045,440034135851.52924,0.9982687274404473,17.202912900197653
143.0,13167857776126.605,533967416661.0765,0.9981442878867056,17.075648166381956
144.0,15921653374641.064,647538254774.1982,0.9980092387528283,16.949775016790362
145.0,19256555910766.07,784733847386.0486,0.9978626328218747,16.825342561387036
146.0,23290208941770.934,950490898371.6887,0.997703437162407,16.702393544465735
147.0,28163873254780.66,1150994046948.7932,0.9975305256312129,16.580964662605716
148.0,34048198107309.395,1394057948405.6475,0.9973426707438464,16.461086889508053
149.0,41150687835995.48,1689602253726.1357,0.9971385349460348,16.342785808443804
150.0,49725180130609.164,2050228026956.8457,0.9969166612244957,16.226081947165362
151.0,60083704789664.945,2491902978179.5645,0.9966754629646322,16.110991110793623
152.0,72611079712324.64,3034756723540.9985,0.9964132130602081,15.997524712603349
153.0,87782434691720.38,3703982109299.053,0.996128032293666,15.885690101553765
154.0,106183873657939.69,4530838857386.781,0.9958178768539425,15.775490881712733
155.0,128536420198521.44,5553754311983.044,0.9954805249508559,15.666927222933833
156.0,155723182791511.5,6819525239195.535,0.9951135626332056,15.559996163668423
157.0,188819673980866.22,8384675254842.685,0.9947143686712449,15.45469190227785
158.0,229127597179264.62,10317078529309.58,0.9942800984259637,15.351006075940907
159.0,278212843957054.44,12698018999644.832,0.9938076668291775,15.248928028105489
160.0,337948779173897.0,15624942126912.322,0.9932937304459546,15.148445063186712
161.0,410567298588012.75,19215233014546.414,0.9927346684887073,15.049542687245458
162.0,498721361342595.06,23611401695537.52,0.9921265628632658,14.952204835311928
163.0,605563090949876.2,28988085120960.664,0.9914651774263378,14.85641408571267
164.0,734843054939385.1,35561310862313.26,0.9907459362802584,14.762151860269766
165.0,891037391743868.5,43600431983467.18,0.9899639011370907,14.66939861091013
166.0,1079509310554901.0,53442996898641.336,0.9891137481145966,14.578133993488779
167.0,1306710249137810.0,65512777078910.01,0.988189743867362,14.488337028441327
168.0,1580426321159060.2,80341004577707.52,0.987185721059096,14.399986248676356
169.0,1910074015731668.2,98590537901723.17,0.9860950535824878,14.313059835432552
170.0,2307042848004554.0,121082541110492.12,0.9849106317407887,14.227535742393172
171.0,2785082428287009.0,148825339100134.56,0.9836248373540082,14.143391808421356
172.0,3360729744039583.0,183045299739930.84,0.9822295191635181,14.060605859602124
173.0,4053766650558829.0,225220250008259.56,0.9807159691869973,13.979155801029064
174.0,4887701247535912.0,277117497519002.0,0.9790748999978578,13.899019698863047
175.0,5890275873334547.0,340839893418966.1,0.977296423312756,13.820175853346614
176.0,7094013587494550.0,418884537999518.2,0.9753700308360633,13.742602863100801
177.0,8536818126173311.0,514220673869991.5,0.9732845776174716,13.66627968134583
178.0,1.0262666496041144e+16,630394062162499.1,0.9710282683247946,13.59118566473496
179.0,1.2322449072781654e+16,771664427454605.1,0.9685886474594416,13.517300615129104
180.0,1.4774995530501654e+16,943181733197588.2,0.9659525943384415,13.44460481474755
181.0,1.768833938762786e+16,1151205034016014.5,0.9631063232349909,13.373079055479716
182.0,2.114126891709538e+16,1403363294607653.5,0.9600353896998902,13.3027046627772
183.0,2.52251706694257e+16,1708951153838493.5,0.9567247044435429,13.233463514214423
184.0,3.0046124913093492e+16,2079249781180192.0,0.9531585552289025,13.165338053572212
185.0,3.572719416467986e+16,2527857903187211.5,0.9493206378281372,13.098311300910321
186.0,4.241080797486292e+16,3071014239723125.0,0.9451940975872897,13.032366858604897
187.0,5.02610373662551e+16,3727902030481871.5,0.9407615823352167,12.967488913964578
188.0,5.946560750572434e+16,4520937174171340.0,0.9360053075742051,12.903662238995157
189.0,7.023755285790306e+16,5476053171756231.0,0.9309071353547671,12.84087218737468
190.0,8.281635623314794e+16,6623017101354839.0,0.9254486677438056,12.77910468881841
191.0,9.746856570390093e+16,7995828510299850.0,0.919611355523482,12.71834624152067
192.0,1.1448802251693542e+17,9633255378454318.0,0.913376623187339,12.658583902854458
193.0,1.3419590448480352e+17,1.157955062039326e+16,0.9067260108232522,12.59980527817916
194.0,1.569406093898896e+17,1.3885385919269546e+16,0.8996413328647305,12.541998508396805
195.0,1.8309779968852166e+17,1.6608994642961324e+16,0.8921048545684577,12.485152256737635
196.0,2.130709035736588e+17,1.9817430433702316e+16,0.8840994849421484,12.429255693789262
197.0,2.4729137880471837e+17,2.358787626771323e+16,0.8756089869429937,12.374298482735883
198.0,2.862193279322659e+17,2.800874963670419e+16,0.866618202053101,12.320270763048688
199.0,3.303427637361705e+17,3.3180495807968856e+16,0.8571132902030454,12.26716313463268
200.0,3.801758623461218e+17,3.921578581042492e+16,0.8470819794840435,12.214966640761022
201.0,4.3625484280401517e+17,4.6239069364591624e+16,0.8365138280958032,12.163672751663592
202.0,4.991304349835344e+17,5.438544637579187e+16,0.8254004894502364,12.113273347336957
203.0,5.6935659360541146e+17,6.379900409058459e+16,0.813735981272738,12.063760700776617
204.0,6.474765275471689e+17,7.463078505314651e+16,0.8015169527006589,12.015127461135604
205.0,7.340033330482454e+17,8.70368569470161e+16,0.7887429439197702,11.96736663720364
206.0,8.294010823054317e+17,1.0117649718936309e+17,0.7754166337821699,11.92047158088748
207.0,9.340615232520184e+17,1.1721100219499819e+17,0.7615440680375894,11.874435964803693
208.0,1.0483203469183174e+18,1.352352295347601e+17,0.7471088913348828,11.831476326966653
209.0,1.1722964903721485e+18,1.5533777435134886e+17,0.7321015149013574,11.793070578221
210.0,1.305903705426594e+18,1.7764587840990998e+17,0.7165351364322534,11.758917429061363
211.0,1.4489003934922368e+18,2.022718308173999e+17,0.7004246909108887,11.728924965529059
212.0,1.6008750835937367e+18,2.2931413294430576e+17,0.6837893204613387,11.703003021595178
213.0,1.7612309629393915e+18,2.588519664903545e+17,0.6666524948529221,11.681063104105295
214.0,1.9291832598817718e+18,2.909374303057947e+17,0.6490420680605844,11.66301831689128
215.0,2.1037589999945375e+18,3.255864182485097e+17,0.6309903036379584,11.648783298224807
216.0,2.283794116300557e+18,3.627695785288556e+17,0.612533830452315,11.638274159792314
217.0,2.467926652970623e+18,4.02404756357027e+17,0.5937135241564879,11.631408427690156
218.0,2.654603508563596e+18,4.443510086456213e+17,0.5745743084238983,11.628104983294689
219.0,2.842061415469261e+18,4.884314577012845e+17,0.5551700016248642,11.62801800150426
220.0,3.0282767279893197e+18,5.346633060770057e+17,0.5356135454120017,11.628010971386692
221.0,3.211495355766035e+18,5.827043615635325e+17,0.5159653735513673,11.628010971386692
222.0,3.389782288185884e+18,6.321575043933258e+17,0.49628628896064814,11.628010971386692
223.0,3.561099789849844e+18,6.8257826758528e+17,0.47663789455713335,11.628010971386692
224.0,3.7233598914507407e+18,7.334831714929217e+17,0.4570820507682422,11.628010971386692
225.0,3.874487411837304e+18,7.843576483412312e+17,0.43768017970907064,11.628010971386692
226.0,4.012486205733246e+18,8.346637566529992e+17,0.4184925562446561,11.628010971386692
227.0,4.135502509956663e+18,8.838470822689714e+17,0.39957764013505387,11.628010331482413
228.0,4.319687102473697e+18,8.239562715302458e+17,0.3648751454633756,12.36188614271074
229.0,4.4210360914325407e+18,7.337756370141565e+17,0.3265910324390415,13.361884979920047
230.0,4.4178827893362104e+18,6.529722159477777e+17,0.290912000822289,14.361883817129382
231.0,4.331047778188396e+18,5.806383665120484e+17,0.2578627377369723,15.36188265433871
232.0,4.1790014193799347e+18,5.15945589578687e+17,0.22743745182863526,16.361881491548036
233.0,3.97796286518561e+18,4.5813878159626643e+17,0.19960145861962406,17.361880328757348
234.0,3.742010980682348e+18,4.0653061634193344e+17,0.17429346097511872,18.361879165966638
235.0,3.4832027472762353e+18,3.604962552798282e+17,0.15142829102577995,19.361878003175928
236.0,3.211699697289888e+18,3.194684930036725e+17,0.1309001886241883,20.361876840385236
237.0,2.935906231618391e+18,2.8293317353618026e+17,0.11258641656629188,21.36187567759454
238.0,2.6626188736715315e+18,2.5042471879187578e+17,0.09635086606813811,22.36187451480384
239.0,2.3971797331073485e+18,2.215221488653422e+17,0.08204785655858986,23.36187335201313
240.0,2.1436354436157668e+18,1.958453052442696e+17,0.06952577886203251,24.361872189222414
241.0,1.9048980394154742e+18,1.7305127258271776e+17,0.05863047512053761,25.361871026431693
242.0,1.6829027382580454e+18,1.5283115846357546e+17,0.04920839009660418,26.361869863640976
243.0,1.4787611314689416e+18,1.3490702910674123e+17,0.041109265174372085,27.361868700850273
