Time,J,A,S,tau
0.0,100.0,10.0,0.5661479185782861,60.87655305956154
1.0,114.53143127159969,19.232621347838737,0.5590894238160613,59.83656169738069
2.0,145.60790735696605,28.131372130786694,0.5517096931203799,58.77472226850759
3.0,192.19209464533407,36.692776788026656,0.5440141947276381,57.69110968513538
4.0,253.18571065414423,44.91404136558638,0.5360085589295734,56.58572983331995
5.0,327.4372426819093,52.79273251807075,0.5276995984152099,55.458593845890334
6.0,413.7502016685846,60.32679851870041,0.5190953165533759,54.30971882569153
7.0,510.89199105616495,67.5145897131217,0.5102049082331749,53.13912849458486
8.0,617.6028222187483,74.3548795641988,0.5010387529366319,51.946853771242075
9.0,732.6051063886088,80.84688469511401,0.4916084001510493,50.73293329716152
10.0,854.6128151661612,86.9902844936239,0.4819265455708943,49.497413903317835
11.0,982.3408609833589,92.7852399301096,0.4720069988547363,48.24035103197645
12.0,1114.5145908382744,98.23241067851713,0.46186464270555677,46.9618091238314
13.0,1249.8785673820464,103.33297200744627,0.45151538142425085,45.66186194249015
14.0,1387.2062518170571,108.08862561214407,0.4409760819251318,44.34059290301035
15.0,1525.3073742114532,112.5016182997653,0.43026450717878323,42.99809534067468
16.0,1663.0372363958404,116.57474314432832,0.41939923625780595,41.63447275503144
17.0,1799.3030171723487,120.31135483679766,0.4083995819864109,40.249839028022635
18.0,1933.071509829611,123.71537104883575,0.39728549886235787,38.84431865515921
19.0,2063.375108971766,126.79127074551656,0.38607748157000876,37.41804688179705
20.0,2189.3163809055477,129.5441009640261,0.37479646115372667,35.97116985080861
21.0,2310.0738523659597,131.9794650096108,0.3634636949785987,34.5038447847383
22.0,2424.9049150895703,134.10352150829542,0.35210065125211465,33.01624007643544
23.0,2533.1491747530345,135.9229635264091,0.3407288913552265,31.50853536725646
24.0,2634.2298394516847,137.4450186643371,0.3293699495644708,29.980921661238366
25.0,2727.655260589384,138.67741966599644,0.31804521265054403,28.433601357954984
26.0,2813.0184184847126,139.62839161240376,0.30677580029400514,26.866788253996912
27.0,2888.749656742615,142.5682140447747,0.2987197959041219,26.158529458740542
28.0,2959.0884066962412,152.9086210188217,0.29236670045119695,25.894685522907633
29.0,3037.0399750573524,169.88106082705855,0.28615019885243353,25.63844940303486
30.0,3133.0162125057755,192.47502549805554,0.280072327581311,25.389643428558703
31.0,3254.763554238913,219.7399210274418,0.2741348045598222,25.148099948419503
32.0,3407.6384945857035,250.78780834678454,0.2683390452185187,24.913659976049388
33.0,3594.8884124152723,284.7951887395943,0.26268617811157563,24.686172098770268
34.0,3817.9264391487814,321.00405547926783,0.25717705960896464,24.465491614244065
35.0,4076.6010810735092,358.72210647584495,0.25181228879192197,24.25147983055954
36.0,4369.45533185934,397.3222574505413,0.24659222166954536,24.044003501039086
37.0,4693.971706075901,436.24150058313796,0.24151698554383771,23.842934365195216
38.0,5046.801085101224,474.9793010433763,0.23658649292072959,23.648148781780954
39.0,5423.971570245055,513.0953591664318,0.23180045495618476,23.45952740905469
40.0,5821.085828705132,550.2069980097,0.2271583967811174,23.276954960849185
41.0,6233.4810585873165,585.9863776655177,0.22265966875535606,23.10031998120176
42.0,6656.392086076384,620.1572400402271,0.21830346214025356,22.9295146791623
43.0,7085.068884902193,652.4915004136341,0.21408882104905397,22.764434751827114
44.0,7514.893036154385,682.8059897161185,0.21001465552201654,22.6049792774809
45.0,7941.470363816241,710.9585857891344,0.20607975541323956,22.45105057939233
46.0,8360.691252105495,736.8448640429301,0.20228280141634253,22.302554121137497
47.0,8768.799126067886,760.3945155847281,0.19862237822939496,22.15939842990883
48.0,9162.426878311797,781.5678542185573,0.1950969861417315,22.021495007461237
49.0,9538.41636559043,800.6476740082454,0.19170505336324986,21.888758236715233
50.0,9893.76367164128,820.3255469197425,0.18844494437444537,21.761105317625105
51.0,10230.12411073111,843.7217872968495,0.18531497298827354,21.638456207121266
52.0,10553.765659649203,872.9830627913416,0.1823134120717966,21.520733550299035
53.0,10873.638036104021,909.4493479998221,0.17943850309483902,21.40786261888863
54.0,11199.875746064079,953.8097350964861,0.1766884656798188,21.299771252280674
55.0,11542.73183826594,1006.2376386853779,0.17406150589453825,21.19638980594704
56.0,11911.778858687603,1066.509944985067,0.17155582502619648,21.097651087088657
57.0,12315.418987903156,1134.1056195754527,0.16916962698319207,21.003490313563752
58.0,12760.543740370998,1208.2913796525368,0.16690112614219246,20.91384505664408
59.0,13252.425022150539,1288.1921792783646,0.164748553693937,20.828655184101773
60.0,13794.671765361145,1372.848383397691,0.1627101642696664,20.747862825598602
61.0,14389.296281171259,1461.2629433322345,0.16078424190743257,20.671412315880115
62.0,15036.854668246602,1552.438074739533,0.15896910521443058,20.599250142326124
63.0,15736.603378948808,1645.4038917804746,0.15726311259239784,20.531324911507287
64.0,16486.697508002402,1739.2397152817684,0.15566466670698145,20.467587296654685
65.0,17284.396139576485,1833.0892211232422,0.1541722184413276,20.40798999033057
66.0,18126.244630526187,1926.1709493034741,0.15278427066760364,20.352487663840026
67.0,19008.282551622462,2017.7844388352678,0.15149938154766548,20.30103692660157
68.0,19926.2038304392,2107.3131398340247,0.15031616741969012,20.253596282452573
69.0,20875.525064085145,2194.2241149448305,0.1492333050094166,20.21012608170482
70.0,21851.585323355932,2278.30681348484,0.14824953408528985,20.17058849368599
71.0,22849.92662904137,2360.1711469060983,0.1473636581402229,20.134947443281625
72.0,23867.41441963829,2441.098076235435,0.1465745473481023,20.103168598290857
73.0,24903.148535877248,2522.7154231683003,0.14588113856875393,20.075219312929658
74.0,25958.76059174484,2606.7682700497453,0.14528243642545366,20.051068593393353
75.0,27038.387100814918,2694.961138581467,0.14477751379712636,20.03068705986879
76.0,28148.43420248301,2788.855155935639,0.1443655120809804,20.014046909662742
77.0,29297.222166673004,2889.8067943474016,0.144045641141196,20.001121881290523
78.0,30494.578893700105,2998.937654658584,0.14381717888137474,19.991887215990037
79.0,31751.43725568108,3117.125637872259,0.14367947076984353,19.986319623904862
80.0,33079.44974127884,3245.0122119108455,0.14363192873323788,19.984397244347434
81.0,34490.67481183812,3383.0184518357096,0.14367403039984067,19.986099614673275
82.0,35997.293379938405,3531.3678519755154,0.14380531770230365,19.991407634402112
83.0,37611.387545071084,3690.1121836382576,0.1440253953695151,20.000303530931404
84.0,39344.77317356396,3859.158425119002,0.1443339292078645,20.012770825612932
85.0,41208.88715315803,4038.2953163505235,0.14473064421522258,20.028794299562353
86.0,43214.69671223279,4227.21840494549,0.14521532238920815,20.048359962740136
87.0,45372.67852253599,4425.553439019973,0.14578780041862918,20.071455017657122
88.0,47692.81052546231,4632.876963028804,0.14644796727857667,20.098067827737733
89.0,50184.583339039214,4848.733976308414,0.14719576153318936,20.128187888913573
90.0,52857.036303157314,5072.663316298861,0.14803116832784682,20.16180578971885
91.0,55718.791182117915,5304.2953530928835,0.14895421673335962,20.198913188543774
92.0,58778.228762191735,5543.483451841145,0.14996497594746194,20.23950276929874
93.0,62043.86637964167,5790.390440428106,0.1510635523738405,20.283568218024232
94.0,65524.850349209984,6045.52158642122,0.15225008621748892,20.331104194337467
95.0,69231.4643212471,6309.719037895883,0.15352474784541195,20.38210629756112
96.0,73175.62904947752,6584.138072299539,0.15488773378771845,20.436571032348066
97.0,77371.34696281156,6870.212658064172,0.1563392628540671,20.49449577774935
98.0,81835.08448946553,7169.616137439467,0.157879572131537,20.555878756395213
99.0,86586.08095438695,7484.221610225216,0.15950891285027213,20.62071900376503
100.0,91646.60103677717,7816.063951034399,0.16122754619715474,20.689016340989358
101.0,97042.16065787672,8167.303164586651,0.16303573891983594,20.760771342811818
102.0,102801.65383272555,8540.194871073936,0.16493375877901295,20.835985304536802
103.0,108957.45423755575,8937.064042901586,0.16692187011826862,20.914660206027033
104.0,115545.5624228501,9360.28460163952,0.16900032921181285,20.99679869374
105.0,122605.5829933239,9812.263268852264,0.17116937964750045,21.082404041427264
106.0,130180.7901368533,10295.426608560563,0.1734292476325839,21.17148012208471
107.0,138318.15036724415,10812.211944424345,0.17578013727835126,21.26403137782555
108.0,147068.33479269172,11365.06133870302,0.17822222587284073,21.360062789960676
109.0,156485.7235471487,11956.418070530868,0.18075565915704553,21.459579849332343
110.0,166628.40378805983,12588.725195024357,0.18338054662062273,21.56258852695731
111.0,177558.16193854186,13264.425657180658,0.18609695683363117,21.669095245046922
112.0,189340.46906123933,13985.965204018625,0.18890491283123198,21.779106848484876
113.0,202044.45877405524,14755.807555051102,0.19180438756857002,21.892630576858224
114.0,215742.91709625372,15576.468632256629,0.1947952994686041,22.00967403714042
115.0,230512.3206503378,16450.565662054065,0.19787750806366794,22.130245177215972
116.0,246432.9452484804,17380.872087511772,0.20105080975748926,22.254352260337246
117.0,263589.04513710993,18370.37451159965,0.20431493373993392,22.382003840684128
118.0,282069.10996606236,19422.32867160389,0.20766953805037622,22.513208740297703
119.0,301966.1903810413,20540.312621337154,0.21111420581149024,22.64797602760733
120.0,323378.2847149986,21728.274664955137,0.21464844164777525,22.78631499783731
121.0,346408.7732050149,22990.577044811802,0.2182716683017934,22.928235155625554
122.0,371166.88704020676,24332.034657682165,0.22198322345949328,23.07374620024037
123.0,397768.19867035834,25757.949083871757,0.22578235679408726,23.222858013843094
124.0,426335.1213592676,27274.137612224717,0.22966822723573285,23.375580653316273
125.0,456997.40292999725,28886.958509134136,0.23363990047171432,23.531924346259878
126.0,489892.6014189282,30603.332152919746,0.2376963466789115,23.69189949185441
127.0,525166.5301577876,32430.75834200273,0.24183643848705785,23.85551666740103
128.0,562973.6583827719,34377.330191971654,0.24605894916760312,24.022786641478277
129.0,603477.455659464,36451.745222981976,0.250362551038882,24.193720394804483
130.0,646850.6683256882,38663.31322032121,0.25474581407371755,24.36832915006865
131.0,693275.5158592166,41021.961159152204,0.2592072046905248,24.54662441219343
132.0,742943.7956446086,43538.23534681245,0.2637450847033866,24.728618020726778
133.0,796056.8852159972,46223.300738898535,0.2683577104004056,24.91432221632803
134.0,852825.6313358934,49088.93725399001,0.2730432317128469,25.103749723625736
135.0,913470.1161812224,52147.532938499135,0.2777996914301193,25.296913853084277
136.0,978219.2912794827,55412.07379096722,0.28262502440743703,25.49382862493153
137.0,1047310.470704583,58896.130106369004,0.2875170567039946,25.69450891867803
138.0,1120988.6763940477,62613.83946285792,0.2924735045796025,25.89897065230833
139.0,1199505.8287343774,66579.88714420746,0.2974919732674101,26.107230995861908
140.0,1283119.765180201,70809.48574229144,0.30256995543862797,26.31930862503825
141.0,1372093.1489076677,75318.35467489388,0.30770482920114833,26.535224020614514
142.0,1466692.2079242137,80122.70060156845,0.3128938555822051,26.754999821181872
143.0,1567185.7314970691,85239.19318220917,0.3181341751817495,26.978661229850054
144.0,1673842.2766757093,90684.96465181488,0.32342280459865824,27.206236522084698
145.0,1786929.8857399903,96477.56887358251,0.3287566307990486,27.437757592713467
146.0,1906713.8854933367,102634.96429734613,0.3341324050915196,27.673260623262728
147.0,2033455.0511426444,109175.48496513834,0.33954673547961783,27.91278685079508
148.0,2167407.7825519,116117.80243940464,0.34499607742081906,28.15638345459663
149.0,2308818.509375721,123480.87350828195,0.3504767218724597,28.40410461025683
150.0,2457922.2377529964,131283.8987156895,0.3559847843635513,28.656012624670016
151.0,2614940.9947756887,139546.2385779268,0.36151618646770917,28.91217941654418
152.0,2780082.8399828062,148287.29584471812,0.3670666372509042,29.17268807096507
153.0,2953539.334811125,157526.3956023277,0.37263161318206145,29.437634594034268
154.0,3135482.8195860847,167282.62928158286,0.3782063306655121,29.707130150838225
155.0,3326063.9567826255,177574.68469569852,0.38378572500311753,29.981302986287655
156.0,3525408.1693809396,188420.60937809834,0.3893644105780167,30.260301560502352
157.0,3733614.091419437,199837.46965654774,0.3949366361706208,30.54429809169385
158.0,3950755.3913497655,211841.01127609526,0.4004962626016636,30.833490645747215
159.0,4176873.914633332,224445.35962418636,0.4060367225019284,31.128106637643015
160.0,4411968.983957713,237662.36907589994,0.41155092284948935,31.428410618798324
161.0,4656020.735527986,251501.00087092415,0.41703125509117156,31.734703728057998
162.0,4908948.650428831,265967.2623821257,0.4224695277418153,32.04733047590108
163.0,5170657.152772751,281061.9209021528,0.42785682465449804,32.36668900049702
164.0,5440953.331959715,296781.8901814954,0.43318356167532873,32.69323048970985
165.0,5719658.301078225,313117.19495596987,0.43843941673958803,33.0274624539049
166.0,6006496.423457759,330051.108222177,0.44361320313964553,33.36996348859191
167.0,6301168.450246303,347558.1413403566,0.4486928995953311,33.72138116201659
168.0,6603309.330445888,365604.0264596202,0.45366564785107605,34.08243541003659
169.0,6912485.4138307925,384142.8689679191,0.4585176384154766,34.45393228111018
170.0,7228213.859162734,403117.49413453555,0.4632342790239244,34.83675239982502
171.0,7549946.068504516,422457.57879724813,0.4678001777966338,35.23185812376929
172.0,7877066.59643585,442079.00114601525,0.47219926917240457,35.640288794635175
173.0,8208895.220434051,461883.0552227066,0.47641497786612025,36.063154106899155
174.0,8544691.164479265,481756.8574518809,0.4804304529971828,36.5016205836772
175.0,8883650.613721462,501573.53052800085,0.48422884480448364,36.95689719291857
176.0,9224911.300524643,521193.58194820426,0.4877936592595732,37.43021326325375
177.0,9567557.718123017,540466.9398725017,0.4911091673059651,37.92279188708793
178.0,9910628.004384313,559235.8840117281,0.494160861706842,38.43581849918056
179.0,10253122.760950547,577338.805822591,0.49693594256504153,38.97040564972523
180.0,10594015.71599608,594614.7369632309,0.4994238090991455,39.52755531624363
181.0,10932266.661530564,610908.3877564481,0.5016165192582187,40.10812118806182
182.0,11266835.621585801,626075.4291744835,0.5035091829855951,40.712773496547506
183.0,11596698.207148898,639987.6176092634,0.5051002591233523,41.34196881134807
184.0,11920861.618789848,652537.3311027907,0.5063917169735801,41.99592798179798
185.0,12238381.139561962,663641.511373193,0.5073890918838889,42.674620694363036
186.0,12548374.803338422,673243.7084516705,0.5081012962356652,43.37776739565334
187.0,12850034.9222961,681315.1902931466,0.5085403782475699,44.10484651914679
188.0,13142650.252083674,687856.6349134501,0.5087212641920474,44.855099318787
189.0,13425597.120503208,692891.9688932213,0.508660876112574,45.627591572425686
190.0,13698366.9388516,696471.2012065568,0.5083780575801475,46.421204828033616
191.0,13960550.519570272,698661.8731761425,0.5078925746916026,47.234711799480806
192.0,14211846.781480175,699547.8085874366,0.5072248151687316,48.0667929483153
193.0,14452062.664827334,699224.5128049502,0.506395179480113,48.916079243900725
194.0,14681102.084629169,697794.4737366418,0.5054236272977493,49.78118932786263
195.0,14898957.929770939,695363.8320479946,0.5043293720366112,50.66075516894314
196.0,15105708.683455087,692039.1498407664,0.5031305239688151,51.55344950792009
197.0,15301505.825814005,687924.6179668647,0.5018439054562213,52.458005035198056
198.0,15486561.61825402,683120.307293058,0.5004849960722915,53.37322416093921
199.0,15661142.1772134,677720.4864790746,0.49906780645913473,54.297991487073766
200.0,15825557.644219082,671812.4622349698,0.49760484620074574,55.23128059329078
201.0,15980150.77162961,665476.4743532538,0.496107250174904,56.17215005836321
202.0,16125290.058968753,658785.3462154554,0.4945848079563569,57.119744387086726
203.0,16261362.703343831,651804.1416582041,0.4930459858712197,58.07329538835507
204.0,16388766.813267568,644590.9203549253,0.4914981110421915,59.032112140592936
205.0,16507906.359155964,637197.1079142381,0.48994746881984946,59.99557602676241
206.0,16619186.325247701,629667.610093789,0.48839935431738773,60.96313887373807
207.0,16723008.166259078,622041.4336844645,0.48685819410511183,61.9343158852386
208.0,16819767.77842711,614352.7980111481,0.4853277250814008,62.90867357828455
209.0,16909850.64601702,606630.5839434947,0.4838109335316794,63.8858357951487
210.0,16993632.440631747,598899.9883306187,0.48231030067177216,64.86546588185179
211.0,17071475.143961333,591182.1462429303,0.4808277582612348,65.84727115237106
212.0,17143727.40879443,583495.0712124549,0.4793648288787025,66.83099266954069
213.0,17210722.940813974,575853.8090523984,0.4779226480854447,67.8164041507507
214.0,17272781.099611584,568271.0160357434,0.47650205234258114,68.80330545892836
215.0,17330203.652071036,560756.872832502,0.4751035672342169,69.79152441860299
216.0,17383282.149465207,553320.2266924522,0.47372756062599836,70.78090351213827
217.0,17432284.423827995,545967.4564445482,0.4723741053678142,71.77131394430099
218.0,17477473.42027663,538704.436018308,0.471043216483314,72.76263265202742
219.0,17519090.0678487,531535.1868943621,0.46973470447248655,73.75475831809511
220.0,17557361.709483825,524462.8082748033,0.4684482751746201,74.74760138800836
221.0,17592509.490136098,517489.9151702901,0.467183587768093,75.74107771856724
222.0,17624730.906981744,510617.78858200327,0.46594016639629743,76.73512038792335
223.0,17654218.157062903,503847.4623105975,0.46471750944882645,77.72966597790696
224.0,17681152.29935492,497179.3903898221,0.46351506706994244,78.72465821542245
225.0,17705694.755016897,490613.3073799136,0.4623322254968212,79.72005165850564
226.0,17728005.181617815,484148.88400095823,0.461168365550369,80.71580181748116
227.0,17748232.13545285,477785.36554190353,0.4600228413842328,81.71186984815803
228.0,17766506.577528305,471521.5852009659,0.45889497981543625,82.70822452773655
229.0,17782958.180562526,465356.3549973552,0.4577841062013158,83.70483514392451
230.0,17797710.33391779,459288.27369071316,0.45668953874853724,84.701673707862
231.0,17810868.66074027,453315.67767199205,0.4556105902526379,85.6987184707799
232.0,17822536.085553885,447436.8917106967,0.45454657391448544,86.6959485107135
233.0,17832814.500469126,441650.18104927836,0.4534968021446709,87.6933433860728
234.0,17841791.84816968,435953.6432564514,0.4524605957187817,88.6908868625523
235.0,17849548.035078965,430345.3836982634,0.4514372833541289,89.68856475524719
236.0,17856162.945537943,424823.5071627812,0.4504261937735928,90.6863628870476
237.0,17861713.63790335,419386.0334310722,0.4494266589172251,91.68426797969138
238.0,17866263.646905687,414030.9983814111,0.4484380329008431,92.68226978711058
239.0,17869873.31904868,408756.47964347585,0.4474596756767959,93.68035866416812
240.0,17872603.01417431,403560.5536398676,0.44649094716621573,94.67852496614942
241.0,17874510.58654365,398441.240697034,0.44553121302102155,95.67675968285417
242.0,17875643.344264477,393396.6524635561,0.44457986316872083,96.67505564837444
243.0,17876046.17878653,388424.95790087205,0.4436362931167386,97.67340602758684
244.0,17875763.99076581,383524.32512437424,0.44269989835790835,98.67180398575368
245.0,17874839.965751868,378692.8874337793,0.4417700799622529,99.67024305052705
246.0,17873309.290491015,373928.90684950585,0.440846260685834,100.66871778276565
247.0,17871205.180341475,369230.708941235,0.4399278681566704,101.66722292615655
248.0,17868560.856865775,364596.6186903976,0.43901432999779577,102.66575322487458
