Time,J,A,S,tau
0.0,100.0,10.0,0.7943864915577946,18.792598366855824
1.0,97.81672520921173,10.622894793782361,0.7932827336047559,19.522130836983898
2.0,95.67878158114517,11.154817052926443,0.7921792153661449,20.25622818161882
3.0,93.58461344660297,11.606408431093527,0.7910763763168104,20.99455153465019
4.0,91.53246064651307,11.986898054740744,0.789974413004081,21.736927113984798
5.0,89.52062286983957,12.304541251177087,0.7888735041555599,22.48318542076619
6.0,87.54745760296554,12.566721579202486,0.7877738113515483,23.233161117242144
7.0,85.61137771421616,12.780035056850668,0.7866754798182064,23.986692873639175
8.0,83.7108489336501,12.950380849476698,0.7855786392618331,24.743623201676478
9.0,81.84438784943784,13.08302952703068,0.7844834045592214,25.503798321054482
10.0,80.010559643117,13.18269626473577,0.7833898765319447,26.267068002172135
11.0,78.20797616348446,13.25358783438927,0.7822981426264608,27.033285429923314
12.0,76.43529378608069,13.299467470913937,0.78120827766186,27.802307047067536
13.0,74.69121155920973,13.323690097332014,0.780120344495745,28.573992415687265
14.0,72.97446922253894,13.329257527302723,0.7790343947300972,29.348204064876786
15.0,71.2838455669853,13.318841550928456,0.7779504693202547,30.12480736119961
16.0,69.61815646912626,13.29483271572932,0.776868599275698,30.903670351159143
17.0,67.97625355906167,13.259357495689779,0.7757888061884446,31.684663647588128
18.0,66.35702212744329,13.214316366799673,0.7747111029619839,32.46766025780123
19.0,64.75937989511839,13.161402702630955,0.773635494312822,33.2525354712549
20.0,63.182274941252615,13.102124109727358,0.7725619774736288,34.039166687125686
21.0,61.62468495088974,13.037821644751357,0.7714905425777338,34.82743332971201
22.0,60.085616007844195,12.96968795201876,0.7704211731694046,35.61721672697693
23.0,58.56409972259005,12.898789182823753,0.769353847068554,36.408399880605195
24.0,57.05919268384909,12.826070876715857,0.7682885366830137,37.20086739298911
25.0,55.569976914964435,12.752369047988287,0.7672252091845662,37.994505438868174
26.0,54.09555520303596,12.678432781531583,0.7661638276875381,38.789201428496376
27.0,52.635052085648994,12.604924949731135,0.765104351250167,39.584844022791614
28.0,51.18761383763189,12.532430800179545,0.7640467352303489,40.38132304817282
29.0,49.75240264956967,12.46147465738022,0.762990932426269,41.1785291481609
30.0,48.32860265118516,12.392518804353333,0.7619368925201736,41.976353988297
31.0,46.91541060098852,12.325972506734203,0.7608845635965635,42.77468977178272
32.0,45.51204285808389,12.262204759763486,0.7598338916294093,43.57342943841075
33.0,44.11772709286066,12.20152671588394,0.7587848216388793,44.37246628181802
34.0,42.73170859292488,12.144241220433535,0.7577372975635296,45.17169403526105
35.0,41.35324100747175,12.09058586661161,0.7566912630453797,45.97100658060024
36.0,39.981595089070154,12.0408005109754,0.7556466617402752,46.7702979272932
37.0,38.61604726381446,11.995087759823555,0.7546034374428399,47.56946208920729
38.0,37.25588886606165,11.95361480305301,0.7535615351659898,48.3683928450516
39.0,35.90041680054007,11.916565098466185,0.7525209005366423,49.16698383977567
40.0,34.54893885781415,11.884042914637826,0.7514814813008098,49.96512818813648
41.0,33.20077019075199,11.85623672326661,0.750443227142684,50.76271849847984
42.0,31.855230784543767,11.833215639100935,0.7494060892588653,51.55964697508269
43.0,30.51165011414705,11.815111052924234,0.748370023352144,52.3558045772151
44.0,29.16935973698091,11.802040374418853,0.7473349862124743,53.151081961364426
45.0,27.827698100551313,11.794047439046132,0.7463009399201566,53.945368280792486
46.0,26.48600676351342,11.791283146980122,0.7452678499822777,54.73855170445744
47.0,25.143630145691844,11.793767556833513,0.7442356851678722,55.53051945851662
48.0,23.799916228988902,11.801615952121175,0.7432044217060422,56.32115659356419
49.0,22.454213884647583,11.814910442702315,0.7421740375896202,57.11034764411612
50.0,21.105874015024288,11.833682270126227,0.7411445195420375,57.89797457362036
51.0,19.754247638453837,11.858073406980653,0.7401158589333486,58.683917972468876
52.0,18.398686252933874,11.888101476678491,0.7390880529214354,59.46805671455188
53.0,17.038540384851377,11.923873216196064,0.7380611073457006,60.250267095790136
54.0,15.673160015196641,11.96542613393097,0.737035033343465,61.030423833577935
55.0,14.301892604747879,12.012870737282311,0.7360098522695918,61.80839860111893
56.0,12.924084465640679,12.066253077927884,0.7349855909088601,62.584061449804004
57.0,11.539077812725436,12.125681285583843,0.7339622880216146,63.35727885737065
58.0,10.14621289055605,12.1912290349769,0.7329399884119558,64.12791549519773
59.0,8.744825309233343,12.262984070020966,0.7319187487102072,64.89583250306197
60.0,7.334246930764655,12.34101961752163,0.7308986347078172,65.66088828420271
61.0,5.913804634107932,12.425447633934837,0.729879723067659,66.4229379977642
62.0,4.482820281895683,12.516353654116042,0.7288621016759049,67.1818334528526
63.0,3.0406101873322013,12.613835594510732,0.7278458699405689,67.93742302306376
64.0,1.5864846757853996,12.718004469616782,0.7268311393507033,68.68955148229367
65.0,0.11974777364267536,12.82896407465032,0.7258180341213277,69.43805981424731
66.0,0.0,12.946826129256227,0.7248066915556163,70.18278510836173
67.0,0.0,13.071706805415932,0.7237972626153338,70.92356039290884
68.0,0.0,13.203728138602372,0.7227899124719671,71.66021447428417
69.0,0.0,13.343017473968684,0.7217848209912826,72.39257179586993
70.0,0.0,13.489706526368716,0.7207821833160103,73.120452267506
71.0,0.0,13.643927916919898,0.7197822100925363,73.84367119982677
72.0,0.0,13.805828370704685,0.7187851281707129,74.56203909935032
73.0,0.0,13.975555798342336,0.7177911818571278,75.2753612962451
74.0,0.0,14.153247666570827,0.7168006315150156,75.98343835752198
75.0,0.0,14.339081398589489,0.715813756000841,76.68606536835951
76.0,0.0,14.533202912350612,0.7148308526824926,77.3830319147467
77.0,0.0,14.735771474011957,0.7138522355277958,78.07412265260845
78.0,0.0,14.946976135425698,0.7128782412024259,78.75911548764226
79.0,0.0,15.166967093349712,0.7119092215776757,79.4377837897395
80.0,0.0,15.395959841358748,0.7109455527409647,80.10989370485834
81.0,0.0,14.399287293353604,0.7108085921188539,80.16910664823669
82.0,0.0,13.452409107281245,0.7111261913641986,79.88451955844067
83.0,0.0,13.349756210448426,0.7115052504698373,79.54473877548735
84.0,0.0,13.246057901330317,0.7119490288683519,79.14679345135043
85.0,0.0,13.141290849326747,0.7124608552403116,78.68765247181496
86.0,0.0,13.035432365213886,0.7130441073288583,78.16425034015701
87.0,0.0,12.928460472259088,0.713702165816793,77.5735396904061
88.0,0.0,12.82035392010796,0.7144383773339869,76.91253701322738
89.0,0.0,12.711092259078153,0.7152560052672264,76.17838589806128
90.0,0.0,12.600655946396142,0.7161581481729016,75.36845747941356
91.0,0.0,12.48902634204074,0.7171476790689413,74.4804262895598
92.0,0.0,12.376185824615114,0.7182271461910619,73.51239742879733
93.0,0.0,12.262117841381112,0.719398676467062,72.46302907451634
94.0,0.0,12.146806996993307,0.7206638569398301,71.33168167561814
95.0,0.0,12.03023913004174,0.7220236144369767,70.11856684512287
96.0,0.0,11.91240137191338,0.7234781099401713,68.8248734550293
97.0,0.0,11.793282256662696,0.7250266030758756,67.452925217423
98.0,0.0,11.672871792941406,0.7266673532390237,66.00628144021347
99.0,0.0,11.551161548377705,0.7283975402858517,64.48980111718281
100.0,0.0,11.428144749531464,0.730213203861091,62.909668017556285
101.0,0.0,11.303816363651823,0.7321092348155543,61.27333574354079
102.0,0.0,11.17817320317397,0.7340794062826583,59.58940839422147
103.0,0.0,11.051214008106491,0.7361164601049586,57.86744338335788
104.0,0.15738400463679444,10.922939550234304,0.7382122375567416,56.1176950157151
105.0,2.178189356538619,10.793352726664054,0.7403578558185478,54.350808448668126
106.0,4.317240583344827,10.662458657098806,0.7425439149184453,52.57749047139394
107.0,6.579804345879719,10.530264778805456,0.7447607235687362,50.808182420133
108.0,8.971081219938158,10.39678094944005,0.7469985279751338,49.05275827875365
109.0,11.496162798603553,10.26201952822003,0.7492477273346118,47.320278548875
110.0,14.159983557326955,10.125995486967293,0.7514990674223787,45.61879586023464
111.0,16.967270473683005,9.988726492457385,0.7537437982877795,43.955237826328606
112.0,19.922488669592983,9.850232995867172,0.7559737947114065,42.335354661583125
113.0,23.029783629692123,9.71053832166907,0.7581816386116329,40.76372433593136
114.0,26.2929208517401,9.56966874976382,0.7603606648192456,39.243806752749286
115.0,29.71522714089253,9.427653572884793,0.7625049714894038,37.77803657463034
116.0,33.29952508465579,9.284525178964127,0.7646094031219521,36.36793260224892
117.0,36.9320423953301,9.260778899349283,0.7666695421566112,35.01420004455067
118.0,40.29376847652986,9.908797275925542,0.7686816107287473,33.71690761976286
119.0,44.153407026091784,10.661273634923791,0.7706424935443961,32.47553318561143
120.0,48.610668501851904,11.53040364602167,0.7725496179571961,31.289125011568608
121.0,53.78517017829807,12.528716168506572,0.7744009123846975,30.156385624307724
122.0,59.819190593011804,13.668884813147931,0.7761947474975086,29.075757466368525
123.0,66.88046486009189,14.963515252483516,0.7779298807820676,28.045495675948064
124.0,75.16493342147552,16.42491314859525,0.7796054052827478,27.06372880876472
125.0,84.89934688053484,18.064837851494172,0.7812207030750892,26.128508577691736
126.0,96.34361803643282,19.89424756609879,0.7827754036600992,25.237849884369243
127.0,109.79280336172374,21.923042040736025,0.7842693472157022,24.389762468747886
128.0,125.57859067805961,24.159808976182664,0.7857025524738768,23.582275459026896
129.0,144.0701683061225,26.611580309272732,0.7870751888905065,22.813456004748705
130.0,165.67435402491736,29.283604298812648,0.7883875527219909,22.08142304780647
131.0,190.8348701352913,32.17913895604597,0.7896400466039709,21.384357148674617
132.0,220.03066397503235,35.29927184239946,0.7908331622319514,20.72050715025496
133.0,253.77319137108572,38.642770615309104,0.7919674657627634,20.08819433632102
134.0,292.60260348326534,42.205967980311655,0.7930435855835781,19.48581462917221
135.0,337.0828156243737,45.98268376679264,0.7940622021716538,18.911839244454097
136.0,387.7251306619983,50.05399611043509,0.795024039411075,18.364814403083777
137.0,445.0231814470805,55.00041456636877,0.7959298581356913,17.843359646328974
138.0,510.4589059651285,61.138420828433695,0.7967804502067162,17.346166157180544
139.0,586.0689274324125,68.7698461624701,0.7975766339213248,16.871994285989736
140.0,674.4888666153832,78.25585541964928,0.7983192504101851,16.419670911132357
141.0,779.099379477301,90.01943593820704,0.7990091608021466,15.98808647096902
142.0,904.1873732840546,104.54563895798279,0.7996472439293989,15.576192076912978
143.0,1055.1180042772833,122.37898620443107,0.8002343946904663,15.182996438074433
144.0,1238.5082765752777,144.11800330140557,0.8007715227258652,14.807562929336042
145.0,1462.3975354940583,170.40666141410122,0.8012595515725592,14.449006634692028
146.0,1736.3992826405274,201.92290043395917,0.801699418012475,14.106491509740577
147.0,2071.830537854716,239.36442457748595,0.8020920717328782,13.779227652475878
148.0,2481.8004043187816,283.43217210182013,0.8024384751181985,13.466468643887307
149.0,2981.2499047642705,334.8160798987653,0.802739603219836,13.167509081142489
150.0,3586.7422454706425,394.71820759881314,0.8029964438129688,12.881682148462955
151.0,4317.782638333254,465.6984171986786,0.8032099975420427,12.6083574025281
152.0,5199.773395203282,551.334642434634,0.8033812781102017,12.3469386085411
153.0,6266.391738231712,656.3840564472837,0.8035113124962873,12.096861736125181
154.0,7562.488476718806,787.0352727360295,0.8036011411847747,11.857593068709614
155.0,9147.640741577045,951.1474951553012,0.8036518183866195,11.628627422613812
156.0,11100.327943980163,1158.4539764222363,0.8036644122391544,11.409486472994505
157.0,13522.618903176817,1420.7062381764956,0.8036400049733916,11.199717184055585
158.0,16545.1870038536,1751.7372091207715,0.803579693039024,10.998890336866234
159.0,20332.398034905484,2167.4252162642883,0.8034845871788013,10.806599149247381
160.0,25087.142826984276,2685.562825258291,0.8033558124454097,10.622457982390324
161.0,31054.801616020486,3326.7831100314856,0.803194508155189,10.446101129005703
162.0,38530.087376108124,4118.507872044998,0.8030018277740728,10.277181677977959
163.0,47873.889960743385,5098.780132468576,0.8027789387320629,10.115370450713078
164.0,59539.23567643019,6320.315257722157,0.8025270221633808,9.96035500459755
165.0,74107.29552798587,7855.321776977429,0.8022472725701794,9.811838699226529
166.0,92335.08503397355,9800.882722922048,0.8019408974125117,9.669539822576759
167.0,115215.90799463974,12284.524429461862,0.8016091166031327,9.533190766364294
168.0,144052.17079053124,15469.54743026789,0.8012531619467396,9.40253726237804
169.0,180538.88068679534,19559.545846912413,0.8008742764880171,9.277337658323816
170.0,226854.87008331413,24802.018295361348,0.80047371377762,9.15736224121559
171.0,285757.39198385377,31496.733828376706,0.8000527370720094,9.042392603984151
172.0,360695.76418974466,40017.21742658028,0.799612618446003,8.932221046829069
173.0,455977.04733958765,50844.52724373559,0.7991546378404181,8.826650020264319
174.0,577011.3821380667,64613.616112101634,0.798680082034157,8.725491597124643
175.0,730667.1351888158,82173.15450143944,0.7981902435452087,8.62856697958206
176.0,925762.042159347,104657.91924302344,0.7976864194715471,8.535706034930513
177.0,1173715.4216433056,133570.74394932794,0.7971699102603798,8.4467468576086
178.0,1489372.7377785225,170869.3835044607,0.7966420184244325,8.361535360378117
179.0,1891997.7327228193,219053.99203276713,0.7961040471976351,8.279924885853154
180.0,2406421.890945629,281272.59374286275,0.7955572991376119,8.201775844200931
181.0,3064383.1550916694,361483.76107146527,0.7950030746828505,8.126955370042737
182.0,3906200.355938048,464710.173417378,0.7944426706598965,8.055336999618126
183.0,4982981.930915753,597413.1273159228,0.7938773787537755,7.98680036803306
184.0,6359639.247202474,768010.8905729532,0.7933084839408273,7.9212309215347
185.0,8119013.643967679,987555.403909773,0.7927372628875793,7.858519649139663
186.0,10367401.638971977,1270560.8160591,0.7921649823266423,7.79856282734114
187.0,13241776.057847075,1635962.6127131223,0.7915928974055071,7.741261780677915
188.0,16918832.30069602,2108209.3162515443,0.7910222500196267,7.686522656036882
189.0,21626070.16905819,2718581.989409752,0.7904542671338023,7.634256208573095
190.0,27655322.812874332,3506940.2231060993,0.7898901590898147,7.584377601797363
191.0,35379555.32266854,4524135.494038168,0.7893311179181798,7.536806216913736
192.0,45274440.47118113,5835375.960947288,0.7887783156438894,7.491465474629503
193.0,57946495.70456049,7524806.505959068,0.7882329026019783,7.448282666368562
194.0,74170407.22203344,9701498.65585806,0.7876960057655062,7.407188794817196
195.0,94938094.45861408,12506976.121177904,0.7871687270814296,7.368118424711254
196.0,121522250.18287444,16124339.271218186,0.7866521418382498,7.331009540552801
197.0,155557354.82901663,20789361.363542847,0.7861472970460572,7.295803414088044
198.0,199141051.18865708,26804305.734071,0.7856552098544847,7.262444478318714
199.0,254961751.28145996,34555734.18427105,0.7851768660022315,7.230880209208123
200.0,326459418.16051847,44538090.80972385,0.7847132182979826,7.201061014718905
201.0,418031430.8672729,57385018.93861927,0.7842651851567626,7.172940129361652
202.0,535299163.19884366,73910686.43077013,0.7838336491652125,7.146473516333985
203.0,685453360.6704963,95162982.83145452,0.7834194557121676,7.121619774335639
204.0,877703774.1371338,122490698.22856347,0.7830234116639777,7.098340050823796
205.0,1123855969.0894382,157627517.88266408,0.7826462840958673,7.076597960491676
206.0,1439050292.4299986,202797013.87247056,0.7822887990952737,7.056359508367175
207.0,1842701906.315502,260846050.36586267,0.7819516406100366,7.037593018763741
208.0,2359695148.043919,335415937.5616925,0.7816354493847819,7.020269067750322
209.0,3021914717.882464,431164849.26444197,0.7813408219503074,7.004360421039128
210.0,3870204300.983023,554056858.0397434,0.7810683096927962,6.989841975601371
211.0,4956901665.2670355,711734643.3518256,0.7808184180031895,6.976690705323592
212.0,6349106720.427894,913997295.9131097,0.7805916054879657,6.9648856111173405
213.0,8132896798.587597,1173405706.6958656,0.7803882832827226,6.95440767387113
214.0,10418763238.203571,1506050996.7844622,0.7802088144246689,6.9452398119438294
215.0,13348565066.264908,1932529677.5085292,0.7800535133248798,6.937366841350118
216.0,17104483000.474945,2479188298.487303,0.7799226453215443,6.930775439579746
217.0,21920476539.966724,3179723498.759285,0.7798164263110607,6.925454112754698
218.0,28097035289.316017,4077236343.383431,0.779735022487044,6.921393165245301
219.0,36020202297.51648,5226880069.913884,0.7796785501434496,6.918584673062807
220.0,46186050287.02517,6699249412.539414,0.7796470755907251,6.9170224592390195
221.0,59232390303.855484,8584714535.988684,0.7796406151487526,6.916702072518237
222.0,75979524702.6518,10998952555.741426,0.7796591352318889,6.917620768492972
223.0,97482909340.44424,14089987918.140074,0.7797025525380248,6.919777492992454
224.0,125100943384.2149,18047202346.31071,0.7797707343071626,6.923172868544266
225.0,160582166842.94025,23112834071.793163,0.7798634986970047,6.927809182364696
226.0,206177952848.1182,29596728328.441097,0.7799806152290072,6.933690377352125
227.0,264787254466.7661,37895235209.834435,0.780121805335705,6.940822044793654
228.0,340143944737.84827,48515383661.794395,0.7802867430009434,6.9492114192120304
229.0,437058042422.70514,62105861109.17358,0.7804750554747019,6.958867375597269
230.0,561726907479.4117,79496493138.25719,0.7806863240983999,6.969800427880885
231.0,722137294512.5885,101748735971.64082,0.7809200851943223,6.982022730056342
232.0,928581790047.0432,130220038762.0412,0.7811758310575849,6.9955480783937665
233.0,1194326454548.2927,166645971981.88165,0.7814530110254752,7.01039191569842
234.0,1536467957366.456,213245203534.07956,0.7817510326234132,7.026571337246647
235.0,1977038316665.4675,272853194139.2323,0.7820692628060173,7.044105097768779
236.0,2544427181654.5317,349093162875.39636,0.7824070292557369,7.063013620621103
237.0,3275206661218.294,446593610144.4992,0.7827636217758539,7.083319007500074
238.0,4216484534999.482,571265529037.7882,0.783138293743469,7.105045050038494
239.0,5428915734649.796,730655182898.4961,0.7835302636352212,7.128217242315634
240.0,6990575045905.28,934391666982.3422,0.7839387166263592,7.152862794241379
241.0,9001915486591.781,1194756416158.3105,0.7843628062397316,7.179010646497203
242.0,11592107250845.346,1527403892568.6743,0.7848016560710789,7.206691485511631
243.0,14927161941565.719,1952276334572.9866,0.7852543615571229,7.235937759989307
244.0,19220266469745.062,2494760991208.15,0.7857199918043554,7.266783697507491
245.0,24744996247963.555,3187151843258.1973,0.7861975914662498,7.299265321754401
246.0,31852094575060.992,4070497904016.969,0.7866861826595144,7.33342047046252
247.0,40990789585737.086,5196926580218.752,0.7871847669309532,7.369288812864996
248.0,52735863342962.195,6632572363083.815,0.7876923272503942,7.406911868119845
249.0,67821785562132.37,8461248160506.622,0.7882078300437734,7.446333022853513
250.0,87185942951349.22,10789045968242.39,0.7887302272496326,7.48759754895488
251.0,112022894443925.05,13750095106048.26,0.7892584583984424,7.5307526209457
252.0,143852592950376.03,17513730928188.72,0.7897914527132188,7.575847332293337
253.0,184605821469077.25,22293439068096.117,0.7903281312190686,7.622932711769066
254.0,236730594496605.47,28357934667941.66,0.7908674088655279,7.67206173787713
255.0,303324980008495.56,36044895314443.1,0.7914081966494588,7.723289352873208
256.0,388301165348828.1,45777915083797.02,0.7919494037385926,7.776672474989184
257.0,496588687079830.4,58087338428967.43,0.7924899395875676,7.832270008885643
