Time,J,A,S,tau
0.0,100.0,10.0,0.9819579990702754,17.070073180791933
1.0,100.6556886659311,19.036482333851758,0.9815167640844454,16.381903427702877
2.0,107.56309219141934,27.62338510965952,0.9811396163626697,15.754673804110656
3.0,120.23000753168382,35.775982860935564,0.9808201800051238,15.187953200420385
4.0,138.17999262243075,43.509535528445895,0.9805525039207811,14.681152126527852
5.0,160.95291833427095,50.839006198113395,0.9803310699598347,14.233558219492458
6.0,188.10541787804218,57.779094603811586,0.9801507776333559,13.844341116006198
7.0,219.2113220540261,64.34426253572393,0.9800069277580883,13.51255838622786
8.0,253.86205127299226,70.54875170365199,0.979895205314766,13.237162374601626
9.0,291.66696474729264,76.40659471178682,0.979811661615568,13.017007831116235
10.0,332.2536660875577,81.93161979018232,0.9797526962023133,12.850860132992038
11.0,375.2682475614957,87.13745004484629,0.9797150384803619,12.737404019470576
12.0,420.3753714083419,92.03749931208725,0.9796957275713067,12.675253041830633
13.0,467.58747559299417,96.27824441924723,0.9797837440147156,12.802672286458936
14.0,515.4059201765054,100.9514580159892,0.9800452810074028,13.232042221435488
15.0,563.2024191188331,107.28123975087327,0.9802903891279264,13.677855854187769
16.0,611.8639562706451,115.0165586389433,0.9805199616069524,14.140211542689684
17.0,662.076662034209,123.92858313897885,0.9807348578888498,14.619167803944363
18.0,714.3503125846548,133.80964386245938,0.980935903503366,15.114742831528096
19.0,769.0411439268064,144.47217070844638,0.9811238900997021,15.626914401846582
20.0,826.3733747336045,155.74756931651004,0.9812995756389297,16.155620231181228
21.0,886.4585066556017,167.485127436918,0.9814636847395002,16.700758683851774
22.0,949.3137821864772,179.5508741564746,0.9816169089651289,17.262189803027955
23.0,1014.8781297087355,191.82646173264334,0.9817599075000267,17.839736836173625
24.0,1083.0276095520608,204.20798722334536,0.981893307704859,18.43318801569011
25.0,1153.5879893851506,216.604972278882,0.9820177057620969,19.04229850493282
26.0,1226.3468662042724,228.93923342895286,0.9821336674809753,19.666792768922132
27.0,1301.0638758811692,241.14382546876521,0.9822417291964114,20.30636713917198
28.0,1377.4796924726752,253.16204960096044,0.982342398569236,20.96069239968999
29.0,1455.323728527859,264.94649544484116,0.9824361554877838,21.62941656015898
30.0,1534.3207000006319,276.45808177755686,0.9825234531600289,22.312167789396685
31.0,1614.1961317240339,287.6652219903988,0.9826047189770793,23.008557168004756
32.0,1694.680933473666,298.54300262830947,0.9826803555266123,23.718181506910433
33.0,1775.5147543176872,309.0724146643812,0.9827507417304591,24.440626382690848
34.0,1856.449315941738,319.2396717156533,0.9828162336354177,25.175468499792768
35.0,1937.250471138571,329.03555895523283,0.9828771654536247,25.922278510880684
36.0,2017.6996291635155,338.4547753648717,0.9829338508868374,26.680623412681726
37.0,2097.5948303752984,347.495421841751,0.9829865840429294,27.450068712776098
38.0,2176.7514487897593,356.15854587384746,0.9830356401209168,28.230181061907825
39.0,2255.0030068624615,364.4476872510324,0.9830812763243548,29.020529520664844
40.0,2332.2002593739708,372.36840749256453,0.9831237334482517,29.820687408487963
41.0,2408.2107550882824,379.9279621697739,0.9831632365674842,30.630234532127986
42.0,2482.9205313036177,387.1351011451827,0.983199994525313,31.44875830762396
43.0,2556.229475408705,393.999530454498,0.983234203738005,32.27585448856109
44.0,2577.7518069576395,376.2817524669697,0.9832660462350217,33.11112811068292
45.0,2569.565101886286,346.54029242368404,0.9832956917826469,33.95419503537108
46.0,2561.7280819231123,319.4553673048902,0.9833232983924844,34.80468239597204
47.0,2554.228031689617,294.76934236297717,0.9833490130600253,35.66222906490812
48.0,2547.0520370436916,272.2515226991127,0.9833729724452229,36.5264861419726
49.0,2540.1871042194794,251.6945749707843,0.9833953035737519,37.39711716079697
50.0,2533.620264433693,232.91260907963334,0.9834161244006094,38.27379839429821
51.0,2527.3386593077803,215.73864231269033,0.983435544481601,39.15621882356684
52.0,2521.3296115773915,200.02235849479771,0.9834536654900061,40.04408017935775
53.0,2515.580686094914,185.62873628350445,0.9834705817484409,40.93709689348244
54.0,2510.079734644577,172.43616064407271,0.9834863807692956,41.834995862118
55.0,2504.8149343275263,160.33496540869032,0.9835011436919473,42.737516292948875
56.0,2499.7748174539865,149.22639900581592,0.9835149457313206,43.64440945824677
57.0,2494.948291179317,139.02138341273442,0.9835278566139094,44.55543834931445
58.0,2490.3246522709287,129.63940048554903,0.9835399409590244,45.470377353907935
59.0,2485.8935984032023,121.0077552381667,0.9835512586298182,46.3890119430609
60.0,2481.645549192821,113.06042075586109,0.9835618650935042,47.31113825011792
61.0,2477.5739597713327,105.73514238572375,0.9835718117420423,48.23656267013242
62.0,2473.669877620779,98.97817934528183,0.9835811461840148,49.1651014675718
63.0,2469.923738242193,92.74185783532603,0.9835899125136557,50.096580404366165
64.0,2466.3265345454197,86.9827546094283,0.9835981515814269,51.030834291711734
65.0,2462.869770543925,81.66132794545223,0.9836059012334115,51.96770658565605
66.0,2459.5454282404653,76.74155523694246,0.9836131965348466,52.907048982983895
67.0,2456.3459371347544,72.190603907634,0.9836200699779043,53.848721022979284
68.0,2453.2641461296903,67.9785195192225,0.9836265516737501,54.792589699135135
69.0,2450.293297867208,64.0779821653586,0.983632669529259,55.73852908804564
70.0,2447.4270036266025,60.464094703733814,0.9836384494177264,56.68641996637692
71.0,2444.659220398407,57.11410163490922,0.9836439153324237,57.636149449746874
72.0,2441.9842296502748,54.007214972545796,0.983649089529138,58.58761064764245
73.0,2439.3966172649407,51.12443496453935,0.9836539926585933,59.540702328287516
74.0,2436.891254670574,48.44838792955949,0.9836586438890964,60.49532859625883
75.0,2434.4632807503153,45.96316505660033,0.9836630610214742,61.45139857709727
76.0,2432.108086076327,43.65423254799124,0.9836672605897258,62.408826139343844
77.0,2429.821296005369,41.50827055445237,0.9836712579632346,63.36752959063636
78.0,2427.598756131637,39.513075025778,0.9836750674347859,64.32743141423217
79.0,2425.4365180762024,37.657460920062725,0.9836787023041526,65.28845800900848
80.0,2423.330826060763,35.93117285062487,0.9836821749552315,66.25053944213543
81.0,2421.2781038946764,34.32479113895266,0.9836854969286344,67.21360920775973
82.0,2419.2749438417995,32.82969954365685,0.9836886789838938,68.17760401981153
83.0,2417.3180941489945,31.437975292904856,0.9836917311649167,69.14246357871342
84.0,2415.404448538213,30.14234308393768,0.9836946628549933,70.10813037455067
85.0,2413.5310358205384,28.93612096984202,0.9836974828294075,71.07454949216304
86.0,2411.695009862332,27.813165931443713,0.9837001993047716,72.0416684226674
87.0,2409.8936407966326,26.76783855067398,0.9837028199814416,73.0094368987292
88.0,2408.1243050724843,25.79495897850902,0.9837053520896566,73.97780670728947
89.0,2406.384477379734,24.889762635379952,0.9837078024259985,74.94673153858007
90.0,2404.6717223950045,24.047874555295326,0.9837101773896768,75.91616683167697
91.0,2402.983686744324,23.265267062778513,0.9837124830166142,76.88606962451512
92.0,2401.3180919821534,22.538258682962613,0.9837147250082829,77.85639842377965
93.0,2399.6727261466335,21.863449326779314,0.983716908765528,78.827113047472
94.0,2398.0454369368767,21.237717283876783,0.9837190394148496,79.79817449896572
95.0,2396.434124814821,20.658188024405433,0.9837211218340965,80.76954483999421
96.0,2394.8367371983577,20.122276668092994,0.9837231606724202,81.74118708590395
97.0,2393.251260988273,19.627573895927387,0.9837251603761012,82.71306506912768
98.0,2391.6757156804215,19.17187158245263,0.9837271252129149,83.68514331244054
99.0,2390.108147480245,18.753147613049023,0.9837290592910092,84.65738692288919
100.0,2388.5466239405378,18.369622532315905,0.9837309665713496,85.62976150141881
101.0,2386.9892261461027,18.019608127275674,0.9837328508941419,86.60223299911763
102.0,2385.434043251939,17.701568830067792,0.9837347159973293,87.57476761680236
103.0,2383.879166466001,17.414211248035507,0.9837365655236799,88.54733171196217
104.0,2382.322681761761,17.156262649547077,0.9837384030467599,89.51989166237016
105.0,2380.762665932236,16.92662679332214,0.9837402320845963,90.49241379288989
106.0,2379.1971750397747,16.724377133645824,0.9837420561089957,91.46486420199388
107.0,2377.6242463139147,16.548576021996706,0.9837438785695317,92.4372087560824
108.0,2376.041878904855,16.398600298462163,0.9837457029018775,93.40941281002297
109.0,2374.4480451083264,16.273662026136414,0.9837475325423057,94.3814413445845
110.0,2372.84065430021,16.173393221479785,0.98374937095349,95.35325842931216
111.0,2371.217596942137,16.09717144299706,0.9837512216040935,96.3248278633245
112.0,2369.576654050043,16.044675616443858,0.9837530880514233,97.29611180608421
113.0,2367.915565054808,16.01604142600756,0.9837549738917224,98.26707178640076
114.0,2366.232014889385,16.010852985743302,0.9837568827699267,99.23766851394491
115.0,2364.5235501092184,16.029113928960516,0.983758818477348,100.2078605840315
116.0,2362.7876747609375,16.070870626016834,0.9837607848517266,101.17760594193956
117.0,2361.0217378023176,16.136190815294366,0.9837627859072821,102.14686015479859
118.0,2359.223012762717,16.225401003383748,0.9837648257476662,103.11557762824546
119.0,2357.3886086154803,16.338704679654363,0.9837669086707584,104.08371024459188
120.0,2355.515514705919,16.476702594427785,0.9837690391219363,105.05120804199856
121.0,2353.6005559644395,16.63978719218212,0.9837712217427391,106.018018544979
122.0,2351.640397046914,16.82866366811522,0.9837734613725312,106.9840868174509
123.0,2349.631494903491,17.044021736329114,0.9837757631013416,107.94935475557473
124.0,2347.570139014637,17.28675140078201,0.9837781322236105,108.913761699839
125.0,2345.452351134054,17.55783496324073,0.9837805743544823,109.87724292802619
126.0,2343.2739621588726,17.858373517793975,0.9837830953360372,110.83973083007815
127.0,2341.0305026015035,18.18962785365709,0.9837857013630652,111.80115326854316
128.0,2338.717233071622,18.552931635335646,0.9837883989392359,112.76143406407819
129.0,2336.3291119666274,18.949850315164387,0.9837911949124966,113.72049252080332
130.0,2333.860729273467,19.382096367661493,0.9837940965368279,114.67824247808119
131.0,2331.3063363945216,19.851491036403722,0.9837971114289243,115.63459278450762
132.0,2328.659768466345,20.360161801131373,0.9838002476453777,116.58944617452207
133.0,2325.9144023745753,20.910356052198562,0.9838035137026637,117.54269871990671
134.0,2323.0631714625883,21.504566007328698,0.9838069185520962,118.49424007551188
135.0,2320.098461553469,22.14552845604917,0.9838104716596415,119.44395203741531
136.0,2317.0120819337008,22.836238515079128,0.9838141830072665,120.39170819981587
137.0,2313.7952216865233,23.57996574637478,0.9838180631050182,121.33737340975874
138.0,2310.4383926588303,24.380295715178566,0.9838221230110186,122.28080304309391
139.0,2306.9313404322997,25.24120316363736,0.9838263743669755,123.22184186141618
140.0,2303.2629783414786,26.167006408514663,0.9838308294010771,124.16032322937471
141.0,2299.421322570902,27.16242633800643,0.9838355009276278,125.09606835490702
142.0,2295.3933989793827,28.232685653651952,0.9838404023588959,126.02888516376358
143.0,2291.1651236550256,29.383478136663836,0.9838455477088861,126.95856688921961
144.0,2286.7212000121804,30.621080676010994,0.9838509515797992,127.88489090605097
145.0,2282.0449929115853,31.95239300876928,0.9838566291415632,128.80761731736203
146.0,2277.118386812326,33.385011393464694,0.9838625961012145,129.72648738779088
147.0,2271.92162650934,34.9273084371798,0.9838688686584307,130.64122181721802
148.0,2266.433137882805,36.58852376946441,0.9838754634447519,131.5515188340121
149.0,2260.629325433487,38.37886872001978,0.9838823974435349,132.45705208190722
150.0,2254.484326276649,40.309704010521315,0.9838896878883796,133.3574680722988
151.0,2247.9697725847827,42.393527959086,0.9838973521241208,134.2523838693467
152.0,2241.054478799197,44.644265191656494,0.9839054074494226,135.1413839706567
153.0,2233.7041056959984,47.07740695439232,0.9839138709136933,136.02401708898464
154.0,2225.880772181704,49.71021929818811,0.9839227590720363,136.89979248904172
155.0,2217.542610459111,52.561983963069544,0.9839320876894245,137.76817587080032
156.0,2208.6432544186337,55.65427809644474,0.9839418713861795,138.6285847279318
157.0,2199.131249415798,59.01130007233995,0.9839521232158277,139.48038309731467
158.0,2188.949356486735,62.660294109628126,0.9839628541593968,140.3228754482261
159.0,2178.0338091929875,66.63186243885555,0.983974072554673,141.15530036866414
160.0,2166.3133500597396,70.96059642606971,0.9839857833899274,141.97682231621388
161.0,2153.7081689298684,75.68567505675692,0.9839979875006639,142.78652278863046
162.0,2140.1286592195693,80.85157364080062,0.9840106806365451,143.58339007027337
163.0,2125.473955574181,86.50891010557856,0.9840238523810326,144.36630730016267
164.0,2109.630211319305,92.71545396479875,0.9840374849066813,145.13403855149463
165.0,2100.07864484434,103.18203975496665,0.984051551524536,145.88521222042627
166.0,2105.030844289771,120.98258645218023,0.9840660151317985,146.6183028057305
167.0,2113.3593598043853,140.30524425166038,0.984080826242946,147.33160650566535
168.0,2125.595898709311,161.32776623862028,0.9840959209747017,148.02321512409586
169.0,2142.348939111634,184.25403296134468,0.9841112186176509,148.69098230883722
170.0,2164.3152709511314,209.31858887973522,0.9841266190279472,149.33248423305247
171.0,2192.293788779594,236.79217214795995,0.9841419996801897,149.9449709578465
172.0,2227.202128741642,266.98852706662444,0.984157212330374,150.5253051544991
173.0,2270.0956346755074,300.2724452131634,0.9841720794976266,151.06988794688903
174.0,2322.1903607883296,337.0696688634108,0.9841863905596677,151.57456454260333
175.0,2384.8910229134976,377.8792621517097,0.9841998974552708,152.03450184801702
176.0,2459.8232908617038,423.2884427118248,0.9842123103391951,152.4440345548313
177.0,2548.873499697347,473.9911761202579,0.9842232929299252,152.79646195799893
178.0,2654.237317864564,530.8117837648904,0.9842324576875147,153.0837739898075
179.0,2778.4767532586147,594.7338802598977,0.9842393614082874,153.29628911420417
180.0,2924.5913088253,666.937524856471,0.9842435010159233,153.42215196063418
181.0,3096.1061340427905,748.8475922956404,0.9842443101068986,153.44661698760208
182.0,3297.176752896569,842.1947587870505,0.9842411574005464,153.3510378032721
183.0,3532.72149119236,949.0970767845118,0.9842333474576765,153.11134984756396
184.0,3808.5859749395354,1072.1681718432742,0.9842201256749932,152.69575434100835
185.0,4131.747592662289,1214.6636328049235,0.9842006902955206,152.0610361141613
186.0,4510.574499722032,1380.6833759380554,0.9841742158319013,151.14642966120584
187.0,4955.147591923153,1575.4539949940395,0.9841398966061387,149.86285357190465
188.0,5477.68165519247,1805.7351825314652,0.9840970248051087,148.07260479188204
189.0,6099.9222415437025,2073.523063906733,0.9840451346633147,145.54767019624225
190.0,7090.600999134067,2056.655360865784,0.9839842794066721,141.87435373895457
191.0,8098.9889451555455,2039.4251988705712,0.9839155965365965,136.19929971237033
192.0,9124.27948081069,2021.8291114840101,0.9838425125528016,126.41943923312579
193.0,10165.585549841207,2003.8641884738001,0.9837724021812198,106.54097225392006
194.0,11221.939827710023,1985.527958832444,0.9837035713393045,73.30388202978918
195.0,12292.295196820516,1966.8184218734787,0.9836019551187785,51.48649725595965
196.0,13375.525633340318,1947.734078677283,0.98346068130045,40.40792573219869
197.0,14470.427525849684,1928.2739637104842,0.9832871116253324,33.70403180004171
198.0,15474.210163638725,2036.3213917955507,0.9830856869149175,29.101187440087003
199.0,16463.93308529015,2290.4403270458806,0.9828586289679881,25.688516551938722
200.0,17526.979157712678,2688.0313062564583,0.9826069757478276,23.029178838656396
201.0,18736.727551951644,3258.1676490067425,0.982331093645293,20.884401159690544
202.0,20181.168895843948,4041.6632227342243,0.9820309351088443,19.110862520452795
203.0,21968.533668792505,5095.174559165735,0.9817061786254865,17.61634155790565
204.0,24234.264795423005,6497.933152494691,0.9813563100652174,16.338258732627178
205.0,27194.460125567002,8314.367133287802,0.9809806732816632,15.232323372604233
206.0,31425.16469511932,10158.805575378341,0.9805785019186641,14.266104231765178
207.0,37023.965670798214,11920.623487613348,0.9801489453543862,13.415195486902821
208.0,43955.703733170994,13603.99952870256,0.9796910831266694,12.660785823516159
209.0,52183.44157260987,15212.22026417108,0.9792039374805707,11.98809259359241
210.0,61588.75990176438,16845.646622287655,0.9786864853039867,11.385295382467968
211.0,71994.09154405222,18822.424479853846,0.9781376616176315,10.842802115429485
212.0,83455.80390015908,21448.572646504705,0.9775563725499811,10.352734276243329
213.0,96209.69079585448,25098.097834116852,0.9769415003039867,9.908545271180028
214.0,110694.47597102319,30261.955432515813,0.9762919096813576,9.504740822668223
215.0,127719.26426316354,37471.53052693294,0.975606454483308,9.136668888391629
216.0,148880.81979902228,46682.990570046204,0.9748839838713009,8.800359338224496
217.0,175836.28324783337,57661.710083116945,0.974123348755463,8.492399875570447
218.0,210046.13296866269,70203.88032456882,0.9733234084300254,8.209838843074378
219.0,252631.37351934475,84348.28898736187,0.9724830373622679,7.9501083305620135
220.0,304407.02091270813,100641.41341334098,0.9716011322786339,7.710962533895323
221.0,366253.57068228984,120147.85733103994,0.9706766191398264,7.490427918230774
222.0,439425.86330326315,144570.0958461567,0.9697084608277741,7.286762747016431
223.0,526151.1887167548,176128.80710838473,0.9686956649328617,7.098423743514863
224.0,630499.0390103338,216775.4960939929,0.9676372917258892,6.9240385224703624
225.0,758226.7491231267,267992.56520495395,0.9665324624384419,6.762382609234468
226.0,916219.1818797603,331023.0671837041,0.9653803677012234,6.612360149875908
227.0,1111853.224797189,407503.31819258025,0.9641802761512351,6.472987643026121
228.0,1352818.7146307123,500155.0476505263,0.962931543297946,6.343380150967443
229.0,1647430.1088366376,613503.8956405042,0.961633620336851,6.2227395045426634
230.0,2005764.2664629198,754192.1317786985,0.9602860631162852,6.110344209313291
231.0,2441534.351209672,930371.3120639048,0.958888541085302,6.0055407464791575
232.0,2973433.781440772,1151025.8958853881,0.9574408461891614,5.907736046834347
233.0,3625525.444597078,1425873.171105937,0.9559429016506837,5.816390952705258
234.0,4426977.647642796,1766106.1862760105,0.9543947705726508,5.731014516183693
235.0,5411831.07627094,2185882.098435009,0.9527966642925908,5.6511590085235115
236.0,6619604.745763053,2704159.7730000163,0.951148950418595,5.576415536983519
237.0,8097580.286878988,3345870.4181574793,0.9494521604726971,5.506410182715161
238.0,9904287.344337903,4142176.5555466292,0.9477069970669534,5.440800587377277
239.0,12113018.31883624,5130493.991084359,0.9459143405367281,5.379272927674767
240.0,14814599.88753067,6355190.182810161,0.9440752549558782,5.321539226478284
241.0,18119470.961199015,7869628.7041910915,0.9421909934595815,5.2673349569909975
242.0,22160005.357490353,9739579.890860816,0.9402630028024901,5.216416902903488
243.0,27094544.05143669,12047082.729389636,0.9382929270827342,5.168561242869529
244.0,33113795.218658816,14893904.948233865,0.9362826105660615,5.123561832144088
245.0,40449078.22359912,18404611.912658665,0.9342340995490561,5.08122865800975
246.0,49381397.662908554,22730074.758629125,0.9321496432059286,5.041386448807348
247.0,60250731.46172236,28052569.982289225,0.9300316933697479,5.0038734190844725
248.0,73466043.0000991,34593107.379942946,0.927882903206165,4.968540135665579
249.0,89517492.80380857,42620656.90356256,0.9257061247455692,4.935248491398129
