Time,J,A,S,tau
0.0,100.0,10.0,0.689718742432359,24.429425419680367
1.0,98.89688218187932,10.611864595664462,0.691963848994727,24.838522511888737
2.0,97.81950457259885,11.209593640841575,0.6942377057726408,25.258568827127302
3.0,96.76668199979314,11.793430127358427,0.6965359728014293,25.688864083472872
4.0,95.73720014698198,12.363430216715765,0.698852325610573,26.12954367280789
5.0,95.03196473863076,12.617207741344796,0.6985521742011953,26.827722583156334
6.0,94.69786431746863,12.504512429880789,0.695175983149947,27.826734829099543
7.0,94.36669282704324,12.39359814721272,0.6919113766601661,28.826734329910085
8.0,94.03812982671442,12.285558616886078,0.6887629504285315,29.82673408713549
9.0,93.7128885325712,12.180285756728765,0.6857252108211862,30.826733842841236
10.0,93.39159767063701,12.077674235803922,0.6827928535187491,31.82673359854698
11.0,93.07478916418584,11.977622342423162,0.6799608153447119,32.826733354252724
12.0,92.76282933020732,11.88003554174234,0.6772244692354001,33.826733109958475
13.0,92.45606987894163,11.784819943719732,0.6745792267129099,34.82673286566422
14.0,92.15478906521263,11.691884970519208,0.6720207162427928,35.82673262136996
15.0,91.85913478073148,11.601147264473235,0.6695449922511683,36.826732377075714
16.0,91.56924216942164,11.512524289538248,0.667148154340212,37.82673213278146
17.0,91.28522196604762,11.425934799033246,0.6648263883009051,38.82673188848721
18.0,91.00708989382693,11.34130434435572,0.6625762775269094,39.826731644192954
19.0,90.7348387592875,11.258560474516514,0.6603945138086768,40.8267313998987
20.0,90.4659991007227,11.060233478221969,0.6582778348755709,41.826731155604456
21.0,90.18363624967226,9.936811933120804,0.6562232198618444,42.8267309113102
22.0,89.90940563731667,8.928405335674924,0.6542277792249984,43.82673066701594
23.0,89.64292817228508,8.023123701484314,0.6522887545093161,44.82673042272168
24.0,89.38384228955462,7.210318274612725,0.6504035147800291,45.82673017842742
25.0,89.1318030272443,6.48045517695285,0.6485695499154294,46.826729934133155
26.0,88.88648111599899,5.824992240525261,0.6467844639807542,47.82672968983889
27.0,88.64756212766959,5.236276561621604,0.6450459690335438,48.82672944554463
28.0,88.41474568524404,4.707452081627427,0.6433518793746896,49.82672920125037
29.0,88.18774472665784,4.232375503522928,0.641700106191538,50.82672895695612
30.0,87.96628475489433,3.8055379043805533,0.6400886521012321,51.82672871266186
31.0,87.75010318039915,3.4220035585832482,0.638515606365779,52.826728468367605
32.0,87.53894869351903,3.0773450494902823,0.6369791403255886,53.82672822407335
33.0,87.33258061780116,2.767591278151763,0.6354775026937454,54.826727979779086
34.0,87.13076838022245,2.4891830176272216,0.6340090157011217,55.82672773548482
35.0,86.93329093342463,2.238924744381095,0.6325720708922609,56.82672749119056
36.0,86.73993624007886,2.013951177188259,0.6311651253733475,57.826727246896304
37.0,86.55050080434431,1.811691029295591,0.6297866984028565,58.82672700260204
38.0,86.36478916758118,1.6298356642446472,0.6284353677221,59.82672675830778
39.0,86.18261349414415,1.4663146486911953,0.6271097665412456,60.826726514013515
40.0,86.00379313600342,1.3192679967495327,0.6258085803712735,61.82672626971925
41.0,85.82815421955597,1.1870262988080835,0.6245305440174007,62.82672602542499
42.0,85.6555292880978,1.0680910367183072,0.6232744389775234,63.826725781130726
43.0,85.48575690803291,0.961115551044875,0.62203909057679,64.82672553683648
44.0,85.31868133647161,0.864891375626401,0.6208233655488727,65.82672529254222
45.0,85.15415218904437,0.7783324395183854,0.6196261696188099,66.82672504824797
46.0,84.99202410623558,0.7004630663450034,0.6184464450750766,67.82672480395372
47.0,84.83215647108136,0.6304072196668901,0.6172831687154076,68.82672455965947
48.0,84.6744131006548,0.5673771032346624,0.6161353496018832,69.82672431536521
49.0,84.51866197254122,0.5106652885860029,0.6150020270706218,70.82672407107097
50.0,84.36477496531201,0.4596358497428074,0.6138822688433322,71.82672382677671
51.0,84.21262758672665,0.41371703892044737,0.612775169049571,72.82672358248247
52.0,84.0620987422777,0.37239533330777574,0.611679846542554,73.82672333818822
53.0,83.91307049000369,0.33520872740608376,0.6105954431150493,74.82672309389396
54.0,83.76542781049528,0.30174204788361614,0.6095211218258209,75.82672284959972
55.0,83.61905839634835,0.2716220555515045,0.6084560654675802,76.82672260530546
56.0,83.47385242781138,0.24451293999008056,0.6073994749344804,77.8267223610112
57.0,83.3297023756066,0.22011297826875678,0.6063505677873391,78.82672211671697
58.0,83.18650280014344,0.1981506482634644,0.6053085767926115,79.82672187242271
59.0,83.04415015424208,0.17838177571376987,0.6042727484869043,80.82672162812845
60.0,82.90254260344729,0.1605868453397005,0.603242341869485,81.82672138383421
61.0,82.76157983681557,0.14456824268383497,0.6022166270254709,82.82672113953996
62.0,82.62116289254867,0.1301483377656456,0.6011948838570467,83.82672089524571
63.0,82.48119398572855,0.11716726587071745,0.6001764008299753,84.82672065095146
64.0,82.34157633517127,0.10548117214896471,0.5991604737136955,85.82672040665722
65.0,82.2022140015669,0.09496071854430338,0.5981464044035435,86.82672016236297
66.0,82.0630117219849,0.08548943022459006,0.5971334997165273,87.82671991806873
67.0,81.92387475047421,0.07696255934959581,0.5961210702314499,88.82671967377449
68.0,81.78470870128486,0.06928583921330295,0.5951084291481077,89.82671942948025
69.0,81.64541939230985,0.06237439602476386,0.5940948911480911,90.82671918518602
70.0,81.5059126921719,0.05615190932746856,0.5930797712821082,91.82671894089178
71.0,81.36609436768798,0.05054963871480354,0.5920623838600556,92.82671869659754
72.0,81.22586993394393,0.045505730682478374,0.5910420413600845,93.8267184523033
73.0,81.08514450275045,0.0409645300178842,0.5900180533258848,94.82671820800905
74.0,80.9438226356488,0.03687590332751392,0.5889897252970788,95.82671796371481
75.0,80.80180819413064,0.03319475986043886,0.5879563577193417,96.82671771942059
76.0,80.65900419048252,0.029880487606056796,0.5869172448590675,97.82671747512634
77.0,80.51531264300682,0.026896524844587155,0.58587167374988,98.8267172308321
78.0,80.37063442263504,0.02420997753381452,0.5848189230765114,99.82671698653786
79.0,80.22486910849075,0.021791206721049276,0.5837582621238012,100.82671674224362
80.0,80.07791483801067,0.01961354669436403,0.5826889496860983,101.82671649794938
81.0,79.92966815327294,0.01765298396547191,0.5816102329490652,102.82671625365514
82.0,79.78002385772481,0.015887890426711012,0.5805213464471521,103.82671600936091
83.0,79.62887485710294,0.014298808313038336,0.5794215109060497,104.82671576506667
84.0,79.47611201094301,0.012868203810514437,0.5783099321621942,105.82671552077242
85.0,79.32162398153473,0.011580296006254178,0.5771858000636845,106.82671527647818
86.0,79.1652970703367,0.01042087751403077,0.57604828727995,107.82671503218394
87.0,79.0070150732809,0.009377147436267044,0.5748965482488695,108.82671478788971
88.0,78.84665911540638,0.008437589018231937,0.5737297179734785,109.82671454359547
89.0,78.68410749325783,0.007591825132600749,0.5725469108751775,110.82671429930123
90.0,78.51923552333446,0.00683051238119695,0.5713472196909662,111.82671405500699
91.0,78.3519153673128,0.006145241541383951,0.5701297142016717,112.82671381071275
92.0,78.18201588373319,0.005528434008958288,0.56889344015274,113.8267135664185
93.0,78.00940245966983,0.0049732706432980625,0.5676374180293796,114.82671332212428
94.0,77.83393684201376,0.004473608471491803,0.5663606418288848,115.82671307783004
95.0,77.65547698815519,0.004023914599881409,0.565062077974123,116.8267128335358
96.0,77.47387688421873,0.003619210392776496,0.5637406639909163,117.82671258924155
97.0,77.28898639300057,0.0032550087792714423,0.5623953074015522,118.82671234494731
98.0,77.10065109062012,0.0029272714984269602,0.5610248845361734,119.82671210065307
99.0,76.90871208990099,0.0026323620118551823,0.5596282392476044,120.82671185635884
100.0,76.71300589940931,0.002367004035801428,0.5582041818856391,121.8267116120646
101.0,76.51336424538552,0.002128249886874095,0.556751488001321,122.82671136777036
102.0,76.30961392090181,0.001913443299412262,0.5552688972493333,123.82671112347612
103.0,76.1015766406722,0.0017201930380349845,0.5537551123315178,124.82671087918187
104.0,75.88906886822544,0.0015463467265757007,0.5522087977392943,125.82671063488763
105.0,75.6719016943983,0.0013899648344258542,0.5506285788695121,126.8267103905934
106.0,75.44988068216229,0.0012493024668546269,0.5490130408953254,127.82671014629916
107.0,75.22280573062206,0.0011227877014597593,0.5473607277765741,128.8267099020049
108.0,74.9904709676581,0.0010090051245063762,0.5456701414785925,129.82670965771064
109.0,74.75266561610144,0.0009526288578273563,0.5439397409122596,130.82670941341644
110.0,74.50917215238265,0.0009459515295715654,0.5421679419561318,131.82670916912215
111.0,74.25976797306541,0.0009392181437971887,0.540353131841396,132.8267089248279
112.0,74.00421983638876,0.0009324273684170288,0.5384936131830975,133.82670868053364
113.0,73.74229027944062,0.0009255778878004109,0.5365876578687402,134.8267084362394
114.0,73.47374298392239,0.0009186683990885459,0.5346335461183989,135.82670819194516
115.0,73.19832731540386,0.0009116977003062607,0.5326294539271959,136.82670794765087
116.0,72.91578175878689,0.0009046646327802435,0.5305734780771139,137.82670770335662
117.0,72.62584476129862,0.0008975680379139623,0.5284637150758592,138.82670745906236
118.0,72.32825527422952,0.0008904067723883533,0.526298265099982,139.8267072147681
119.0,72.02274048459428,0.0008831798303115163,0.5240751426618034,140.82670697047385
120.0,71.70901311095754,0.0008758862778479343,0.5217922569257192,141.8267067261796
121.0,71.38678540437502,0.0008685251817564513,0.5194475136522223,142.82670648188534
122.0,71.0557689128049,0.0008610956243191933,0.5170388134797951,143.8267062375911
123.0,70.71564340816643,0.0008770536454620842,0.5145642000695526,144.8266799555119
124.0,70.28088159127404,0.08623775336388186,0.5127626746598929,145.73149536157692
125.0,69.4399456884276,0.5705819392348244,0.5143655770640368,146.1896724669645
126.0,68.57573399503742,1.0732594831778117,0.5160729066320094,146.6239952664938
127.0,67.70204667194902,1.5817764882822798,0.5177740183394972,147.0481730755139
128.0,66.82037497466072,2.0961834355357256,0.5194670433334851,147.46194249918327
129.0,65.93255402263237,2.6165241218189865,0.5211499691446893,147.8650335589346
130.0,65.04066853548328,3.1428368111891167,0.5228206726559049,148.25717298252468
131.0,64.1472740128568,3.6751486824163435,0.5244768394147108,148.63808220470546
132.0,63.25522843312396,4.213481117282027,0.5261160345313035,149.00747942571488
133.0,62.36790083992701,4.7578432649801705,0.5277356342309156,149.3650780955664
134.0,61.489060343018664,5.30823624936044,0.5293328694343788,149.71058813053548
135.0,60.6230810356008,5.864648036402297,0.5309047620752009,150.04371468744586
136.0,59.774777941142894,6.427057007723894,0.5324481854785815,150.3641596828782
137.0,58.949607768695074,6.995427732642371,0.5339598011385462,150.67162063890592
138.0,58.153610675674756,7.569711477867162,0.5354360818756257,150.96579139692142
139.0,57.39341822829428,8.149846303040615,0.5368733098561305,151.24636222721992
140.0,56.67635692765279,8.735754114374949,0.5382675433057127,151.51301945716753
141.0,56.010358328685705,9.327341442097206,0.5396146438371031,151.76544614110207
142.0,55.404008860192754,9.924497852245294,0.5409102557223341,152.00332189200725
143.0,54.86653894596792,10.527095061668824,0.5421498018976133,152.22632302733058
144.0,54.40779855644491,11.134985597402101,0.5433284811688233,152.43412272949377
145.0,54.0382095895345,11.748002210467362,0.5444412699387884,152.62639125988008
146.0,53.768719319756194,12.3659569413331,0.5454829205157182,152.80279611637823
147.0,53.610745943304096,12.988639842340193,0.5464479555429191,152.96300216080235
148.0,53.57609218268698,13.615817472484428,0.5473306683037351,153.10667182220925
149.0,53.6768369386026,14.247232353681673,0.5481251291961997,153.23346535535612
150.0,53.925225331037495,14.88260203525295,0.548825188434221,153.34304104836306
151.0,54.3335387065846,15.521617847227514,0.5494244760336287,153.43505542177638
152.0,54.91393308341571,16.16394319551022,0.5499164066883733,153.50916347861138
153.0,55.67826884802109,16.80921304886936,0.5502941915357801,153.56501899904862
154.0,56.945202377141335,17.139448322441712,0.5493430786279746,153.32655865490088
155.0,58.771760579878794,17.01320847592889,0.5464270418879149,152.63330650725285
156.0,60.68712554586381,16.875606848080526,0.5432058232798413,151.8498507063213
157.0,62.30824406969776,17.174909570850588,0.7374802687019302,31.710580612312107
158.0,64.56976582214116,16.89628234462826,0.7326736902434091,30.89370661216717
159.0,66.84115071982724,16.642193886467293,0.7278077942638905,30.100305284403646
160.0,69.11003922173798,16.42077908418816,0.7228856560192815,29.330170789013035
161.0,71.36443740808254,16.241673250191145,0.7179103828608292,28.58302744065025
162.0,73.59331729179141,16.116085443109252,0.7128851124366881,27.858540843339377
163.0,75.7873356889927,16.056807348829256,0.707813005805085,27.156327281387508
164.0,77.93962623947824,16.07818737299541,0.7026972453209823,26.475962273665584
165.0,80.04659084542301,16.19602323499505,0.697541034430754,25.816988947017812
166.0,82.10872799071029,16.427374752946132,0.692347591899161,25.178924705744578
167.0,84.13145568466017,16.79031352094904,0.6871201480195318,24.561267137846862
168.0,86.1257334451382,17.303593585241806,0.6818619450500026,23.963499821576573
169.0,88.10858765992772,17.98624567949393,0.6765762319906925,23.385096782251782
170.0,90.10347599438886,18.857113288849288,0.6712662609179648,22.82552642828574
171.0,92.1402301092051,19.934344240509702,0.6659352876035823,22.284255386670928
172.0,94.25480534822093,21.234849591247148,0.6605865663802362,21.760751242922318
173.0,96.48873456721579,22.773737655256774,0.6552233464742588,21.25448500939926
174.0,98.88807172128294,24.563771320991634,0.6498488718172076,20.764933457634886
175.0,101.54918801743273,26.56333600670637,0.6444663808217971,20.29158102340552
176.0,104.6019509218598,28.65856501863528,0.6390790928881063,19.833920494152945
177.0,108.0189033473792,30.883464450875227,0.6336902167557618,19.391454984383344
178.0,111.89115185295225,33.13098155289976,0.6283029404447217,18.96369836780059
179.0,116.1899746691029,35.388957115599815,0.6229204363361982,18.550176560979573
180.0,120.87090468167007,37.65515078557566,0.6175458539116472,18.150427673623238
181.0,125.87894296955902,39.93426521401051,0.6121823152981584,17.764002372912817
182.0,131.15029067668334,42.23932796694391,0.6068329149579285,17.390464298568485
183.0,136.61479343301616,44.59262735509135,0.6015007159275764,17.029390092194024
184.0,142.1988866813674,47.026203367118754,0.5961887456609067,16.68036946427591
185.0,147.8289424874171,49.581582742638155,0.5908999966880487,16.34300528530342
186.0,153.43491617269706,52.30878172951082,0.5856374204785484,16.016913398542215
187.0,158.9536068018925,55.26448028733333,0.5804039287025452,15.701722560257608
188.0,164.3318816410767,58.50950833793237,0.5752023871966522,15.397074173401316
189.0,169.52879411310394,62.1057628372331,0.5700356167218976,15.102622169131548
190.0,174.52178905352886,66.10808490884754,0.56490638687246,14.81803255656307
191.0,179.33496048298068,70.52584465022503,0.5598174168136749,14.542983424578257
192.0,184.00379305800524,75.34592254897854,0.5547713747842961,14.27716449750205
193.0,188.57923879232598,80.52236826834911,0.5497708706210666,14.020276770672952
194.0,193.10085920146992,85.99738355966207,0.5448184574556683,13.772032271892044
195.0,197.58730443391468,91.71231063780131,0.5399166285279722,13.53215372520865
196.0,202.03489060009534,97.61247467431232,0.5350678165782923,13.300374269653323
197.0,206.41794351775795,103.65171923984498,0.5302743917047195,13.076437087504706
198.0,210.6906972929807,109.79609241102563,0.5255386596779994,12.860095082053421
199.0,214.79069417381473,116.02625918265839,0.5208628621823829,12.651110640734393
200.0,218.64383662013535,122.33803512172481,0.5162491742179851,12.449255228251802
201.0,222.17016392755258,128.74123441469118,0.5116997032138687,12.254309112477308
202.0,225.29004765415146,135.25682963746416,0.5072164884806403,12.066061065372958
203.0,227.93461752373602,141.90799706647894,0.5028015005425375,11.884308069599706
204.0,230.0569516088744,148.70722546769736,0.49845664015630137,11.708854998992354
205.0,231.63555355094547,155.64891475342307,0.49418373881894334,11.539514460320198
206.0,232.6719745174379,162.7074029415482,0.4899845589465793,11.376106371846301
207.0,233.18412402388515,169.84038486329476,0.485860791978631,11.218457777778799
208.0,233.19902819674405,176.99419717896686,0.48181405979377945,11.066402587094887
209.0,232.7468004160759,184.10951750066923,0.47784591473190485,10.91978133208215
210.0,231.85601156585292,191.12688994081284,0.47395783989865425,10.77844093998414
211.0,230.55078704639098,197.99135741948533,0.4701512492792415,10.64223449098274
212.0,228.84964491649245,204.6557450093833,0.4664274886791354,10.511021003254355
213.0,226.76587855676834,211.08240458469032,0.46278783637341875,10.384665210345124
214.0,224.3100004910279,217.24270764910042,0.4592335039761343,10.263037429757686
215.0,221.47850786528872,223.12949001869785,0.4558001121330737,10.144926190240032
216.0,218.3553983813996,228.6552874679476,0.4523323486915787,10.035113300015903
217.0,215.0331359955331,233.71057808017244,0.44862579941795755,9.939565264694394
218.0,211.51629000608384,238.27849909006468,0.4446862058090769,9.857597847583563
219.0,207.81523953458435,242.3436892967171,0.44052063034799105,9.78856233056614
220.0,203.94764348663526,245.8927407595909,0.4361375261923754,9.731846125240503
221.0,199.9324951481234,248.91600967277725,0.4315466024247218,9.686868709584328
222.0,195.79145337839125,251.4075778007213,0.42675866767399984,9.653077402266621
223.0,191.54623202085878,253.3667634703381,0.42178565878350494,9.629948361324407
224.0,187.21798908528302,254.79818774432187,0.41664086195834404,9.616971933575615
225.0,182.83950141790018,255.69806201338554,0.4113016966713389,9.614702222622196
226.0,178.33381615980946,256.181105435556,0.40606473713866925,9.614702222622196
227.0,173.72002258266252,256.27972392509054,0.4010126132720791,9.614702222622196
228.0,169.042392273846,256.0002525953773,0.3961480506075236,9.614702222622196
229.0,164.3400907076201,255.35234709372963,0.39147352991205053,9.614702222622196
230.0,159.64759815015813,254.34850115343266,0.38699129796113174,9.614702222622196
231.0,154.99510264439633,253.00362908514197,0.38270337840700414,9.614702222622196
232.0,150.4088603947216,251.33467131076958,0.378611585481717,9.614702222622196
233.0,145.91127389116556,249.36031513120554,0.3747175354247898,9.614702222622196
234.0,141.52144773294518,247.10065900034064,0.37102266033096337,9.614702222622196
235.0,137.25568078044384,244.57650341068296,0.3675282197879054,9.614702222622196
236.0,133.12425444523456,241.81252413679732,0.3642353160735182,9.614702222622196
237.0,129.13476445747892,238.8346299918096,0.3611449033431775,9.614702222622196
238.0,125.2936036449709,235.6680383323249,0.35825780780191246,9.614702222622196
239.0,121.6064867143068,232.33711336620465,0.35557473412119517,9.614702222622196
240.0,118.07787214934349,228.8653471957861,0.35309627712877545,9.614702222622196
241.0,114.7109772390986,225.275327555987,0.35082293891251887,9.614702222622196
242.0,111.50816637459585,221.58864909068836,0.3487551384563814,9.614702222622196
243.0,108.4711762419757,217.8258337038309,0.34689321848992044,9.614702222622196
244.0,105.60081274467368,214.00630976728488,0.3452374563673083,9.614702222622196
245.0,102.89693105773641,210.14847495228273,0.3437880798996422,9.614702222622196
246.0,100.35929801035937,206.26963551199844,0.3425452655138763,9.614702222622196
247.0,97.98677690126142,202.3860689275904,0.3415091505701044,9.614702222622196
248.0,95.77764699612212,198.51306023159495,0.340679843700602,9.614702222622196
