Time,J,A,S,tau
0.0,100.0,10.0,0.872069564565255,19.43062225404969
1.0,194.4448176281353,46.838987636331204,0.8735399198279972,19.588140582710686
2.0,458.39500432733274,82.93364421971644,0.8749956732702661,19.743074136762132
3.0,888.5495886227621,118.30145063020947,0.8764361739928223,19.89537253998086
4.0,1481.663272005172,152.95972053899226,0.8778607772140342,20.044988079310656
5.0,2234.542185029272,186.92530234880226,0.8792688251235765,20.19187354762278
6.0,3144.04037183882,220.2145892660554,0.8806596468755016,20.3359822546839
7.0,4207.056122720178,252.84352963133819,0.8820325585726944,20.47726803946885
8.0,5420.527843995952,284.8276411860495,0.8833868633627264,20.61568527884524
9.0,6781.4313313174625,316.1820164607177,0.884721851402013,20.751188902845644
10.0,8286.776149540608,346.92133529408557,0.8860367999975484,20.88373440357977
11.0,9933.603049285975,377.0598713784273,0.8873309736832784,21.013277848037582
12.0,11718.978576778143,406.6115117332169,0.8886036243686742,21.139775889034556
13.0,13639.99502704216,435.589752482665,0.889853991441131,21.263185779490996
14.0,15693.767373394629,464.00770875921984,0.8910813019502565,21.38346538451072
15.0,17877.42715913687,491.8781387100921,0.8922847708786138,21.500573190607383
16.0,20188.12518009115,519.2134263418496,0.8934636012242401,21.614468326055704
17.0,22623.023711701113,546.0256153472279,0.8946169844341766,21.72511056490815
18.0,25179.296576857996,572.3264024925251,0.8957441005294022,21.832460349717046
19.0,27854.127385708598,598.1271501202415,0.8968441186794633,21.936478788572863
20.0,30644.707892616112,623.4388854576825,0.8979161973220701,22.037127682334972
21.0,33548.23662187414,648.2722977935198,0.8989594843216063,22.13436955660973
22.0,36561.90901991943,672.6377950458071,0.8999731180124608,22.22816763365499
23.0,39696.339508993275,749.4213303874651,0.8997303710265092,22.191118908588685
24.0,43434.53764992451,996.7141779942377,0.8990579472486924,22.109995690503503
25.0,48617.55567209111,1411.975079344561,0.8983731764881395,22.028312009387218
26.0,56057.39064902963,1987.972129194811,0.897676110159157,21.946104844830394
27.0,66530.73766559205,2717.6757600402293,0.8969668056281501,21.86341099577593
28.0,80779.44437515826,3594.251957937757,0.8962453263944825,21.780267054147338
29.0,99510.96112565626,4611.055657044733,0.8955117422678024,21.696709379604258
30.0,123398.74448035672,5761.624531668497,0.8947661295449177,21.612774075302525
31.0,153082.6682027102,7039.672919620607,0.8940085711815594,21.528496964836787
32.0,189169.3872551396,8439.086177401452,0.8932391569659476,21.44391357004903
33.0,232232.73420936492,9953.91502781817,0.8924579836805581,21.35905909029833
34.0,282814.08243263536,11578.370323141955,0.8916651552691299,21.27396838238968
35.0,341422.69007270935,13306.818042007895,0.8908607829940095,21.188675941824307
36.0,408536.0361813311,15133.774553645937,0.8900449855908669,21.103215885028558
37.0,484600.1706233072,17053.902061905486,0.8892178894271064,21.01762193214031
38.0,570030.2084152014,19062.00355031686,0.8883796286188227,20.931927392718507
39.0,665210.363672738,21153.020104274554,0.887530345216648,20.84616514862529
40.0,770494.6262514075,23322.025495560385,0.8866701892847622,20.760367643151525
41.0,886206.9765592341,25564.223116650912,0.8857993190634272,20.674566866304474
42.0,1012641.7804517823,27874.942298285903,0.8849179010893421,20.58879434289877
43.0,1150062.1644524883,30251.923993800145,0.8840261103307925,20.503081120814656
44.0,1298892.786386214,33000.271358435886,0.8831241302031381,20.417457766079448
45.0,1462188.3590936798,37000.631919617226,0.8822121527413042,20.331954348169642
46.0,1647569.0387428838,43140.12575368414,0.8812903786796754,20.24660043388837
47.0,1867007.6574304667,52240.685396123314,0.8803590175263871,20.161425079779324
48.0,2136479.2704363223,65061.20240375104,0.8794182876351203,20.076456825514267
49.0,2475617.764722488,82299.63091693715,0.8784684162670063,19.991723688098123
50.0,2907380.1909427014,104595.03664583278,0.8775096396450422,19.907253156714297
51.0,3457718.477417044,132529.62297777546,0.8765422029950287,19.82307218848629
52.0,4155259.6657664096,166630.70760025157,0.8755663605781889,19.739207204834795
53.0,5030993.942889238,207372.66566014357,0.8745823757133344,19.65568408851378
54.0,6117970.766747129,255178.84648600157,0.8735905207872682,19.572528181356006
55.0,7451003.780938558,310423.45941427856,0.8725910772540288,19.489764282647123
56.0,9066385.694402818,373433.4221278136,0.8715843356236689,19.40741664802823
57.0,11001611.99629427,444490.2057098135,0.8705705954344457,19.32550898927193
58.0,13295111.761785947,523831.62707763625,0.8695501652226458,19.244064474115735
59.0,15985992.566416938,611653.6522588853,0.8685233624666044,19.163105727332862
60.0,19113794.071856335,708112.1300126406,0.8674905135316265,19.08265483156257
61.0,22718247.706664354,813324.5607480889,0.8664519535935662,19.002733329245864
62.0,26839051.742017467,927372.7696718391,0.8654080265519126,18.923362224760414
63.0,31515874.10456865,1050987.24972449,0.864359084932162,18.84456198709121
64.0,36796099.95634626,1188772.1652288258,0.8633054897680058,18.76635255284026
65.0,42757862.90253583,1350452.6236089428,0.8622476104744109,18.688753329984227
66.0,49535007.58036945,1550340.3093025351,0.8611858247129711,18.611783201481163
67.0,57338815.08446855,1806758.7031360327,0.8601205182367722,18.53546052966161
68.0,66476591.36823307,2141497.2755618896,0.8590520847216365,18.45980316088787
69.0,77367163.72056705,2579295.2157921814,0.8579809255879718,18.38482843049722
70.0,90553539.7574027,3147351.8942933287,0.8569074498056811,18.31055316814639
71.0,106712874.53048456,3874865.6327354037,0.8558320736880042,18.236993703341714
72.0,126663831.67991728,4792599.514612802,0.8547552206712212,18.164165871340575
73.0,151371579.25474295,5932474.085004838,0.8536773210806902,18.092085019317068
74.0,181950573.41663548,7327186.737896624,0.8525988118844514,18.02076601273475
75.0,219665268.64699075,9009857.272785353,0.8515201364336107,17.9502232419834
76.0,265928898.5675953,11013699.446903586,0.8504417441911852,17.880470629175136
77.0,322300567.21834177,13371717.42088065,0.8493640904469312,17.811521635209427
78.0,390480743.5155541,16116427.202933814,0.8482876360211574,17.74338926695745
79.0,472305310.9386627,19279602.545925733,0.847212846955175,17.676086084744245
80.0,569738365.2041283,22892069.54204991,0.8461401941944707,17.609624209622854
81.0,684865405.3122495,26986805.673940286,0.845070153252291,17.54401533141445
82.0,819922185.9275699,31618092.509773932,0.84400320387385,17.47927071605221
83.0,977440937.0820866,36889733.26087004,0.8429398296789907,17.415401213850142
84.0,1160531473.7051337,42979498.87813593,0.8418805178012351,17.352417267313616
85.0,1373272016.9293616,50158764.86991835,0.8408257585166801,17.29032891914248
86.0,1621184007.4775772,58807642.22843385,0.839776044860831,17.229145820494743
87.0,1911766389.7563653,69426120.28995074,0.8387318722405729,17.168877239113424
88.0,2255070941.6598873,82641553.72784115,0.8376937380362242,17.109532067442142
89.0,2664296773.125292,99212756.31723903,0.8366621411951898,17.051118830995875
90.0,3156387677.124993,120031188.94905688,0.8356375818201893,16.99364569661799
91.0,3752620525.2129216,146119565.5942532,0.8346205607505809,16.937120480627684
92.0,4479169102.172258,178628062.7899322,0.8336115791370229,16.881550657181887
93.0,5367631533.344817,218828583.94337934,0.8326111380121425,16.826943366540974
94.0,6455516933.169925,268107366.2208932,0.8316197378558968,16.77330542317103
95.0,7786682018.561727,327956067.62366176,0.8306378781566363,16.720643323993993
96.0,9411707403.664879,399961723.96443796,0.8296660569699186,16.66896325656675
97.0,11388215938.837816,485796020.24230605,0.8287047704735451,16.618271107058685
98.0,13781137677.257483,587218348.1072686,0.8277545125206095,16.56857246830291
99.0,16663065944.778133,706166454.7400905,0.8268157741924639,16.519872647802465
100.0,20115257908.795887,844990791.4280874,0.8258890433494186,16.472176675510347
101.0,24229961410.83583,1006810736.6763152,0.8249748041814915,16.42548931160923
102.0,29114563779.957012,1195956462.859236,0.8240735367616673,16.379815054267798
103.0,34897906604.54817,1418466598.148443,0.823185716598454,16.33515814715793
104.0,41738970564.907455,1682614499.312342,0.8223118141901103,16.291522586903106
105.0,49837942771.564865,1999438741.3595965,0.8214522945843202,16.24891213051777
106.0,59449629169.68855,2383261230.9233403,0.8206076169388418,16.20733030260391
107.0,70899120224.46577,2852176843.018627,0.8197782340849953,16.166780402419967
108.0,84599423656.5381,3428498913.2261243,0.8189645920997011,16.127265510945758
109.0,101070828159.20123,4139154927.332081,0.8181671298803377,16.088788497708546
110.0,120961791104.65314,5016024970.685024,0.8173862787232371,16.051352027434508
111.0,145070920292.4267,6096213122.011108,0.8166224619137051,16.014958566691273
112.0,174369714559.16528,7422254307.185039,0.8158760943209251,15.97961039030075
113.0,210025880369.1441,9042255631.444191,0.8151475819971604,15.945309587545571
114.0,253426794553.48828,11009989567.848341,0.8144373217908608,15.912058068348669
115.0,306202996613.31024,13385185782.411598,0.8137457009671332,15.879857569239688
116.0,370253659598.4077,16234624569.765728,0.8130730968330953,15.848709659094098
117.0,447778747615.9709,19634635068.983353,0.8124198763786934,15.818615744819772
118.0,541324841290.30884,23675396948.70349,0.8117863959278009,15.78957707685109
119.0,653853740205.545,28467259720.031292,0.8111730007947802,15.761594754403365
120.0,788843327125.8876,34149112961.509087,0.810580024957167,15.734669730645964
121.0,950429187935.9547,40898720929.74306,0.8100077907418864,15.708802817704845
122.0,1143596056862.7532,48944884243.95349,0.8094566085175862,15.68399469141969
123.0,1374427102607.1965,58581163013.87925,0.8089267764028738,15.660245895991268
124.0,1650415738740.582,70180847457.47704,0.8084185799914904,15.637556848479168
125.0,1980845507123.0369,84212932527.05714,0.8079322920843857,15.615927843053845
126.0,2377242534139.264,101258735613.63995,0.8074681724367497,15.595359055112425
127.0,2853899342035.2983,122028762882.60281,0.8070264675252589,15.575850545264101
128.0,3428471352302.672,147379627886.04562,0.8066074103232129,15.557402263073744
129.0,4122647577777.0127,178330697134.5566,0.806211220089159,15.540014050645654
130.0,4962888537469.021,216080173011.19424,0.8058381021785772,15.523685646094387
131.0,5981230121314.329,262021650868.21063,0.8054882478646573,15.508416686780077
132.0,7216163194250.979,317764430460.2013,0.8051618341709542,15.494206712365155
133.0,8713608060441.057,385163054106.64825,0.8048590237290487,15.481055167772007
134.0,10528035546488.39,466363307316.71924,0.8045799646467876,15.468961405913271
135.0,12723829936914.79,563872225286.6146,0.8043247903870795,15.457924690232442
136.0,15377010827148.04,680658871678.7919,0.8040936196721773,15.447944197151124
137.0,18577458156927.6,820292400731.7335,0.8038865564006213,15.439019018302599
138.0,22431833991716.4,987123014128.9286,0.8037036895736134,15.431148162569107
139.0,27067401768532.812,1186508970801.2085,0.8035450932460342,15.424330558025591
140.0,32636936319326.48,1425092226586.1086,0.803410826492603,15.418565053687717
141.0,39324971866396.16,1711124781266.7317,0.8033009333825771,15.413850421060483
142.0,47355623825370.0,2054844248942.3403,0.803215442977167,15.410185355588855
143.0,57002157196378.83,2468896909077.248,0.8031543693446926,15.407568477933832
144.0,68598552076038.54,2968807658627.683,0.8031177115836574,15.405998335048864
145.0,82553299248588.34,3573491726136.8164,0.8031054538658251,15.405473401150529
146.0,99365511292485.95,4305803410194.004,0.8031175654994351,15.405992078538326
147.0,119643575067369.33,5193126318674.482,0.8031540010000089,15.407552698216996
148.0,144126616895101.44,6268017763910.031,0.8032147001779831,15.41015352040281
149.0,173708902657992.38,7568939515364.024,0.8032995882483699,15.41379273490439
150.0,209467729514288.7,9141139947097.377,0.8034085759479689,15.418468461310557
151.0,252695773905743.7,11037770595565.703,0.8035415596661136,15.424178749049837
152.0,304938903120168.9,13321334910621.115,0.8036984215985327,15.430921577351143
153.0,368041231304233.2,16065598408644.752,0.8038790299089318,15.438694855017092
154.0,444200048339266.44,19358096397928.312,0.8040832389011932,15.447496420058306
155.0,536033362744023.3,23303364341592.387,0.8043108892144946,15.457324039251924
156.0,646663556192324.4,28027042410262.78,0.8045618080266759,15.468175407521485
157.0,779821967790332.0,33681002222899.875,0.8048358092658676,15.480048147171294
158.0,939979161153773.0,40449597643036.52,0.8051326938433988,15.492939807059328
159.0,1132505868211461.2,48557170948644.664,0.8054522498959206,15.506847861607296
160.0,1363871587011347.8,58276944704655.54,0.8057942530338277,15.521769709660896
161.0,1641887431302051.0,69941341595493.94,0.8061584666082865,15.537702673295218
162.0,1975998829401106.8,83953815552053.66,0.8065446419885612,15.554643996479337
163.0,2377636868259544.5,100802323210371.17,0.8069525188440304,15.572590843589097
164.0,2860636680342679.5,121074491524778.2,0.8073818254415104,15.591540297864674
165.0,3441728444754476.0,145474703191100.97,0.8078322789537535,15.611489359754525
166.0,4141113114809091.0,174843610890302.8,0.8083035857713567,15.632434945108098
167.0,4983137094604275.0,210180667691671.2,0.8087954418264139,15.654373883306821
168.0,5997076353326397.0,252670579383864.12,0.80930753292776,15.677302915312433
169.0,7218054087723371.0,303715152052790.44,0.8098395350986157,15.701218691567664
170.0,8688124411504193.0,364972149105791.5,0.8103911149224816,15.72611776982375
171.0,1.0457550094702456e+16,438403021562870.8,0.8109619299003819,15.751996612918086
172.0,1.2586324540033416e+16,526332171218046.1,0.811551628809721,15.778851586411259
173.0,1.5146005845848682e+16,631520496979217.8,0.8121598520682103,15.806678956136464
174.0,1.822192458192732e+16,757255831388643.1,0.8127862321081532,15.835474885731111
175.0,2.1915853488464612e+16,907463958454257.2,0.8134303937516618,15.865235434037627
176.0,2.6349259319191336e+16,1086843899237303.1,0.814091954588373,15.895956552405012
177.0,3.1667246156256196e+16,1301030262724923.5,0.8147705253616099,15.927634081995796
178.0,3.804332029359744e+16,1556786982457360.5,0.8154657103550003,15.960263750979394
179.0,4.568516293399689e+16,1862236827433838.0,0.816177107779531,15.993841171618103
180.0,5.48415781016925e+16,2227129205500892.0,0.8169043101664882,16.028361837369896
181.0,6.581078148936603e+16,2663151316153857.5,0.8176469047604469,16.063821119903942
182.0,7.8950297156039e+16,3184289051395067.0,0.8184044739110041,16.10021426600347
183.0,9.468871151988202e+16,3807242027172543.0,0.8191765954676138,16.137536394486183
184.0,1.1353949241792821e+17,4551901909269556.0,0.8199628431738883,16.175782493070898
185.0,1.3611727725196075e+17,5441907979824392.0,0.8207627870592621,16.214947415130002
186.0,1.6315705616911555e+17,6505292644113769.0,0.8215759938310659,16.25502587645058
187.0,1.9553657575755402e+17,7775236296148703.0,0.8224020272651703,16.29601245198028
188.0,2.3430265385970912e+17,9290961331224550.0,0.8232404485928424,16.33790157246174
189.0,2.8070222177778243e+17,1.1098794228556464e+16,0.824090816885659,16.380687521059322
190.0,3.3621871548592877e+17,1.3253430779634112e+16,0.8249526894377142,16.424364430010957
191.0,4.0261503764540077e+17,1.5819457768692228e+16,0.8258256221430612,16.468926277176237
192.0,4.819846281813235e+17,1.8873182704023892e+16,0.8267091698693263,16.51436688255575
193.0,5.768118390040242e+17,2.2504824017199624e+16,0.8276028868270067,16.56067990487374
194.0,6.900436479367555e+17,2.6821142996561504e+16,0.8285063269331233,16.60785883807033
195.0,8.251753737903441e+17,3.1948596489526308e+16,0.8294190441696757,16.655897007743107
196.0,9.863525348222077e+17,3.803707577923191e+16,0.8303405929359556,16.704787567682967
197.0,1.1784918870208072e+18,4.526434293825883e+16,0.831270528394388,16.754523496338756
198.0,1.4074259066316836e+18,5.384127566808862e+16,0.8322084068102275,16.805097593214793
199.0,1.6800742224618852e+18,6.401799541498799e+16,0.8331537858833312,16.856502475377656
200.0,2.0046461028833536e+18,7.609102941169586e+16,0.8341062250725825,16.908730573921893
201.0,2.3908804739845883e+18,9.041167066292675e+16,0.8350652859135284,16.961774130356527
202.0,2.850329018966525e+18,1.0739564522172262e+17,0.8360305323266312,17.015625193100202
203.0,3.396687679120919e+18,1.27534309935244e+17,0.8370015309171369,17.070275613974754
204.0,4.0461863737281167e+18,1.5140766749308454e+17,0.8379778512677382,17.125717044612404
205.0,4.818046113372471e+18,1.7969941029101914e+17,0.8389590662208861,17.181940932957268
206.0,5.735010765093713e+18,2.1321435980586157e+17,0.8399447521514964,17.238938519811047
207.0,6.823968876905645e+18,2.5289882913634432e+17,0.840934489232183,17.296700835290764
208.0,8.116681596370676e+18,2.9986433615763514e+17,0.841927861687742,17.3552186953557
209.0,9.650627766328013e+18,3.554152699502263e+17,0.8429244580386747,17.4144826984265
210.0,1.1469990954492916e+19,4.210814273709309e+17,0.8439238713370494,17.474483221920952
211.0,1.3626816719860197e+19,4.9865622142510266e+17,0.8449256993917718,17.53521041882706
212.0,1.6182358643197235e+19,5.9024145808285e+17,0.8459295449815146,17.596654214413412
213.0,1.9208652799651525e+19,6.983001384859698e+17,0.8469350160594933,17.658804302878252
214.0,2.2790368303415222e+19,8.257187865849595e+17,0.847941725949893,17.721650143943723
215.0,2.7026957332054667e+19,9.758799912539713e+17,0.8489492935265419,17.78518095979328
216.0,3.203519652586494e+19,1.1527486275602671e+18,0.8499573433919344,17.84938573160377
217.0,3.79521365320731e+19,1.3609714031619704e+18,0.8509655060333788,17.914253196612343
218.0,4.493858170383376e+19,1.6059948664862103e+18,0.8519734179820071,17.979771844712314
219.0,5.318313141473594e+19,1.8942008931132564e+18,0.8529807219475614,18.04592991561193
220.0,6.29069346795063e+19,2.2330665198993925e+18,0.8539870669568534,18.112715395517707
221.0,7.436920381186286e+19,2.6313465289028214e+18,0.854992108467578,18.180116014388474
222.0,8.787367931949187e+19,3.099287897893932e+18,0.8559955084863743,18.24811924271535
223.0,1.0377611044623503e+20,3.6488737931432945e+18,0.8569969356620307,18.316712288877746
224.0,1.224929933213156e+20,4.2941092969430344e+18,0.8579960653834351,18.38588209602895
225.0,1.4451165891101994e+20,5.051345747054941e+18,0.8589925798526611,18.45561533956098
226.0,1.7040201468938754e+20,5.939660088047365e+18,0.8599861681632174,18.52589842410485
227.0,2.008300752678598e+20,6.981285287365805e+18,0.8609765263536243,18.596717481111273
228.0,2.36573663866069e+20,8.202113906912585e+18,0.8619633574664849,18.668058365975057
229.0,2.7854048694777e+20,9.63227004509344e+18,0.8629463715832626,18.739906655739016
230.0,3.277890622291361e+20,1.1306779307015905e+19,0.8639252858648018,18.81224764635245
231.0,3.85552805108014e+20,1.3266331097478916e+19,0.8648998245681085,18.88506635050636
232.0,4.5326787655199044e+20,1.5558172733215418e+19,0.8658697190690406,18.9583474950366
233.0,5.326052500884669e+20,1.8237128575917232e+19,0.8668347078619701,19.032075518899386
234.0,6.255077812823512e+20,2.136679606263413e+19,0.8677945365652749,19.10623457073241
235.0,7.34232807177196e+20,2.50209107186502e+19,0.8687489579048955,19.18080850699156
236.0,8.614015914775621e+20,2.928494867416361e+19,0.8696977317043896,19.25578088963952
237.0,1.010055889350191e+21,3.425795741609372e+19,0.8706406248541176,19.331134984433422
238.0,1.1837237935657866e+21,4.005468123947828e+19,0.8715774112795743,19.40685375901689
239.0,1.3864954201835574e+21,4.680803091020414e+19,0.8725078719064554,19.482919880998818
240.0,1.623109700883326e+21,5.467190517865094e+19,0.8734317946093657,19.55931571650105
241.0,1.8990554183455998e+21,6.38244549377805e+19,0.8743489741597946,19.636023328533923
242.0,2.2206870616755806e+21,7.447186124756892e+19,0.8752592121710356,19.71302447539394
243.0,2.595357581572155e+21,8.68526347543601e+19,0.8761623170279746,19.790300609537937
