Time,J,A,S,tau
0.0,100.0,10.0,0.5722120477904182,26.70542781526196
1.0,105.13496036279402,10.9851737017207,0.5699705946209586,27.610515864780602
2.0,110.8181753277724,11.925676751238447,0.5677450405765387,28.51819867519423
3.0,117.00642779296622,12.824408522126827,0.5655356565210747,29.428171164067233
4.0,123.66067714444621,13.683796374226207,0.563342300308111,30.340299055627227
5.0,130.74538545867034,14.506129785506475,0.5611647929810774,31.254453936219328
6.0,138.22821367654015,15.293569936378864,0.5590029223724609,32.17051287046669
7.0,146.07980066281397,16.04815673013881,0.5568564460086691,33.088358112495754
8.0,154.27349367597463,16.7718177724407,0.5547250943625391,34.00787673372674
9.0,162.78517199170523,17.4663742569015,0.5526085733316584,34.92896036911933
10.0,171.593024448906,18.13354883633239,0.5505065670673711,35.85150487694407
11.0,180.67736576157756,18.774972464724357,0.548418740461095,36.77541003337831
12.0,190.02049667701354,19.392189337540746,0.5463447411646472,37.70057930704327
13.0,199.60659029362012,19.986661117957837,0.5442842014938747,38.626919653100764
14.0,209.42144231853095,20.55977669485942,0.5422367411349298,39.5543410837287
15.0,219.4524374332537,21.11285489596714,0.5402019685601943,40.48275649991446
16.0,229.68847100737923,21.647145764361618,0.5381794822604743,41.412081619312026
17.0,240.11966437047303,22.163843597609016,0.536168873473989,42.34223439888429
18.0,250.73753198741807,22.664081519590194,0.534169726518969,43.2731351708058
19.0,261.5346778373914,23.14894183039226,0.5321816209442602,44.204706216926134
20.0,272.50475865509065,23.619460950692083,0.5302041326923421,45.136871498488645
21.0,283.6426010633886,24.076623072609188,0.5282368350132682,46.06955680391884
22.0,294.94377848206574,24.52137990785696,0.5262793000477128,47.002689006113286
23.0,306.4049865988835,24.954635281984295,0.5243310997569729,47.93619644999468
24.0,318.02352239123445,25.377267087055277,0.5223918066791161,48.87000822363943
25.0,329.79775602287776,25.790110822669263,0.5204609957867943,49.804054452943426
26.0,341.7265304293192,26.193982348167093,0.5185382439081476,50.73826568805902
27.0,353.8096771929733,26.589661271929987,0.5166231328120922,51.67257305843236
28.0,366.0474426851812,26.97791157294847,0.5147152471688408,52.60690787017185
29.0,378.4410238206904,27.3594662667699,0.5128141793897424,53.541201509837116
30.0,390.9919585959866,27.735047291034796,0.5109195252596702,54.47538532645008
31.0,403.7026557385561,28.105351890974692,0.5090308908809584,55.409390226076184
32.0,416.5759012018255,28.471067669193335,0.5071478869823494,56.34314685638041
33.0,429.6152274886655,28.83286516341058,0.5052701360955169,57.27658495599473
34.0,442.8246077475576,29.191406269446755,0.5033972674955941,58.209633687085734
35.0,456.20865121757816,29.547342469360828,0.5015289229217873,59.14222095018936
36.0,469.77253766783815,29.90131802725134,0.4996647551221632,60.07427344270379
37.0,483.52185886092445,30.25397276873652,0.49780442611819087,61.00571677296433
38.0,497.4629919184426,30.60594208150404,0.49594761650593594,61.93647420200088
39.0,511.60257335182,30.95785989626594,0.49409401293808153,62.86646820437244
40.0,525.9481003408318,31.31036074326671,0.4922433252500526,63.79561803078254
41.0,540.5073779941299,31.664080170313575,0.4903952717745804,64.7238417169529
42.0,555.2889567485527,32.01965756896762,0.48854959182687674,65.6510541754106
43.0,570.3019225929089,32.37773875577954,0.48670604225705577,66.57716763111256
44.0,585.5558895413552,32.73897325207422,0.4848643942256128,67.50209206936768
45.0,601.0612961619836,33.10402484160052,0.4830244476858894,68.42573283987873
46.0,616.8289220269057,33.47356054510155,0.48118601181745785,69.34799379194979
47.0,632.8705741211869,33.848266887618166,0.47934893091579706,70.2687729089527
48.0,649.198403452151,34.22883864911752,0.4775130622009819,71.18796598889895
49.0,665.8255643216183,34.615988112742286,0.4756782940997196,72.10546346316934
50.0,682.7658164046671,35.01044757496962,0.4738445413679867,73.02115118088446
51.0,700.0336960293963,35.41296031032588,0.4720117397193833,73.93491129961538
52.0,717.6447702449188,35.824302737011145,0.4701798674599521,74.84661839528066
53.0,735.6151092627199,36.245258871454006,0.46834891635548004,75.7561446269875
54.0,753.9621962992636,36.67665117046655,0.46651892933300265,76.66335287108016
55.0,772.7039587482393,37.1193179785841,0.4646899682790359,77.56810254572677
56.0,791.8598093428197,37.574128383029105,0.46286213983939,78.47024480281424
57.0,811.4499410274605,38.041986090147226,0.46103558883183654,79.36962372779747
58.0,831.4957510164492,38.523812352375806,0.459210489655697,80.266077846879
59.0,852.0200630713952,39.02058143382279,0.45738707739751977,81.15943427737551
60.0,873.0464769070279,39.53327920738492,0.45556560604006413,82.04951653867577
61.0,894.6006691130071,40.06294888152065,0.45374640101536345,82.93613449728501
62.0,916.7089345021259,40.61065764008318,0.45192981439383223,83.81909292099294
63.0,939.3998427244901,41.17751528528514,0.45011625938018685,84.69818467971821
64.0,962.7030348342769,41.76468145051518,0.44830620175630226,85.57319244832601
65.0,986.6500395213809,42.37333801662111,0.446500146764944,86.44389106217086
66.0,1011.2744373192888,43.004738938097816,0.4446986810014039,87.31003928552829
67.0,1036.6110122314462,43.66015257051145,0.4429024159573749,88.17139086726921
68.0,1062.6976487740576,44.34091998588898,0.44111205594724107,89.02768080141695
69.0,1089.573106387469,45.04841357366854,0.4393283400037087,89.87863706662787
70.0,1117.279620040375,45.78405473734692,0.43755208382888194,90.72397172114871
71.0,1145.8609013509144,46.54932732164959,0.4357841692626116,91.56338318369583
72.0,1175.3635774936731,47.34573692440113,0.43402552578550785,92.39655966167088
73.0,1205.8371949517505,48.17487289967519,0.43227718065990944,93.22316855442627
74.0,1237.3331406865009,49.038342056213196,0.4305401936087902,94.04287014646002
75.0,1269.907043783722,49.93781957285063,0.4288157217920601,94.85530318247176
76.0,1303.6164972887948,50.87501214410258,0.4271049668157334,95.66009643919244
77.0,1338.5233599392518,51.851687816851964,0.42540922069889076,96.45685787235377
78.0,1374.6918456098006,52.86964333805606,0.4237298206169836,97.24518485257113
79.0,1412.1908306791477,53.93073136763156,0.42206819172285376,98.02465342937326
80.0,1451.091780038066,55.03682955774626,0.4204258024781467,98.79482891185803
81.0,1491.4712142340525,56.18986307019589,0.41880420393669676,99.55525518559726
82.0,1533.408477192001,57.391776749531935,0.4172049870479154,100.30546545795862
83.0,1576.9883422451453,58.64455108659773,0.4156298164190216,101.04497191305276
84.0,1622.2986340450182,59.950179107961006,0.4140803912835934,101.77327638881141
85.0,1669.4329405547803,61.31067368476313,0.4125584714493229,102.48986071231379
86.0,1718.4881109616265,62.72805102095017,0.41106584394199663,103.19419701941811
87.0,1769.5670261131343,64.20432700154144,0.40960433856688605,103.88573916679731
88.0,1822.77600578659,65.74150940473976,0.40817580254496066,104.5639323481025
89.0,1878.2275728508312,67.34158084224826,0.40678210289743333,105.22820602457409
90.0,1936.037817119667,69.00650202321319,0.40542511166303163,105.87798243854056
91.0,1996.3290688673178,70.73817879050254,0.4041066921895693,106.51267153524604
92.0,2059.227282698773,72.5384789010591,0.40282869772942254,107.13167793030523
93.0,2124.864514330858,74.40918073607993,0.40159293872423374,107.73439830451154
94.0,2193.37640627521,76.35200610337749,0.40040119768731075,108.32022635299647
95.0,2264.9043387215725,78.36854842359978,0.39925517473120004,108.88855311549555
96.0,2339.5931189401595,80.46032397587757,0.39815652162604237,109.43876942822503
97.0,2417.5926537279947,82.62867775730433,0.39710676317247406,109.97026959875011
98.0,2499.055965601245,84.87485535683024,0.3961073531416008,110.48245090358722
99.0,2584.1402120317553,87.19988526055127,0.3951595696543895,110.97472092609853
100.0,2673.0051726915017,89.60467313115343,0.39426459533595454,111.44649369891856
101.0,2765.8134214338547,92.08986008093189,0.3934233856285768,111.89720089531288
102.0,2862.7294486948936,94.65594054759607,0.3926367749159385,112.32628430869698
103.0,2963.9187780064576,97.30309695555997,0.3919053176521294,112.73321092715685
104.0,3069.547904433251,100.0313416220142,0.3912294214318228,113.1174615720471
105.0,3179.782140709251,102.84032923079062,0.39060916192325507,113.47854970117301
106.0,3294.786564283619,105.72952230226673,0.3900444428988886,113.81600618982655
107.0,3414.7223813838373,108.69798395183967,0.3895347871581395,114.12940151417871
108.0,3539.7490796517745,111.74456545928066,0.38907952243093086,114.41832684155816
109.0,3670.01911386089,114.86768280279603,0.3886775516930306,114.68241905874925
110.0,3805.681455994227,118.06552382987643,0.38832756267151863,114.92133853003735
111.0,3946.874435925342,121.33581297191303,0.38802778211215466,115.13479627328749
112.0,4093.7308640138617,124.67603452171458,0.3877762054238387,115.32252892756308
113.0,4246.368910026893,128.08319075437558,0.3875703405747984,115.4843272486355
114.0,4404.899505249329,131.55404501066423,0.38740746399881043,115.62000780597094
115.0,4569.413080665143,135.0848404367833,0.3872843161221627,115.72944682865771
116.0,4736.706746397717,142.71863053002406,0.3902526524615764,113.99452093821175
117.0,4915.721364899251,184.84784048943624,0.40811741883037345,103.2779611853675
118.0,5178.252643795127,258.8709651708785,0.4304127005677426,89.96678913120185
119.0,5592.354149937175,357.3993565969375,0.4543919123826058,76.42463773523079
120.0,6210.100090486371,466.83237793222264,0.4763487570946138,65.1894200698799
121.0,7054.751229671641,578.5190522371471,0.4947137599271901,56.722877424929464
122.0,8132.104788754724,689.8617976577543,0.5096521480654367,50.39505434567984
123.0,9442.709523835934,800.7979074405729,0.521782742907168,45.55064542464871
124.0,10986.784849253898,911.8972596601636,0.5316806671508028,41.732122572582014
125.0,12765.43463506126,1023.7667524139522,0.5397909809920369,38.64213495237579
126.0,14780.703958539387,1136.9106588804666,0.5464455056243558,36.08618155674844
127.0,17035.35463613892,1251.7176934803688,0.5518924349355402,33.9334823083882
128.0,19532.61137380929,1368.4766899687615,0.5563203468641424,32.09331257722287
129.0,22275.929136470862,1487.395457142026,0.5598752765432843,30.500819290295883
130.0,25268.795229670548,1608.6162393918437,0.562672515821978,29.10836942292829
131.0,28514.557357821202,1732.2273361658376,0.5648047302182335,27.88014235160215
132.0,32016.287177707298,1858.2711916127278,0.5663476935745146,26.788612761718483
133.0,35776.62474783126,1986.7514770563241,0.5673642825896946,25.812252684349566
134.0,39797.68748031387,2117.636469509524,0.5679074390253865,24.93393768902305
135.0,44080.931245156484,2250.863198542801,0.5680222730758764,24.139865345616165
136.0,48627.066082064186,2386.3397143958473,0.5677477174675901,23.41875212095883
137.0,53435.94904555581,2523.9471289012918,0.5671177103141369,22.761279637093057
138.0,58506.51667299235,2663.541344668652,0.5661621361913143,22.159670942176962
139.0,63828.672362671176,2852.3892894596756,0.5649075457602455,21.607382930860116
140.0,69579.62252512714,3213.5305382019733,0.5633777429426917,21.09885262140848
141.0,76275.67847242458,3817.4401788167997,0.5615942201025405,20.629326846097594
142.0,84595.03302036546,4667.698374686862,0.5595765275131472,20.1947139994517
143.0,95203.42149320184,5746.35726806477,0.5573425667662397,19.79147059190461
144.0,108707.1314065685,7036.418449455861,0.554908829686525,19.416511053844054
145.0,125656.27566595691,8524.55398255457,0.552290594199052,19.06713514427523
146.0,146553.02567138892,10200.203494744677,0.5495020862159334,18.74096893739609
147.0,171857.02830780557,12054.589727874412,0.5465566135539128,18.435916818858352
148.0,201988.6227737453,14080.016285071719,0.5434666780843986,18.150121630016724
149.0,237330.1545980855,16269.397373292764,0.5402440691721718,17.88193183192168
150.0,278226.2103676214,18615.93721268287,0.5368999423526938,17.629874025593907
151.0,324983.446917697,21112.903631703648,0.5334448859709249,17.392629675416288
152.0,377869.004164657,23753.478267245308,0.529888977816174,17.169015797890694
153.0,437110.49800318625,26530.629704488743,0.5262418322941171,16.957968043057964
154.0,502893.7773655509,29437.04163831661,0.5225126406424679,16.758526994577245
155.0,575360.2895479397,32466.4007587537,0.5187102060849905,16.569825968050992
156.0,654615.0587227939,35708.72819634646,0.514842976105799,16.391079512505247
157.0,741210.1287058342,39534.28278840482,0.5109190614595879,16.221575549206516
158.0,837032.9258249725,44450.052720326166,0.5069462629001764,16.060666968548038
159.0,945568.4489424443,50918.20380028099,0.5029320884060806,15.907764796868097
160.0,1071654.1523825305,59318.184163738806,0.49888376916809385,15.762332173159425
161.0,1221164.4618156962,69959.39907655376,0.49480827348079026,15.623879041256124
162.0,1400742.734612669,83094.58731517021,0.4907123186047214,15.491957491454356
163.0,1617576.562737261,98928.93738929983,0.4866023811427391,15.366157622361738
164.0,1879201.638533468,117626.18339245574,0.48248470610949273,15.24610387871361
165.0,2193326.31351001,139312.82486799743,0.47836531470683563,15.131451818252511
166.0,2567676.6608351255,164081.23160892588,0.4742500114182259,15.021885184816592
167.0,3009852.8450910673,191992.00322694273,0.47014438996327573,14.917113346876919
168.0,3527198.532793771,223075.9523231336,0.4660538389639393,14.816868960743085
169.0,4126684.1672510603,257335.7654163163,0.4619835468017425,14.720905900292854
170.0,4814799.421843097,294750.612665027,0.4579385061503593,14.628997386976508
171.0,5597485.728261653,335431.82877940737,0.4539235182945028,14.540934301120082
172.0,6480982.968460634,380145.200507421,0.44994319684230477,14.456523675733267
173.0,7474525.556655446,430586.1350833136,0.44600197149357323,14.375587309959158
174.0,8593445.716283023,489222.10001372953,0.4421040916508807,14.297960538725004
175.0,9861429.253601983,559044.4198721453,0.4382536298898769,14.223491102097798
176.0,11311772.740928747,643367.3263963694,0.4344544852710108,14.152038132353015
177.0,12987873.00385468,745672.4899128419,0.43071038685012325,14.083471216211672
178.0,14943120.980425429,869487.0388353887,0.4270248968905263,14.017669562279776
179.0,17240331.846578836,1018285.2276831625,0.423401414438866,13.95452122281404
180.0,19950850.953994844,1195408.3837831083,0.41984317859270553,13.893922402344563
181.0,23153352.632050384,1404000.2119964466,0.41635327214105095,13.835776812325939
182.0,26932521.22035774,1646953.7751157167,0.4129346250099271,13.779995091783318
183.0,31377501.836153388,1926870.2939212823,0.40959001791496535,13.72649427404261
184.0,36580392.22415605,2246030.9141326663,0.4063220860975391,13.675197296124647
185.0,42634674.35140955,2606577.929493914,0.40313332300162746,13.626032556370594
186.0,49635041.141339764,3011505.2332470044,0.4000260841286167,13.578933504196346
187.0,57681690.92639009,3466184.2958600014,0.39700259092181706,13.533838265587358
188.0,66889952.40625669,3979547.344177544,0.39406493468927795,13.490689300005997
189.0,77403157.63980208,4564696.8558249045,0.3912150805791264,13.449433085691448
190.0,89406416.11795329,5239070.208381018,0.3884548715829382,13.410019831038964
191.0,103140098.00004837,6024289.628778298,0.385786032570568,13.372403209095104
192.0,118911004.47352628,6945808.743545483,0.3832101743279679,13.336540114585441
193.0,137101614.84713945,8032410.556918291,0.38072879761807477,13.302390439703537
194.0,158176558.72324246,9315620.025128573,0.3783432971450977,13.269916870441527
195.0,182685995.71491235,10829066.561109908,0.3760549655694651,13.239084697365804
196.0,211266440.0620846,12607826.186263166,0.3738649974832528,13.209861641898621
197.0,244639070.39813334,14687770.13811694,0.37177449326180967,13.182217698450094
198.0,283605193.057121,17104996.802790448,0.3697844628590154,13.156124988840018
199.0,329040539.5220778,19895976.447192024,0.367895829584362,13.131557627489073
200.0,381891962.32695425,23099645.795283258,0.3661094337041685,13.108491599395384
201.0,443184441.132087,26761596.471350063,0.36442603593857487,13.086904648053254
202.0,514045043.84006464,30939379.422822606,0.3628463208646532,13.066776172297642
203.0,595745590.759692,35707960.28369606,0.36137090016613194,13.048087132257889
204.0,689762570.8940667,41164694.88469794,0.3600003157328574,13.030819963526929
205.0,797850707.856359,47433467.16643831,0.3587350426000747,13.014958498942766
206.0,922125696.9492981,54667809.48334281,0.35757549171761405,13.000487897463172
207.0,1065151593.7161548,63052939.80035384,0.3565220125417934,12.987394579679561
208.0,1230027978.782539,72806744.65650095,0.3555748954302623,12.975666169608711
209.0,1420472943.4922538,84179770.10824752,0.35473437385080436,12.965291442117376
210.0,1640899070.6689124,97454329.47406408,0.354000626390747,12.956260275869893
211.0,1896479433.7669156,112942882.68921503,0.3533737785542699,12.94856361148183
212.0,2193202098.602714,130986268.70037723,0.352853904347285,12.942193414559023
213.0,2537915047.2601767,151953815.2335265,0.3524410276461149,12.93714264337613
214.0,2938372980.8117056,176248209.18287256,0.3521351233492482,12.933405221003675
215.0,3403304545.052594,204316940.22088832,0.3519361182956797,12.930976011707507
216.0,3942525541.4327254,236670480.87277627,0.3518438919740981,12.929850801271888
217.0,4567119456.030896,273906319.1204629,0.35185827700799066,12.930026281312568
218.0,5289700289.574667,316737427.4941229,0.35197905941577673,12.931500037416019
219.0,6124766614.518807,366023569.77912056,0.35220597865047026,12.93427054098792
220.0,7089148979.535995,422803871.2811215,0.35253872742184134,12.938337144733293
221.0,8202548167.455753,488329227.9030986,0.3529769513049354,12.9437000817502
222.0,9488150405.749495,564093413.5653694,0.3535202481266355,12.950360468165416
223.0,10973312967.622538,651861787.5545499,0.3541681671631396,12.958320309167577
224.0,12690303732.190819,753696968.2586306,0.354920208133715,12.967582508614266
225.0,14677078678.525423,871981219.1005104,0.35577582000035674,12.978150882170228
226.0,16978083582.117672,1009436982.5874915,0.3567343995826212,12.990030173996887
227.0,19645076286.587353,1169150236.2923856,0.3577952899968459,13.003226077038573
228.0,22737988162.550747,1354604026.3752413,0.358957778925718,13.017745257028016
229.0,26325854119.24542,1569730236.4138842,0.3602210967236548,13.033595380195848
230.0,30487899262.953026,1818986121.829907,0.36158441439103267,13.050785144704987
231.0,35314858614.94711,2107460679.6683133,0.3630468414066075,13.069324316085108
232.0,40910625615.11581,2441013527.0165243,0.36460742343588115,13.089223766724052
233.0,47394324718.14163,2826446954.1473465,0.3662651399288448,13.110495519547028
234.0,54902899990.32651,3271710016.5450907,0.36801890162119405,13.133152796035283
235.0,63594293123.031815,3786132349.3674626,0.36986754794553905,13.157210068846119
236.0,73651243310.06502,4380684214.859025,0.37180984437538916,13.182683119016591
237.0,85285792639.00899,5068257880.112305,0.373844479725798,13.209589097952815
238.0,98744488625.48367,5863966241.937912,0.37597006340850775,13.23794659456579
239.0,114314290143.2679,6785454382.775302,0.3781851226639742,13.267775707693298
240.0,132329164018.31375,7853222864.269656,0.3804880997867171,13.299098124031707
241.0,153177378666.4237,9090967754.447945,0.3828773493606345,13.33193720182299
242.0,177309476167.11374,10525951482.610977,0.38535113551176975,13.36631806069635
243.0,205246964174.73364,12189424839.357424,0.3879076292167846,13.402267677540888
244.0,237591951883.5662,14117126042.85566,0.3905449056759369,13.439814988848575
245.0,275037885913.4963,16349887327.364904,0.39326094175976767,13.478990999909016
246.0,318381705189.5704,18934378431.95011,0.3960536135526566,13.519828901039704
247.0,368537791584.2942,21924014874.267,0.39892069401122326,13.562364191117474
248.0,426554213562.1081,25380054653.163452,0.4018598507537422,13.606634808707625
