Time,J,A,S,tau
0.0,100.0,10.0,0.588967700022917,57.409870512395976
1.0,99.74603488993866,8.981576836826582,0.5876678303612041,58.405041967624506
2.0,99.49762452049521,8.067995289990566,0.5863875160244124,59.40067423082551
3.0,99.25469544198315,7.248646452161318,0.5851260938294345,60.396607653097135
4.0,99.01689817559053,6.513731963350795,0.5838828229860051,61.39281304053372
5.0,98.78390859820698,5.85448440754447,0.5826569724329991,62.38926422114119
6.0,98.5554252522395,5.263049187030623,0.5814478215945943,63.38593769175189
7.0,98.33116705884414,4.73239758255016,0.5802546609665697,64.3828123184045
8.0,98.11087130262628,4.256235467918738,0.5790767925545215,65.37986907309603
9.0,97.89429174298067,3.828923368997299,0.5779135300915069,66.37709079028484
10.0,97.68119702793874,3.445413928422949,0.5767641991956881,67.37446196248942
11.0,97.47136924362809,3.1011840523781076,0.5756281374018307,68.37196855510238
12.0,97.26460258125826,2.79218098992181,0.5745046940571638,69.36959783855681
13.0,97.06070221327263,2.5147763197169173,0.5733932302137426,70.36733824689462
14.0,96.85948323049776,2.265716717594888,0.5722931184004744,71.36517924624282
15.0,96.66076969069442,2.042087222863139,0.5712037423377866,72.36311121851195
16.0,96.46439379983532,1.8412767927380302,0.5701244966637216,73.36112536159774
17.0,96.27019512030928,1.6609434984860003,0.5690547865510335,74.35921359509787
18.0,96.0780198791865,1.4989891337891141,0.5679940273274888,75.35736847865742
19.0,95.8877203505818,1.3535330025054093,0.5669416440953293,76.35558313964607
20.0,95.69915425650555,1.22288811773111,0.5658970712691355,77.353851204816
21.0,95.51218424884264,1.1055430625909786,0.5648597521506221,78.35216674147016
22.0,95.32667742544702,1.0001422446998092,0.56382913848161,79.35052420331976
23.0,95.14250486751378,0.9054698331070427,0.5628046899540871,80.348918379913
24.0,94.95954123467759,0.8204364154486543,0.561785873764455,81.34734435237431
25.0,94.77766437179211,0.7440645033698462,0.5607721641324173,82.3457974512715
26.0,94.59675493977373,0.6754776029013843,0.5597630418131749,83.34427321762197
27.0,94.41669608173281,0.6138902282077013,0.5587579936448642,84.34276736744243
28.0,94.23737309109467,0.5585975365367624,0.5577565120598925,85.34127575722403
29.0,94.05867310210047,0.5089677372277337,0.5567580946143523,86.33979435170907
30.0,93.88048479809186,0.46443464378042365,0.5557622435413909,87.33831919309641
31.0,93.70269811652686,0.42449037631725156,0.5547684652675428,88.33684637060296
32.0,93.52520397623897,0.3886802716615694,0.5537762699848946,89.33537199112139
33.0,93.34789399872729,0.3565964116683464,0.5527851711892766,90.33389214981305
34.0,93.1706602402428,0.32787398255322564,0.5517946852597096,91.33240290057016
35.0,92.9933949209469,0.30218594073513666,0.550804331026952,92.33090022614411
36.0,92.81599015481936,0.27924009786537823,0.5498136293655117,93.32938000725278
37.0,92.63833767560281,0.25877491239939004,0.548822102794207,94.32783799050233
38.0,92.46032855890039,0.24055701768482782,0.5478292750896444,95.32626975503416
39.0,92.28185293303814,0.22437812099247748,0.5468346709197305,96.32467067634909
40.0,92.102799682686,0.21005295820144898,0.5458378154887031,97.32303588842771
41.0,91.92305614362485,0.19741654705115416,0.5448382342065344,98.32136024337133
42.0,91.74250776633363,0.18632283221837376,0.5438354523745516,99.31963826503436
43.0,91.56103778595363,0.17664274550319103,0.5428289948986846,100.31786410283745
44.0,91.37852684438178,0.16826259558227988,0.5418183860256418,101.31603147643628
45.0,91.19485259952285,0.1610829939548688,0.5408031491071693,102.31413361729203
46.0,91.00988930902021,0.15501762702702226,0.5397828064002874,103.31216320460284
47.0,90.823507377587,0.1499920875615295,0.5387568789039822,104.3101122936978
48.0,90.63557284237359,0.14594315832434754,0.537724886227337,105.30797223273144
49.0,90.44594684848208,0.14281822975737007,0.5366863465129855,106.30573357584949
50.0,90.25448504520178,0.1405744489420898,0.5356407764077686,107.30338598100654
51.0,90.06103693476256,0.13917843575174416,0.5345876910901622,108.3009180977448
52.0,89.8654451457036,0.1386057274592582,0.5335266043666057,109.29831743950547
53.0,89.66754484049848,0.1388399711544963,0.5324570288589672,110.29557027564525
54.0,89.46716211108881,0.13987645213004057,0.5313784761442212,111.29266135257414
55.0,89.26411396728244,0.1417160148045009,0.5302904572737364,112.28957387186222
56.0,89.05820673035443,0.1443689712234009,0.5291924831011451,113.28628920402382
57.0,88.84923486417894,0.14785469623801528,0.5280840648666978,114.28278666676096
58.0,88.63697941096437,0.15220252386688146,0.526964714927172,115.27904323015701
59.0,88.42120688040474,0.15745035117836348,0.5258339475911594,116.27503329401424
60.0,88.2016672100632,0.1636468781375946,0.524691280155669,117.27072829959326
61.0,87.97809192440478,0.17085184869642717,0.5235362341292007,118.26609636655454
62.0,87.7501918788384,0.179137166995539,0.5223683367024091,119.2611018486991
63.0,87.51765503310718,0.18858728031848868,0.5211871223821369,120.25570488656409
64.0,87.28014347818639,0.1993009867939825,0.5199921350324685,121.24986081543032
65.0,87.03729040351983,0.2113927348864042,0.5187829301557515,122.2435195511279
66.0,86.78869655743051,0.2249944221390127,0.5175590775730439,123.23662487071199
67.0,86.53392633548492,0.24025726230262473,0.5163201644813176,124.22911361085039
68.0,86.27250327447304,0.2573542126921909,0.5150657990110716,125.22091474021757
69.0,86.00390528669469,0.27648200322848465,0.5137956141341848,126.2119483675315
70.0,85.72755877648869,0.2978640594857517,0.5125092724114214,127.20212451716512
71.0,85.44283218085535,0.32175450085643775,0.5112064713200224,128.1913417748231
72.0,85.14902921861236,0.34844132213865575,0.509886948994709,129.17948585558733
73.0,84.84538068705236,0.3782501234903527,0.5085504911180126,130.166427861733
74.0,84.53103521149731,0.41154979982749185,0.5071969387482671,131.15202230770882
75.0,84.20504977225102,0.4487571245482347,0.5058261965467548,132.13610507188451
76.0,83.86637822190362,0.49034195164870886,0.5044382426385642,133.11849090937594
77.0,83.51385844544977,0.5368350793304744,0.503033139690178,134.09897065443272
78.0,83.14619934248888,0.588834430358813,0.5016110463613048,135.07730834549784
79.0,82.76196516938857,0.6470119534323014,0.5001722309478135,136.0532377581171
80.0,82.35955813798759,0.712124611527374,0.4987170865716887,137.02645852668755
81.0,82.01484686101136,0.8242457422376985,0.49724614622828417,137.99663230651134
82.0,81.75003289153346,0.9873705648505353,0.4957601009066049,138.96337809048887
83.0,81.50398013235562,1.1678261002045056,0.4942598185907191,139.92626726479116
84.0,81.28159024288905,1.367706278510066,0.49274636418819395,140.88481837866772
85.0,81.08873988497233,1.5893459885027277,0.4912210207743893,141.8384915035422
86.0,80.93246164254111,1.8353428978974835,0.4896853115984408,142.7866823115628
87.0,80.82115641626378,2.108579531369309,0.4881410226208331,143.72871591227798
88.0,80.76484016833493,2.4122443381500203,0.4865902244956081,144.6638407131633
89.0,80.7754327192839,2.7498519019340417,0.48503529412107954,145.59122224214266
90.0,80.86709272573572,3.1252604310013754,0.4834789341614834,146.509937328595
91.0,81.05660093450139,3.5426852244359086,0.48192418930771885,147.4189689452773
92.0,81.36380054560068,4.0067069861613085,0.4803744583228096,148.31720193565343
93.0,81.81209208307322,4.52227328730753,0.4788335001698153,149.20342006001303
94.0,82.42900898707862,5.0946910360984505,0.4773054327454177,150.07630471255615
95.0,83.24683424920998,5.7296065363469255,0.4757947204546166,150.93443636383816
96.0,84.30329800184296,6.432974147017221,0.47430615186112063,151.77629833504406
97.0,85.64235409180438,7.211009022421484,0.4728448034256071,152.60028399032558
98.0,87.314959402382,8.070122354820287,0.47141598697273474,153.40470816280364
99.0,89.38000174843637,9.016840388817279,0.4700251833727336,154.1878218765972
100.0,91.90512583370803,10.057705117135221,0.468677958003014,154.9478321254171
101.0,94.96773403173167,11.199157539196069,0.4673798617394062,155.6829252386088
102.0,98.65583976416245,12.447408223105198,0.4661363178460852,156.39129433737907
103.0,103.06897435853637,13.80829659771256,0.4649524991524578,157.0711696077963
104.0,108.31902744520696,15.287142764280707,0.46383319615182017,157.7208511439687
105.0,114.53089671715567,16.88860680669457,0.46278269037088327,158.33874129578052
106.0,121.84318835024624,18.616545350337667,0.46180462413351,158.92337795665014
107.0,130.40852441496583,20.47389667349268,0.460901892564513,159.47346309310464
108.0,140.3938893108539,22.462576938719614,0.46007654545710364,159.98788885087706
109.0,151.98059556422035,24.58341054351662,0.4593297159618927,160.46575725162182
110.0,165.36409796699886,26.836095413908303,0.45866158053348255,160.90639223556394
111.0,180.75361725204667,29.21919209821039,0.45807133774675196,161.30934673636895
112.0,198.37139721050698,31.730163909929157,0.45755723231279266,161.6743985730831
113.0,218.45195002934972,34.365430399276946,0.45711659072393374,162.00154296782674
114.0,241.24088369188786,37.120463621288124,0.4567458943093359,162.29097560605257
115.0,266.99374010929324,39.98989618927405,0.4564408644900621,162.54307229463691
116.0,295.97456119122324,42.96764636965315,0.45619656253760305,162.75836469739124
117.0,328.45438056332966,46.04705408999075,0.4560075018570753,162.93751281527437
118.0,364.709628834221,49.22101166290291,0.4558677554224816,163.08127835987727
119.0,405.0204106902522,52.48209703118644,0.45577106820698327,163.19049692466396
120.0,449.66880217999784,55.82269236532855,0.45571095766222186,163.26605297146682
121.0,498.93702303535076,59.235094214674504,0.4556808079415409,163.30885645160652
122.0,553.105673457217,62.711606997280825,0.45567395198938715,163.31982254310498
123.0,612.4518845034378,66.24462284983751,0.4556837417256342,163.2998543669978
124.0,677.2474947608504,69.82668568610958,0.45570360609544697,163.24982894900447
125.0,747.7572298979487,73.45054074347921,0.4557270974612779,163.17058618459126
126.0,824.2369064062656,77.10917021374327,0.45574792669089254,163.0629207914895
127.0,906.9315793321186,80.79581940520289,0.4557599900485948,162.92757642156243
128.0,996.073802430396,84.50400957280034,0.4557573860110363,162.76524247647137
129.0,1091.8817955190345,88.22754654284826,0.45573442761142585,162.57655213454728
130.0,1194.5577936042605,91.96051729681044,0.45568564613508566,162.36208270133395
131.0,1304.2862205734182,95.6972877385153,0.45560579455991673,162.12235611818184
132.0,1421.2320030280812,99.43249182895984,0.4554898449812688,161.85784113220063
133.0,1545.5390643178143,103.1610169982182,0.45533298265315303,161.5689563712978
134.0,1677.3293278847757,106.87798779676346,0.4551305974156733,161.25607396361553
135.0,1816.6996425504017,110.57876633566524,0.4548782913930756,160.91951992928662
136.0,1963.7214558606609,114.2589152425091,0.4545718554446446,160.55958161680215
137.0,2118.4415436110817,117.91419005244718,0.45420726319773064,160.17651031019707
138.0,2280.874031688696,121.54054221927845,0.453780692191304,159.77052094493257
139.0,2451.0107959574766,125.13406456199858,0.4532884657084893,159.3418034430959
140.0,2628.805950872363,128.69102690581497,0.4527271130716793,158.89051697672875
141.0,2814.191490958551,132.20781137653384,0.4520932930706437,158.41680230610234
142.0,3007.0577627419266,135.6809595737528,0.4513838745676471,157.9207755643099
143.0,3207.2740385799975,139.1071069885208,0.4505958502500463,157.402539275463
144.0,3414.668736512671,142.48301240319338,0.4497263988124966,156.86218001067405
145.0,3629.0445690629576,145.80552708850865,0.44877284106146176,156.29977320711254
146.0,3850.165261169183,149.07161283569943,0.4477326866190843,155.71538352403417
147.0,4077.7700437600147,152.27830494075494,0.44660357515377297,155.1090692935224
148.0,4311.559492906027,155.4227441739416,0.4453833500636506,154.4808821281574
149.0,4551.209751539025,158.5021371397902,0.4440699834372094,153.8308706361222
150.0,4796.362272988854,161.51378738934582,0.4426616574452868,153.15908072668825
151.0,5046.632821513306,164.45506672245654,0.4411566948162708,152.46555781453787
152.0,5302.582845543464,166.16531817358526,0.5096712527306878,78.5481638200099
153.0,5557.072795142619,171.05667398405848,0.5468854324074752,55.0901383101025
154.0,5822.341692745666,184.16628842090356,0.5538833503327063,49.84759216333537
155.0,6115.14414677987,203.0739709689232,0.5559610753695767,46.79665095149295
156.0,6448.401565194804,227.53136855052003,0.5558597835656569,44.636979820388014
157.0,6834.690499550194,257.57077847953025,0.5545323751167844,42.958073544558985
158.0,7286.754083863912,293.3068675574204,0.5524312786043073,41.57779868563146
159.0,7817.615350842367,334.8728583284057,0.5498095129252172,40.399801794407324
160.0,8440.56248577227,382.39123782720526,0.5468238482737483,39.367234468819476
161.0,9169.071107736872,435.9577233422583,0.5435784787392353,38.443970490238975
162.0,10016.67916952219,495.63176151510265,0.5401462513354874,37.60579033392401
163.0,10996.841343160451,561.4304858200209,0.5365800860118718,36.8357822869335
164.0,12122.774008498332,633.3251327482584,0.5329196039758909,36.12174815875267
165.0,13407.273785211968,711.2394901459904,0.5291951777074148,35.45466040108087
166.0,14862.564634397808,795.0490521118925,0.5254305341279554,34.827693440270636
167.0,16500.11541475879,884.5823607404558,0.5216445333588402,34.23558234437809
168.0,18330.494221103258,979.6221308839931,0.5178523524362684,33.67420367469586
169.0,20363.200002393838,1079.9083200932107,0.5140663665277037,33.14027476255753
170.0,22606.543228499217,1185.140996730891,0.5102967687654932,32.63114598794501
171.0,25067.521060554296,1294.984030253315,0.5065520329017023,32.144650691731506
172.0,27751.698592472854,1409.0692887089108,0.5028392637409139,31.67899499385537
173.0,30663.15831594174,1527.0007284057447,0.4991644660869986,31.232674622679436
174.0,33804.42745372077,1648.3590002951237,0.4955327506117011,30.80441389732271
175.0,37176.440353029684,1772.706006258747,0.4919484955038328,30.39311892533153
176.0,40778.522677812696,1899.589476333189,0.4884154739673687,29.997841733020323
177.0,44608.39705648794,2028.54747394086,0.4849369556237181,29.617752539999685
178.0,48662.21283366397,2159.112742761211,0.48151578780758053,29.25211802253952
179.0,52934.579867020555,2290.8169656580367,0.4781544608925405,28.900284832162434
180.0,57418.64461464622,2423.1946678967115,0.47485516175414,28.561666046480422
181.0,62106.28616648343,2554.4097395812382,0.4716198178751977,28.23572958890406
182.0,66982.57882165314,2693.735303301781,0.4684501305572737,27.921990986473414
183.0,72067.24193368538,2856.8204294745033,0.4653476068301649,27.62000600013596
184.0,77418.64233124616,3055.2731842216867,0.46231358313048515,27.329365088486156
185.0,83124.20772204983,3299.791798646091,0.4593492455421724,27.049688895490583
186.0,89297.25611516199,3600.5516286809484,0.4564556470724082,26.780624521198554
187.0,96074.69699161248,3967.2191511894744,0.4536337219948153,26.52184245602766
188.0,103614.68767058983,4408.859372271008,0.4508842980860425,26.273034032925132
189.0,112093.98293699794,4933.809921015781,0.44820810712476167,26.03390929074775
190.0,121705.03212818097,5549.551108171856,0.44560579383105636,25.804195172727912
191.0,132652.78751571453,6262.587070603498,0.4430779235742122,25.583634004651593
192.0,145151.34083805527,7078.34723043464,0.44062498908654435,25.371982182141046
193.0,159420.36103793792,8001.112881206676,0.438247416334741,25.169009049730676
194.0,175681.57068935025,9033.969929063504,0.43594556963951114,24.974495926179255
195.0,194154.99454352888,10178.790296491308,0.4337197562516338,24.78823526588741
196.0,215055.8698713202,11436.233910305433,0.4315702302244975,24.61002991252305
197.0,238591.25921386248,12805.785353452084,0.4294971962669457,24.439692409026847
198.0,264957.1144966377,14285.796331100484,0.42750081259710193,24.277044471946542
199.0,294335.81452615524,15873.563651781647,0.4255811942303072,24.12191638895676
200.0,326893.8517684336,17565.404017011682,0.4237384152346516,23.97414661318604
201.0,362779.90388766205,19356.753645479475,0.4219725112669593,23.833581306279804
202.0,402123.43193115504,21242.271679166333,0.42028348176338554,23.70007393854074
203.0,445033.5006648141,23215.946393316743,0.41867129178103357,23.573484954479646
204.0,491598.47097476124,25271.21925121513,0.41713587388637985,23.453681423946925
205.0,541884.2807459449,27400.020701761732,0.4156771296665128,23.34053676291093
206.0,595934.0070541924,29611.13659227005,0.4142949315158481,23.233930404215684
207.0,653825.9739566941,31936.88017429354,0.41298912372185,23.133747600972036
208.0,715731.7195220207,34425.50359515515,0.4117595238777986,23.039879137967144
209.0,781955.8747944,37138.03092616565,0.41060592403046303,22.95222112449731
210.0,852964.2324603472,40145.88566455269,0.40952809174594973,22.870674770566406
211.0,929405.1037470195,43528.70532223091,0.408525771076608,22.79514618787909
212.0,1012124.1429626725,47372.19106293426,0.4075986834334717,22.72554620496246
213.0,1102172.7025577994,51765.96918442677,0.4067465284416404,22.66179018214151
214.0,1200809.7771634897,56801.53149813337,0.40596898467346887,22.603797840392254
215.0,1309498.2900264289,62570.274624760954,0.4052657102817081,22.55149310337534
216.0,1429897.5429774472,69161.65855021274,0.4046363436200571,22.5048039456702
217.0,1563850.3221413968,76661.55974631222,0.4040805038025377,22.46366224190924
218.0,1713366.2095355343,85150.83443428072,0.4035977911689836,22.428003627594315
219.0,1880602.2948493622,94704.09048858318,0.4031877876856532,22.397767369618304
220.0,2067842.0111657311,105388.6883356591,0.40285005731943213,22.372896239752947
221.0,2277471.925688263,117264.0080614085,0.4025841464083232,22.353336382617247
222.0,2511957.092863201,130380.8900991645,0.4023895838259083,22.33903721246644
223.0,2773820.2092703525,144781.30922524238,0.4022658813571307,22.329951291195297
224.0,3065611.309605101,160498.29267634224,0.4022125336828591,22.326034221958754
225.0,3389893.3263244573,177555.89327741312,0.4022290187517866,22.32724454786006
226.0,3749211.070712581,195969.4647801626,0.4023147976361566,22.333543650350546
227.0,4146079.169526685,215745.61382117227,0.4024693148718759,22.344895646117482
228.0,4582954.930126619,236883.94059222454,0.40269199824705326,22.361267310117167
229.0,5062229.077919033,259397.66495314444,0.402982258950746,22.382627965179143
230.0,5586278.328259014,283334.4958087862,0.4033394915131377,22.40894940399203
231.0,6157570.876610097,308788.9096614026,0.4037630738290752,22.440205806104952
232.0,6778792.824948109,335910.1894207701,0.4042523669877722,22.476373655411045
233.0,7452993.0558698345,364907.10626444663,0.4048067152448297,22.517431657072756
234.0,8183730.056805613,396050.223279256,0.4054254458712509,22.563360660485884
235.0,8975228.365130581,429671.5006086624,0.406107869241001,22.614143580426894
236.0,9832522.442134542,466162.98493718693,0.40685327849705993,22.669765337833976
237.0,10761572.564925225,505973.18139477615,0.4076609494017592,22.730212774865514
238.0,11769391.89490155,549602.000414989,0.40853014037389207,22.795474586786508
239.0,12864143.711150955,597595.4260054387,0.4094600921517884,22.86554126565074
240.0,14055200.447381658,650538.8234637011,0.41045002771029016,22.94040502204338
241.0,15353219.88532326,709049.7598102394,0.4114991522038832,23.020059727209233
242.0,16770160.884265931,773771.1222884255,0.4126066526093172,23.10450085643953
243.0,18319283.248179473,845363.6097070362,0.41377169772106287,23.193725418465252
244.0,20015162.603050817,924498.3569621339,0.41499343799970007,23.287731906492557
245.0,21873620.859895233,1011850.332488503,0.416271005267399,23.386520241630738
246.0,23911679.08165469,1108091.560344427,0.4176035127341136,23.490091712038407
247.0,26147507.20856741,1213884.7705290243,0.4189900547651009,23.598448931117478
248.0,28600286.078850884,1329878.1708498513,0.42042970667020735,23.711595783156906
249.0,31290129.691929348,1456700.108326316,0.4219215247123689,23.829537373734045
