Time,J,A,S,tau
0.0,100.0,10.0,0.9337978394957064,12.754162497456933
1.0,100.70748222486975,10.084178065873795,0.9331324068856135,13.741323602446819
2.0,101.3951121703226,10.158691227995732,0.9324792750413475,14.729536566763318
3.0,102.06290181809035,10.224786532218507,0.9318381334492206,15.718548511718236
4.0,102.71102222864717,10.283290425187,0.9312085824868234,16.708286829448422
5.0,103.33978244631696,10.334948986775846,0.930590216875496,17.698685621982406
6.0,103.9496103356595,10.380429572691181,0.9299826274229334,18.689685589344656
7.0,104.54102405691089,10.420331969954285,0.9293854033671453,19.681233103904386
8.0,105.11460620081215,10.45520034639509,0.9287981336830546,20.673279223447523
9.0,105.67099662047471,10.485518171815269,0.9282204087396808,21.665780138039324
10.0,106.21086880574556,10.511727133838844,0.9276518210407897,22.658695572363218
11.0,106.73492374846839,10.534221517367286,0.9270919665051546,23.65198928493717
12.0,107.24387860750775,10.55335971329575,0.9265404449380341,24.645628085882063
13.0,107.73845880707906,10.569465489883385,0.925996860496106,25.63958174774912
14.0,108.21939264144481,10.582830080306232,0.9254608228004635,26.633822825011798
15.0,108.68740517931897,10.593719113129772,0.9249319462236252,27.62832607690427
16.0,109.14321605518846,10.602373162325872,0.9244098508755544,28.62306841243098
17.0,109.58753313521609,10.609008444525838,0.9238941629988499,29.618028850106075
18.0,110.02105758785774,10.613827194405447,0.9233845128780817,30.61318761019803
19.0,110.4444696079481,10.617005271475753,0.9228805392988014,31.608527204782916
20.0,110.85844468612402,10.618712639195323,0.9223818830577851,32.60403065605503
21.0,111.26363550724729,10.619097166170986,0.9218881935774601,33.59968290545081
22.0,111.66068197977849,10.618296993929373,0.9213991243736219,34.59546974799413
23.0,112.05021559621947,10.616442826101563,0.920914332273336,35.59137762045633
24.0,112.43284114807963,10.613647683443713,0.9204334828009583,36.587394506208184
25.0,112.80915902918679,10.61002199789055,0.9199562428172329,37.583508616485126
26.0,113.17975697996975,10.605668027981418,0.9194822836400753,38.579708869119834
27.0,113.54520068356301,10.600676297753841,0.9190112835262694,39.5759852074945
28.0,113.90605388494937,10.595136382246395,0.9185429213160786,40.572327658406905
29.0,114.26287049400048,10.589132338743882,0.9180768793505947,41.568726720422866
30.0,114.61618697403166,10.582739903266628,0.9176128457027982,42.56517360709762
31.0,114.96653815745502,10.57603413563648,0.9171505089475361,43.561659590424625
32.0,115.31445489946337,10.56908787290688,0.916689559241323,44.55817612661191
33.0,115.66045768444197,10.56196872080261,0.9162296909129127,45.55471509272467
34.0,116.00506532769631,10.5547435419147,0.9157705989709318,46.55126842315169
35.0,116.34879549259752,10.547478524652911,0.9153119789152965,47.54782810753246
36.0,116.69216550312943,10.540238246802454,0.9148535280715394,48.54438621330298
37.0,117.0356946459176,10.533087462968625,0.914394944085039,49.54093475610562
38.0,117.37990200278948,10.52609083815137,0.9139359246554979,50.537465759817984
39.0,117.72530982348952,10.519313045346152,0.9134761677737218,51.53397120436615
40.0,118.07245620701141,10.51282257110979,0.9130153698343203,52.53044261868007
41.0,118.42188201014456,10.506688715052997,0.9125532268332356,53.526871444060475
42.0,118.77412834622481,10.500980541453908,0.91208943488016,54.52324913640683
43.0,119.12976013675429,10.495772863742607,0.9116236872675321,55.51956650094734
44.0,119.48936386131115,10.491146816524564,0.9111556741961149,56.515813672654986
45.0,119.85352629904375,10.487183618369421,0.9106850858177259,57.51198077763426
46.0,120.22284508646167,10.48396651334025,0.9102116111469974,58.50805769862599
47.0,120.5979703322812,10.481593931495476,0.9097349324066022,59.50403270828999
48.0,120.97956408993697,10.480168189631414,0.9092547301698788,60.499893678210796
49.0,121.36829098395529,10.479791971203563,0.9087706847689077,61.495628432873794
50.0,121.7648664084196,10.480581757490421,0.9082824710059242,62.49122331201937
51.0,122.17005080051979,10.48266868972441,0.9077897584945949,63.48666313353754
52.0,122.58460770213063,10.486184512336639,0.90729221653739,64.48193264587087
53.0,123.00935939665511,10.49127769716091,0.9067895091967435,65.47701480834579
54.0,123.44519054420539,10.498117873302908,0.9062812948399083,66.4718903844714
55.0,123.89299293694211,10.50687654015979,0.905767231290731,67.46653993454163
56.0,124.35373705383302,10.51774869363111,0.9052469711656947,68.46094151417738
57.0,124.82845919987116,10.530952805452134,0.9047201627370417,69.45507074487307
58.0,125.3182241120073,10.546714837261337,0.904186452937192,70.44890242974843
59.0,125.82421721019477,10.565301717689774,0.903645483681379,71.44240706883052
60.0,126.34766038748452,10.586993805360832,0.9030968954984963,72.43555376707894
61.0,126.88987658748478,10.61210302154907,0.9025403268301049,73.42830825903225
62.0,127.45229002118155,10.640978816567463,0.9019754144720562,74.4206323650574
63.0,128.03641032563206,10.673997119938617,0.9014017950192771,75.41248506743517
64.0,128.64389555593726,10.7115885682552,0.9008191058490946,76.40381961581407
65.0,129.27648651769758,10.754209204785584,0.9002269853634468,77.39458652893059
66.0,129.93612858899363,10.802389079744287,0.8996250769806874,78.38472852970084
67.0,130.62486243936453,10.856690153067657,0.8990130269976444,79.3741849459832
68.0,131.34496390946134,10.917755178463104,0.8983904909080158,80.36288652614662
69.0,132.09887052916335,10.98628131085466,0.8977571316495065,81.35075822719234
70.0,132.88927871303113,11.063056498950509,0.8971126263400991,82.33771537972308
71.0,133.71912350134232,11.148944322302192,0.8964566658629662,83.32366519996454
72.0,134.59163493280164,11.244910772820482,0.8957889609523041,84.30850403067996
73.0,135.51038408446976,11.352027231114418,0.8951092454398595,85.29211687844476
74.0,136.47929895196853,11.471478698590875,0.8944172794297093,86.27437657813583
75.0,137.5027565584589,11.604590495868436,0.893712857926671,87.25514090761683
76.0,138.58563369098366,11.752834232191734,0.8929958150001741,88.23425184660485
77.0,139.73334186513873,11.917836537241143,0.8922660278804723,89.21153463238878
78.0,140.95197980024662,12.101419376813796,0.8915234309878843,90.18679338049454
79.0,142.24838208417123,12.305597390925689,0.8907680180525915,91.1598112094468
80.0,143.63025688264224,12.532610880302352,0.889999854574181,92.13034664582413
81.0,145.1063102779409,12.78494567923814,0.8892190869890859,93.09813135347139
82.0,146.6864198318865,13.065362943119942,0.8884259554355577,94.0628667695094
83.0,148.3818260649083,13.376925499194924,0.8876208058890444,95.02422104519722
84.0,150.20534397765593,13.723026266090582,0.8868041032031995,95.981825755556
85.0,152.17159127947028,14.107415576586432,0.8859764439376361,96.93527269254646
86.0,154.29733488345892,14.534241965167727,0.8851385747652912,97.88410906140268
87.0,156.60180735350158,15.008082656881374,0.8842914071867769,98.82783380984453
88.0,159.10711578604204,15.533979402217524,0.8834360346723981,99.76589324109165
89.0,161.83870766811,16.11747390338035,0.8825737499076401,100.69767658443311
90.0,164.82590894290416,16.764642578601123,0.8817060620319227,101.62251152349333
91.0,168.10254417719946,17.482129633531514,0.8808347134189763,102.53965977647621
92.0,171.70764693131142,18.27717655163154,0.8799616951961677,103.44831291338244
93.0,175.68627803089547,19.157648951300736,0.879089261717415,104.34758830057487
94.0,180.09042073735867,20.132047781391844,0.8782199389456871,105.23652653556954
95.0,184.98004651717144,21.20952427656138,0.8773565338885321,106.11408829821595
96.0,190.42427199242246,22.399874034917833,0.8765021355260632,106.97915322972077
97.0,196.50265790019174,23.71351832461896,0.875660110052517,107.83051996606449
98.0,203.30664053218987,25.161466774588373,0.8748340879292089,108.66690794773614
99.0,210.94109706756092,26.755258780205846,0.8740279414230185,109.48696129285273
100.0,219.52603714711123,28.50688038249646,0.8732457510811017,110.28925509008958
101.0,229.19842464857012,30.428654238082295,0.8724917598697458,111.07230436399236
102.0,240.11400864063356,32.533099205609574,0.8717703135349265,111.83457624119622
103.0,252.44934152020932,34.83276205987682,0.8710857879186485,112.5745048111129
104.0,266.4037866955252,37.340017694691916,0.8704425013880004,113.29050934134054
105.0,282.20143649819204,40.066841648338894,0.8698446138614326,113.98101553744335
106.0,300.09291482372396,43.02456175344548,0.869296015759835,114.64447913718205
107.0,320.3571013566714,46.223592329029174,0.8688002081052412,115.2794114073142
108.0,343.3027029790275,49.67315332655315,0.868360174456503,115.88440635011267
109.0,369.2692859269375,53.380998072909215,0.8679782551562952,116.45816762564891
110.0,398.62796901318654,57.35315528795345,0.8676560271057124,116.9995342477763
111.0,431.78174033490063,61.59369068826021,0.8673941911661152,117.50750448441094
112.0,469.1652191420257,66.1044971597001,0.8671924706010304,117.98125717195856
113.0,511.24359034843616,70.88514765428194,0.8670495368604739,118.42016721248423
114.0,558.5109976906858,75.93279813243349,0.8669629572435976,118.82381611511104
115.0,611.4883470944048,81.24214203583931,0.8669291650346218,119.19199741794004
116.0,670.7202935760915,86.8054250162288,0.866943455440853,119.52471632229741
117.0,736.7714710552154,92.6125356415637,0.8670000162621049,119.82218194665204
118.0,810.2221958483049,98.65114132960922,0.8670919789034854,120.08479501299514
119.0,891.663609073676,104.90686416216865,0.8672114873392303,120.31313152520615
120.0,981.6921235215151,111.36349987311512,0.8673497863149464,120.50792239063554
121.0,1058.3981795836257,145.33766477759033,0.8978573937108587,59.43575387670203
122.0,1177.096127974968,191.20163753040129,0.9196580340215863,31.171085141226254
123.0,1348.3660820665302,231.6876402686665,0.9263309377392307,24.925798968583205
124.0,1566.62019874763,276.3527654858488,0.929964424056516,21.565081339464804
125.0,1838.480236633551,326.80407823254427,0.9321697038394721,19.351864122883192
126.0,2173.0695062814784,383.82044632116447,0.9335166414832928,17.7494676520116
127.0,2581.006525527127,447.96546196114963,0.9342773655276145,16.52298340897315
128.0,3074.160236509759,519.7218673544229,0.9346043514076429,15.549016229814999
129.0,3665.564574488798,599.5300316825961,0.9345921191181609,14.754903191823741
130.0,4369.367735375054,687.7988415738736,0.9343035475044336,14.094334407235706
131.0,5200.787940644989,784.9062807733451,0.9337826876782025,13.536050891739885
132.0,6176.045304702988,891.1965784478197,0.9330616703763726,13.058001909690407
133.0,7312.2851748239955,1006.9748018568766,0.9321646936899741,12.6440866446483
134.0,8607.448374727488,1166.2918905433119,0.931110464642218,12.282222863759618
135.0,10134.202790755526,1401.14855740851,0.9299137703233769,11.963133543790262
136.0,12008.40438038357,1704.5947818913642,0.9285865224297284,11.67956510893218
137.0,14339.941922931335,2086.498344076301,0.9271384780105923,11.425756751876708
138.0,17257.530797159616,2559.0365349396498,0.9255777498700621,11.197073307571353
139.0,20912.686272528772,3135.503617658981,0.9239111768929789,10.989744161529021
140.0,25481.826204977435,3830.002266384517,0.9221445987993254,10.80067321709076
141.0,31167.739807972073,4657.275876862198,0.9202830639980274,10.62729785364272
142.0,38200.59804817015,5632.556081335954,0.9183309895462751,10.467482429144503
143.0,46838.47360222049,6771.394741157699,0.9162922862924328,10.3194366264151
144.0,57362.62647942413,8095.596920406275,0.9141704581676782,10.181651964905987
145.0,70068.87348413847,9709.57034505118,0.9119686821626894,10.052851781403836
146.0,85446.4655507056,11742.532802014372,0.9096898733887933,9.931951466801724
147.0,104204.32250917803,14326.893583056984,0.9073367388341493,9.818026461266
148.0,127280.81071686746,17615.986033887068,0.9049118220449147,9.710286300735518
149.0,155880.37532936322,21786.467455686063,0.902417540687064,9.608053387054689
150.0,191512.51522747756,27038.952884420065,0.8998562183924756,9.51074552113674
151.0,236029.7858137458,33597.825577196956,0.8972301119139798,9.41786140560886
152.0,291662.68822282413,41710.347654782134,0.8945414344260001,9.32896858703466
153.0,361049.40491620864,51645.108057641104,0.891792375608553,9.243693335341588
154.0,447236.6853446748,63733.90192008838,0.888985118977247,9.161712141827108
155.0,553762.6391508349,78527.11652983788,0.8861218568930983,9.082744536997016
156.0,685046.9620571595,96813.07942179886,0.883204803528601,9.006546999719298
157.0,846780.9115892181,119630.73165980438,0.8802362060474198,8.93290778270067
158.0,1046330.3279344107,148301.75031580986,0.8772183541979203,8.861642502685841
159.0,1293176.869393477,184461.14141016905,0.8741535884896041,8.792590373852304
160.0,1599387.5499820614,230082.5642373875,0.8710443070709729,8.725610980851759
161.0,1980096.662203793,287496.1790016997,0.8678929714258166,8.660581512521004
162.0,2453979.1452715774,359397.93338110467,0.8647021109844787,8.597394386254996
163.0,3043658.3469937574,448924.6258874103,0.86147432673236,8.535955205107106
164.0,3776162.053176704,560002.4425564377,0.8582122938771442,8.476180997436508
165.0,4683977.267616107,697764.2124274076,0.8549187636308726,8.417998699124174
166.0,5806740.433022018,868946.2319369725,0.8515965641723668,8.361343844367758
167.0,7193486.064897977,1082301.5473121058,0.8482486008368685,8.306159435144597
168.0,8905428.215359174,1349017.6606725652,0.844877855579849,8.252394963940077
169.0,11019225.583458057,1683116.6690314133,0.8414873857436974,8.200005568002037
170.0,13630637.716540225,2101813.663755789,0.8380803221843454,8.148951297872735
171.0,16858425.334264703,2625832.5574668436,0.8346598667934862,8.099196484141999
172.0,20848256.118577223,3279961.3908168823,0.8312292894598016,8.050709189038058
173.0,25776961.9812167,4094263.718872764,0.8277919244930494,8.003460730790826
174.0,31858218.06921599,5105888.529539478,0.8243511665597361,7.957425271497525
175.0,39350462.53091058,6361375.907407627,0.8209104661690797,7.9125794598341574
176.0,48567635.902746774,7919380.553949213,0.817473324747572,7.868902121249903
177.0,59893091.32284196,9853696.508106604,0.8140432893352478,7.826373989037362
178.0,73796835.08935525,12256425.735217169,0.8106239469402299,7.784977470957964
179.0,90855915.83681273,15241126.047159847,0.8072189185968335,7.744696446811434
180.0,111777403.1946015,18946099.33095687,0.8038318531614771,7.705516092780391
181.0,137423462.3675622,23538721.27898764,0.8004664208854269,7.6674227289463985
182.0,168839666.89082786,29221711.77936172,0.7971263067959194,7.630403686840901
183.0,207288922.42048106,36241879.416275755,0.7938152039292364,7.5944471945539345
184.0,254293999.47164243,44901590.852360256,0.7905368064489297,7.559542277029466
185.0,311691649.1162878,55572940.25918494,0.7872948026849701,7.5256786695572035
186.0,381701020.09045583,68714266.33298293,0.7840928681276663,7.49284674262525
187.0,467008405.61402094,84888437.09194452,0.7809346584099711,7.461037436751906
188.0,570868942.7448521,104782657.83862174,0.777823802309936,7.430242205971049
189.0,697225110.1870558,129230917.67352319,0.7747638948009007,7.400452968840557
190.0,850842814.3071752,159241348.88584512,0.7717584901830078,7.371662065929721
191.0,1037469858.4410449,196031119.26086074,0.7688110953222317,7.34386222296441
192.0,1264023955.6285033,241071366.6134536,0.7659251630176545,7.317046518926997
193.0,1538820309.715822,296144031.96293753,0.7631040855208131,7.291208358428019
194.0,1871852478.0804696,363411346.21147734,0.7603511882354125,7.266341447761696
195.0,2275137356.7066374,445497917.8469673,0.7576697236080784,7.242439774202978
196.0,2763136415.979591,545585162.3016182,0.7550628652309587,7.219497588094938
197.0,3353262387.12865,667519773.044785,0.7525337021702889,7.197509387360268
198.0,4066481695.840656,815940786.619929,0.7500852335336018,7.17646990411376
199.0,4928027743.635764,996432445.2589226,0.7477203632861844,7.156374093094358
200.0,5968248371.183569,1215711879.5155761,0.7454418953253532,7.137217121671585
201.0,7223621397.182333,1481860923.4431314,0.7432525288191589,7.118994361212799
202.0,8737982650.785597,1804610541.8830416,0.7411548538142733,7.101701379625159
203.0,10564020122.45607,2195684686.0257993,0.7391513471160409,7.085333934910183
204.0,12765094102.343887,2669209916.053062,0.737244368442061,7.069887969589662
205.0,15417447919.736828,3242199705.4900627,0.7354361568491086,7.05535960587986
206.0,18612881531.135887,3935127943.872039,0.7337288274319212,7.0417451415068735
207.0,22461974738.392235,4772613655.521265,0.7321243682911484,7.0290410460699295
208.0,27097975517.071667,5784246496.381823,0.7306246377687409,7.0172439578736805
209.0,32681483863.131035,7005589923.047032,0.7292313619425107,7.0063506811489535
210.0,39406117665.98173,8479403769.06999,0.7279461323618455,6.996358183615989
211.0,47505451038.48268,10257125368.935974,0.7267704040624074,6.987263594336915
212.0,57261425006.36855,12400662267.410934,0.7257054938066535,6.979064201785719
213.0,69014625461.78719,14984549957.939356,0.724752578563149,6.971757452124864
214.0,83176819825.82216,18098546788.443092,0.7239126942153967,6.9653409476444255
215.0,100246232122.82292,21850761613.198895,0.7231867344863345,6.959812445339021
216.0,120826217534.39389,26371430630.770153,0.7225754500942166,6.955169855595114
217.0,145648005113.1454,31817501205.996964,0.7220794481195434,6.951411240952429
218.0,175598495990.6589,38378205507.7567,0.7216991915731055,6.948534814944103
219.0,211754295027.85974,46281845563.17611,0.7214349991654179,6.946538940994805
220.0,255423409212.70062,55804054324.84388,0.7212870452684854,6.9454221313648805
221.0,308196505095.1305,67277845338.79393,0.7212553600694133,6.945183046140276
222.0,372009942083.1732,81105824313.20013,0.7213398299293783,6.945820492241424
223.0,449223202987.60004,97775051989.59706,0.721540197919939,6.947333422459136
224.0,542714230815.4971,117875147576.93277,0.7218560645454992,6.949720934522142
225.0,655996833062.4268,142120377171.80566,0.7222868886501911,6.952982270192063
226.0,793365332733.2584,171376661908.41562,0.7228319885020597,6.9571168143929425
227.0,960073479522.43,206694598049.4678,0.7234905430770378,6.962124094379215
228.0,1162555159277.6375,249349897768.17755,0.7242615935279381,6.968003778933251
229.0,1408697444748.332,300892945169.24915,0.7251440448369938,6.974755677624238
230.0,1708178706773.84,363209544909.918,0.7261366676590634,6.982379740134523
231.0,2072887367857.81,438595463834.73785,0.7272381003537537,6.990876055667764
232.0,2517441755308.9697,529847952384.3959,0.7284468512123702,7.000244852465055
233.0,3059835585899.3105,640378121625.9478,0.7297613008963446,7.010486497430088
234.0,3722238987022.6406,774349203677.8551,0.7311797050671577,7.0216014958992155
235.0,4531994604968.729,936846741866.6709,0.7327001972197141,7.033590491590717
236.0,5522856688721.204,1134088284096.277,0.734320791720785,7.046454266761155
237.0,6736533121135.533,1373682081911.7517,0.7360393870492085,7.06019374261079
238.0,8224609953603.972,1664946065751.2947,0.7378537692560494,7.074809979978111
239.0,10050947750070.03,2019301666601.876,0.7397616156329585,7.090304180357764
240.0,12294671421302.584,2450760335750.217,0.7417604985857733,7.106677687317806
241.0,15053902197827.453,2976524871553.359,0.7438478897163481,7.123931988373191
242.0,18450415714353.945,3617733339680.8916,0.7460211641077942,7.142068717387215
243.0,22635466000909.27,4400379834375.281,0.7482776048118612,7.161089657589606
244.0,27797065681861.824,5356453855254.716,0.7506144075428137,7.180996745281442
245.0,34169080684749.68,6525352167306.421,0.7530286855565831,7.201792074345663
246.0,42042606283692.766,7955628430180.381,0.7555174747136285,7.223477901685116
247.0,51780194402617.8,9707162390522.37,0.7580777387164811,7.246056653718257
248.0,63833646217364.586,11853851438677.924,0.7607063745091898,7.26953093409238
249.0,78766301576265.7,14486947768157.68,0.7634002178345449,7.293903532775722
