Time,J,A,S,tau
0.0,100.0,10.0,0.577790743554327,66.55685728962825
1.0,99.8475008595784,8.974550857841239,0.576930578311993,67.55606945684585
2.0,99.69686027296125,8.054523647093724,0.5760813708567343,68.55546600921103
3.0,99.54822907582154,7.2292859736839254,0.5752425301341049,69.55489623411854
4.0,99.40148742957886,6.489020243867265,0.5744134881958893,70.55435675671127
5.0,99.25652000610243,5.8249349288323495,0.5735936906370622,71.55384453484226
6.0,99.11321560810899,5.229152402762249,0.5727825959160548,72.55335681904637
7.0,98.97146682184248,4.694613612533122,0.5719796746764056,73.55289111732863
8.0,98.83116970150039,4.214995480094037,0.5711844090839256,74.55244516432991
9.0,98.69222348413322,3.7846334987117234,0.5703962921913528,75.55201689436844
10.0,98.5545303096036,3.398447260969901,0.5696148272519183,76.55160441655464
11.0,98.41799497542603,3.05188647211191,0.5688395270944964,77.551205993583
12.0,98.282524705784,2.740871162782489,0.5680699135004893,78.55082002260345
13.0,98.14802892488011,2.4617427701671644,0.5673055165492602,79.55044501756272
14.0,98.01441905877346,2.211223767162155,0.5665458740311992,80.55007959408398
15.0,97.88160833784998,1.986373521589273,0.5657905308298767,81.54972245522991
16.0,97.74951161026524,1.7845556708415111,0.5650390383156444,82.54937237862087
17.0,97.61804517198176,1.603407204725019,0.5642909537811238,83.5490282049413
18.0,97.48712659377523,1.4408073787770637,0.5635458398425452,84.54868882686405
19.0,97.3566745615103,1.2948553504814788,0.5628032638770291,85.54835317901498
20.0,97.22660872204443,1.16384601213586,0.5620627974701543,86.5480202284735
21.0,97.09684952876891,1.0462492845140439,0.561324015849127,87.54768896557606
22.0,96.96731809679335,0.9406937369017616,0.5605864973499363,88.54735839521923
23.0,96.83793605778563,0.8459484084671371,0.5598498228777333,89.54702752823626
24.0,96.7086254172947,0.7609090461995455,0.5591135753738813,90.54669537292732
25.0,96.57930841527406,0.684585631379831,0.5583773393005593,91.54636092649366
26.0,96.44990738550837,0.6160893291707041,0.5576407001209716,92.54602316637046
27.0,96.32034461654725,0.5546231600427269,0.5569032437930862,93.54568104131793
28.0,96.19054221056957,0.499472226440426,0.5561645562670312,94.54533346194032
29.0,96.06042194261454,0.44999487805730437,0.5554242229907402,95.54497929097681
30.0,95.92990511601637,0.40561601501925315,0.5546818284202731,96.54461733266768
31.0,95.7989124145023,0.3658195991470877,0.553936955534859,97.54424632130922
32.0,95.66736375367617,0.33014281014484703,0.5531891853671074,98.54386490917206
33.0,95.53517812179342,0.29817099035752,0.5524380965249932,99.54347165264332
34.0,95.4022734194931,0.26953218260540995,0.5516832647341977,100.54306499748729
35.0,95.26856629237611,0.24389321358166074,0.5509242623876354,101.54264326250663
36.0,95.13397194812737,0.22095576731955935,0.5501606580851099,102.54220462060262
37.0,94.99840397461345,0.20045262349990453,0.5493920162110294,103.54174707874888
38.0,94.86177413833833,0.18214493653182898,0.5486178965000925,104.54126845465422
39.0,94.72399216835771,0.16581919102730672,0.5478378536134438,105.54076635031956
40.0,94.58496553600256,0.15128474966829258,0.5470514367546602,106.54023812347
41.0,94.44459920091936,0.13837184439335887,0.5462581892621716,107.53968085340452
42.0,94.30279534601341,0.1269293356544663,0.5454576482440519,108.53909130330447
43.0,94.15945309340043,0.11682327648364882,0.5446493442388386,109.5384658780769
44.0,94.01446817161711,0.10793513866032259,0.5438328008586615,110.53780057351959
45.0,93.86773258707558,0.100160600739172,0.5430075345275224,111.5370909230668
46.0,93.71913421282017,0.09340830679166273,0.5421730541647863,112.53633193064694
47.0,93.5685563877017,0.08759895615304814,0.5413288609962982,113.53551800114907
48.0,93.41587741274068,0.08266431666328815,0.5404744483184432,114.53464285285081
49.0,93.26097004087556,0.07854662697970603,0.5396093013865811,115.53369942427459
50.0,93.10370088467226,0.07519788487330767,0.5387328973292926,116.53267976436823
51.0,92.94392971809083,0.0725794683901518,0.5378447050942644,117.53157490126478
52.0,92.78150874883136,0.07066184747757363,0.5369441855369589,118.53037470028276
53.0,92.61628177373262,0.06942426746258924,0.5360307915702547,119.52906769714494
54.0,92.44808311405494,0.06885492398253214,0.5351039683490328,120.52764088764775
55.0,92.27673667924492,0.06895080468012686,0.5341631537599705,121.52607953060615
56.0,92.10205462386578,0.06971790003882743,0.5332077788591745,122.52436687420203
57.0,91.92383591390217,0.07117148349481336,0.532237268562787,123.5224838551524
58.0,91.74186471822551,0.07333699861756228,0.5312510425125817,124.52040875748357
59.0,91.55590855566729,0.07625004221660939,0.5302485161908875,125.51811681341145
60.0,91.36571609993311,0.07995798363128623,0.5292291022389488,126.51557973062684
61.0,91.17101484366941,0.08452064555762116,0.5281922121115626,127.51276517759023
62.0,90.97150822795301,0.09001155938099974,0.5271372580506118,128.50963615192285
63.0,90.76687228418169,0.09651988592143518,0.5260636554844276,129.50615023634919
64.0,90.55675210530104,0.10415214699864703,0.5249708258396941,130.5022588024412
65.0,90.34075747638141,0.11303433880657925,0.5238581999193589,131.49790602589442
66.0,90.11845791391077,0.12331469995434852,0.5227252218876005,132.49302775899332
67.0,89.88937705783135,0.13516662449198277,0.5215713539263469,133.48755024467962
68.0,89.65298613804666,0.14879251721007342,0.5203960816966143,134.4813886120631
69.0,89.40869633687323,0.1644276857465401,0.5191989208174519,135.4744451059468
70.0,89.15585045706598,0.18234516622194138,0.5179794241414183,136.46660713804823
71.0,88.89371257036217,0.20286153144376132,0.5167371906571067,137.4577448631468
72.0,88.62145716498749,0.22634265196024927,0.5154718751912297,138.44770860558467
73.0,88.33815566199047,0.25321185199504664,0.5141832002381527,139.43632566212864
74.0,88.04276188072731,0.2839574039059791,0.5128709690338712,140.423396816415
75.0,87.7340950775817,0.3191420938865928,0.5115350807652106,141.40869225450317
76.0,87.41082065892866,0.3594142505574134,0.5101755479488757,142.39194688879468
77.0,87.07142843664673,0.405519555236456,0.5087925161264865,143.37285504559372
78.0,86.71420824561055,0.4583143101853109,0.5073862860285544,144.35106446241795
79.0,86.3372226133172,0.5187802549663703,0.5059573384754146,145.32616950665462
80.0,85.93827639489194,0.5880407452775036,0.5045063621111298,146.29770357563046
81.0,85.52346556823547,0.6718607475823791,0.5030342841700917,147.26513060221475
82.0,85.22010865271722,0.833418361994556,0.5015423038123361,148.22783577733455
83.0,84.92951302216677,1.016932633417199,0.5000319282310056,149.185115398466
84.0,84.65737539116684,1.2255408513484318,0.49850501130784286,150.13616587318182
85.0,84.41083476823881,1.4627920626813493,0.4969637932428785,151.0800722873399
86.0,84.19879591505128,1.7326859476661765,0.49541094115914336,152.0157964857111
87.0,84.03231763971617,2.0397103037717574,0.4938495889905643,152.94216509423916
88.0,83.9250731319909,2.3888745645612497,0.49228337432433716,153.8578580930936
89.0,83.89389724394084,2.7857371515619263,0.4907164702757041,154.7613984274286
90.0,83.95942719740218,3.236423296537425,0.4891536091954508,155.65114351710383
91.0,84.14684863355403,3.7476296840597056,0.487600094860933,156.52527957265343
92.0,84.48675202814073,4.3266113112969515,0.48606179880966005,157.38181993308206
93.0,85.01610718872575,4.9811461590274755,0.4845451367025821,158.21860859573866
94.0,85.77935734731919,5.719473527723047,0.4830570206748204,159.03333011384157
95.0,86.82961592258614,6.5502016597586366,0.4816047832972331,159.8235272113989
96.0,88.2299690140659,7.4821824561587595,0.4801960710820276,160.5866268031984
97.0,90.05485962797209,8.524352371553672,0.4788387059975699,161.3199749669563
98.0,92.39151106042968,9.685539972646367,0.47754051548554477,162.02088109232727
99.0,95.3413060377926,10.974248639967227,0.47630913703008043,162.6866695857293
100.0,99.02123809326065,12.398415341989459,0.47515180024530834,163.31473839284084
101.0,103.56506074118082,13.965169301023817,0.47407510429931454,163.902619984122
102.0,109.12449149532428,15.680585646390206,0.4730847896755484,164.44804437538633
103.0,115.86993464754028,17.54947559860178,0.47218553881832914,164.94899558846174
104.0,123.99114721404099,19.575195854615238,0.47138079229537466,165.40376405728657
105.0,133.69736449654258,21.759526743455766,0.4706726247247563,165.8109836539886
106.0,145.21720857561883,24.10259226944135,0.4700616563728156,166.16965877369762
107.0,158.79813693512756,26.602858696193916,0.469547035654938,166.47917233597968
108.0,174.70552981255668,29.25718673462726,0.4691264683887486,166.73928051992058
109.0,193.2214916856364,32.0609449601061,0.4687963042144163,166.95009160185762
110.0,214.64322557718646,35.008171393475976,0.4685516661704152,167.1120324390779
111.0,239.2813014294476,38.09176313675026,0.4683866083023213,167.22580676448544
112.0,267.4575387939489,41.30369402465563,0.46829429995966565,167.29234580657985
113.0,299.5028882424449,44.63522871584331,0.4682672092346194,167.31275865369645
114.0,335.7550613425145,48.07713916459422,0.4682972914998061,167.28828115009446
115.0,376.5561641530449,51.61989886574117,0.4683761592377836,167.2202296016689
116.0,422.2502481146248,55.25385858324766,0.468495238953393,167.1099581999887
117.0,473.18081137474576,58.96939479395514,0.4686459037499851,166.9588229914075
118.0,529.6883543523383,62.757029152251754,0.4688195836631099,166.7681522778747
119.0,592.1078338352985,66.6075244358843,0.4690078544366967,166.53922289497663
120.0,660.7662364596051,70.51195101136415,0.4692025026166545,166.27324339057014
121.0,735.9801053937796,74.46173394015409,0.4693955736189491,165.97134194247602
122.0,818.0530479963222,78.4486815881878,0.4695794040128941,165.63455884648855
123.0,907.2733555019936,82.46499672109212,0.46974663878398704,165.26384336518998
124.0,1003.9115654850617,86.50327697557016,0.46989023980273426,164.86005314352434
125.0,1108.2181984687056,90.55650384795285,0.47000348421771265,164.42395658423567
126.0,1220.4213050352296,94.61802893403546,0.47007996056634727,163.95623600665556
127.0,1340.7242833984574,98.6815518917222,0.47011355781440856,163.4574929280218
128.0,1469.3037576998795,102.7410958751604,0.47009845244151693,162.92825399507456
129.0,1606.3078110609154,106.79098194274339,0.47002909371557555,162.3689774277888
130.0,1751.8530759697896,110.82581286242623,0.4699001986336197,161.78005741281004
131.0,1906.0227604289062,114.84043987268737,0.4697067338399232,161.1618321043909
132.0,2068.8689429844353,118.82992562351458,0.46944388375106516,160.51459314678942
133.0,2240.4016674022323,122.78957270377036,0.4691070985199125,159.8385808701344
134.0,2420.601552745109,126.71482229271373,0.4686919935263477,159.13400626593858
135.0,2609.401636661203,130.60133264497256,0.46819445361144924,158.40103773347616
136.0,2806.7053489335053,134.44486300083315,0.467610506068418,157.63982416360133
137.0,3012.3658719640716,138.24135444671927,0.46693644087877656,156.85048307527734
138.0,3226.205140586801,141.98683499749586,0.46616869116008897,156.03311817077136
139.0,3447.9975743627356,145.67747165618397,0.4653039272426657,155.18781356718566
140.0,3677.4789963773214,149.3095246115489,0.46433899894241437,154.31464270782828
141.0,3914.346637795899,152.87935683567434,0.4632709581491509,153.41366903715394
142.0,4158.253445433125,156.38342960832196,0.46209707481655743,152.48494956125194
143.0,4408.819394549414,159.81828431838923,0.4608147989474539,151.52853755064712
144.0,4665.621298404003,163.180563340941,0.4594218270260282,150.54448456643647
145.0,4928.203407090196,166.46698515879524,0.45791604236167915,149.53284266399604
146.0,5196.075074866099,169.6743613406609,0.45629557192956,148.49366643241856
147.0,5468.711223718369,172.79959299058413,0.45455876957951225,147.42701470078907
148.0,5743.933053805744,175.23790239550564,0.5426291294492955,53.3018781676733
149.0,6023.0498978487485,186.40572287149087,0.549701746711876,47.69402203097842
150.0,6325.806029316074,204.23365059854277,0.5509725193320991,44.69321526520157
151.0,6667.492450956605,228.4421572416678,0.5499897346546647,42.617949309365684
152.0,7063.001772361355,259.11830847767936,0.5478156912429822,41.016309862701995
153.0,7527.49744298885,296.43659834778873,0.5449237699027505,39.70068268296991
154.0,8076.516547748112,340.57797849620795,0.5415690386848053,38.57555365249351
155.0,8725.910488433188,391.69419546232393,0.537905440748712,37.58604417489817
156.0,9491.692307739257,449.88943022219013,0.5340331836868165,36.69797654192117
157.0,10389.843602545525,515.209778194165,0.5300210883945025,35.8888030597167
158.0,11436.088041771567,587.6376382861258,0.525918337870857,35.14298798212481
159.0,12645.657784914343,667.0891858935424,0.5217611726898447,34.44945268633395
160.0,14033.057351498066,753.4141299406238,0.5175769459470606,33.80007217020524
161.0,15611.848848190972,846.3975649022973,0.5133867319653367,33.188736251566496
162.0,17394.4032856278,945.763206435194,0.5092070177183582,32.61075818439045
163.0,19391.735283250044,1051.1778054091767,0.5050509038569985,32.06246661791156
164.0,21613.317052707054,1162.2560148825805,0.5009289115919566,31.54093904738352
165.0,24066.906094488586,1278.5668130753609,0.49684959284639035,31.04380794857128
166.0,26758.453947121492,1399.6395681783033,0.49281996679873263,30.569124583295032
167.0,29692.01556082049,1524.9705179531345,0.48884584264751146,30.11526173193969
168.0,32869.68757376488,1654.0295243144315,0.48493206719582194,29.68084152516108
169.0,36291.583004751985,1786.2667034819124,0.4810827132519629,29.26468195750913
170.0,39955.840808560664,1921.118874594806,0.4773012247823885,28.865756634986955
171.0,43858.64555044751,2058.015926896697,0.4735905310889925,28.483164668196473
172.0,47994.30645969598,2196.386608947662,0.46995313554791185,28.116106919799247
173.0,52355.33896329607,2335.664097362015,0.4663911863018605,27.76386814123456
174.0,56932.57216018682,2475.2911086694717,0.4629065321437384,27.42580285520074
175.0,61715.605484435975,2613.779665436245,0.4595007706020034,27.101324779348296
176.0,66687.43566220129,2757.56345902034,0.4561752789874942,26.789897015371466
177.0,71858.80959036681,2923.4968861319117,0.4529312489287313,26.49102596168555
178.0,77284.02726513376,3125.046348166483,0.44976970955198864,26.20425537925164
179.0,83051.56528022792,3374.70970146679,0.44669154756421114,25.929161769589953
180.0,89280.41344030204,3684.366592915503,0.44369752417660735,25.665350604445436
181.0,96117.17671889062,4065.2165411904166,0.4407882891024041,25.41245318584746
182.0,103732.92407438316,4527.613862507807,0.4379643924066528,25.170124048172948
183.0,112319.60118780249,5080.883206102487,0.4352262946257184,24.93803874838186
184.0,122086.06735553013,5733.149132207112,0.43257437536696597,24.71589199483988
185.0,133253.8644732332,6491.195268830802,0.43000894067048817,24.503396046246362
186.0,146052.77263408498,7360.362511966512,0.4275302294365725,24.3002793245877
187.0,160716.13046984907,8344.489197428427,0.42513841906301103,24.10628522112256
188.0,177476.60676393664,9445.88973895539,0.4228336302835784,23.921171027945416
189.0,196561.82347023784,10665.373917068928,0.42061593156226096,23.744707008746914
190.0,218190.45989637962,12002.300402844234,0.41848534298612455,23.576675554852347
191.0,242568.64314282624,13454.652157230088,0.4164418395302655,23.416870483751726
192.0,269886.9639170604,15019.148577809548,0.4144853544169363,23.265096300565546
193.0,300317.9027121339,16691.356609511902,0.41261578154499456,23.1211676715965
194.0,334013.6104636933,18465.835163224696,0.41083297830157245,22.984908809238355
195.0,371104.59131774603,20336.271841740472,0.4091367676916196,22.8561529901025
196.0,411698.35719213757,22295.630328419607,0.40752694036514653,22.734742104945575
197.0,455879.35533528303,24336.284466858626,0.4060032565405966,22.62052621385117
198.0,503708.55189061037,26449.314416882047,0.40456544767525454,22.513363161838456
199.0,555219.6733869783,28635.36496022184,0.40321321797909027,22.41311820855397
200.0,610459.3162908821,30919.920728271765,0.4019462459043063,22.31966369169548
201.0,669552.4860663259,33347.40913690637,0.40076418546655984,22.2328786859247
202.0,732749.4508326801,35977.324594835525,0.3996666671983199,22.15264874452709
203.0,800460.784954221,38881.28815735744,0.3986532993233837,22.078865598635602
204.0,873282.426288233,42140.36713470142,0.39772366867654385,22.01142688978384
205.0,952013.2932383094,45842.44426965324,0.3968773414577288,21.950235941424392
206.0,1037665.3663193008,50079.57143963305,0.3961138640795026,21.895201512440213
207.0,1131464.7938151853,54945.4902199382,0.395432763755756,21.846237576099266
208.0,1234848.414202723,60533.28003693837,0.39483354903634554,21.803263126429616
209.0,1349454.0314605674,66933.232001684,0.39431571039005897,21.766201966050236
210.0,1477103.6816128374,74231.02186301818,0.3938787205211929,21.734982522699354
211.0,1619786.3637861146,82506.11607113315,0.3935220347346422,21.70953768082714
212.0,1779635.8456046553,91830.53545174256,0.39324509126900364,21.689804598255616
213.0,1958904.71340342,102267.9110381091,0.3930473113998547,21.67572455184279
214.0,2159941.5855165203,113872.78604211216,0.39292809966009895,21.667242787823717
215.0,2385164.80403899,126690.25714448675,0.39288684396868967,21.66430836255458
216.0,2637034.1767160133,140755.82160216648,0.3929229155214591,21.666874012877933
217.0,2918030.9431916443,156095.41907276164,0.3930356689675718,21.674896015884286
218.0,3230629.809733335,172725.72278626307,0.3932244422130754,21.68833405686004
219.0,3577281.0925266384,190654.46671081567,0.3934885564319286,21.707151111221243
220.0,3960386.6587060723,209880.41856164526,0.39382731581317304,21.731313321728962
221.0,4382281.399048758,230400.3224465154,0.39424000752243543,21.760789874661185
222.0,4845241.919275165,252230.5619004216,0.3947259014717636,21.795552906773686
223.0,5351547.586203647,275424.61301972653,0.39528424994617506,21.83557738407527
224.0,5903593.194748835,300083.805533797,0.39591428753901,21.88084099994347
225.0,6504017.884132557,326364.38442344015,0.39661523083910244,21.93132407475132
226.0,7155850.854719867,354481.4245673701,0.39738627817718414,21.98700946213485
227.0,7862655.785463682,384710.3175561382,0.39822660919135544,22.04788245808833
228.0,8628670.968612907,417385.54675341945,0.3991353845868722,22.11393070103515
229.0,9458948.539915279,452897.60638120526,0.4001117459556973,22.18514408521481
230.0,10359475.83673957,491688.83421172784,0.4011548153050128,22.261514683623197
231.0,11337260.804849757,534247.7991244367,0.4022636946745948,22.343036656172774
232.0,12400427.054506538,581102.4375615227,0.4034374660358364,22.42970616813093
233.0,13558267.018097732,632813.3993095575,0.40467519072671715,22.521521323553767
234.0,14821262.806469822,689966.4915022058,0.4059759092896671,22.618482074422115
235.0,16201123.54210073,753165.1403155472,0.40733864117088,22.720590159203446
236.0,17710741.419910762,823023.4571924394,0.4087623842554623,22.82784902966941
237.0,19364173.16746001,900158.9727901808,0.4102461147965091,22.9402637764226
238.0,21176591.04767626,985186.087153215,0.41178878693627147,23.057841076586772
239.0,23164175.33782866,1078710.2590429173,0.41338933249454674,23.180589120084488
240.0,25344063.502276186,1181322.097974272,0.4150466607691765,23.308517556112417
241.0,27734203.088453155,1293592.7345666166,0.416759658068254,23.441637441196164
242.0,30353239.152666837,1416069.4941360399,0.4185271876536274,23.57996117839386
243.0,33220407.395096876,1549271.7470668096,0.42034808932969175,23.723502480899437
244.0,36355324.40512951,1693687.9954040467,0.4222211791272118,23.872276323266963
245.0,39777875.567813225,1849774.6927787592,0.42414524914388424,24.026298902762544
246.0,43508082.38029217,2017963.9215061404,0.42611906715563463,24.185587612487364
247.0,47565900.02411077,2198680.074597807,0.4281413761714199,24.350161015824224
248.0,51971181.347343095,2392359.0056395256,0.43021089417192593,24.5200388267826
