Time,J,A,S,tau
0.0,100.0,10.0,0.577790743554327,66.55685728962825
1.0,99.84547813638694,8.974295508816006,0.5769203479186643,67.55602815039485
2.0,99.69293975339977,8.054085799514928,0.5760614873258747,68.55538727775709
3.0,99.54253222294105,7.228724063170504,0.5752135591231048,69.55478383017945
4.0,99.39413097716857,6.48838057804082,0.574375982030448,70.55421405498873
5.0,99.24761636514299,5.8242537632139575,0.5735481889635904,71.55367457755412
6.0,99.10287323681015,5.2284575457976,0.5727296263538502,72.55316235573409
7.0,98.95979056468455,4.693925775498451,0.5719197534702307,73.55267463993913
8.0,98.81826109923756,4.214331323949652,0.5711180417482369,74.55220893809437
9.0,98.67818106087054,3.7840038244100067,0.5703239741536577,75.55176298520493
10.0,98.53944983628622,3.3978593683031084,0.5695370444829054,76.5513347152183
11.0,98.40196971799702,3.051345127820785,0.5687567567426387,77.55092223735565
12.0,98.26564565339855,2.7403782983394356,0.567982624506593,78.55052381446355
13.0,98.1303850049859,2.461298789011467,0.5672141702580478,79.55013784342547
14.0,97.99609734066661,2.210827631329335,0.5664509247986212,80.54976283839486
15.0,97.86269422262014,1.9860228861233256,0.5656924266126747,81.54939741494978
16.0,97.73008901290116,1.7842477243911214,0.5649382212597542,82.54904027604897
17.0,97.5981966946777,1.6031383054978032,0.5641878608000886,83.54869019946852
18.0,97.46693369092584,1.440573470274602,0.5634409031838767,84.54834602578863
19.0,97.33621769985997,1.2946522916353962,0.5626969116863165,85.54800664769448
20.0,97.20596753457748,1.1636693092052541,0.5619554543432779,86.5476709998632
21.0,97.07610296418599,1.0460944465078574,0.5612161033772403,87.547338049313
22.0,96.9465445661017,0.9405562864805177,0.5604784346601672,88.54700678641665
23.0,96.81721357733694,0.8458238038877517,0.5597420271635655,89.5466762160592
24.0,96.68803174998872,0.7607928983484079,0.5590064624201893,90.54634534908064
25.0,96.55892121080427,0.6844735682418961,0.5582713240035474,91.54601319376829
26.0,96.42980431955445,0.6159770308628716,0.557536196999877,92.54567874732726
27.0,96.30060353022023,0.5545064532340079,0.5568006674969807,93.54534098722543
28.0,96.17124125108833,0.4993469274061276,0.5560643220766686,94.54499886214775
29.0,96.04163970517243,0.4498568628768017,0.5553267473132136,95.54465128278018
30.0,95.91172078820648,0.4054611968908249,0.5545875292788558,96.54429711183549
31.0,95.781405924436,0.3656438437885574,0.5538462530540378,97.543935153479
32.0,95.65061592163849,0.3299419615734715,0.5531025022500369,98.54356414217142
33.0,95.5192708175046,0.29794079696060505,0.5523558585263452,99.54318273001847
34.0,95.38728972580493,0.26926824892527884,0.5516059011269163,100.54278947344336
35.0,95.2545906755813,0.24359098995384465,0.5508522064207694,101.5423828183795
36.0,95.1210904380589,0.22061044797703738,0.550094347436821,102.54196108331932
37.0,94.98670435442212,0.20005911145168012,0.5493318934318001,103.54152244142128
38.0,94.85134614570924,0.18169778256285957,0.5485644094454466,104.54106489965328
39.0,94.71492771173224,0.1653124987140596,0.5477914558688196,105.54058627541407
40.0,94.57735892542483,0.15071211095086126,0.547012588045275,106.54008417119759
41.0,94.43854739719563,0.137726249494524,0.5462273558483707,107.53955594434929
42.0,94.29839823311539,0.1262030577769456,0.5454353033049921,108.5389986741229
43.0,94.15681377207957,0.11600772302343815,0.5446359682310524,109.53840912433675
44.0,94.01369328205435,0.10702080041071212,0.543828881852877,110.53778369872917
45.0,93.86893266460153,0.09913683008783346,0.5430135685243545,111.53711839463679
46.0,93.72242407790722,0.0922632338684021,0.542189545371168,112.53640874364356
47.0,93.57405558498374,0.08631914341064709,0.5413563220825238,113.53564975195592
48.0,93.42371068540332,0.0812347201034581,0.5405134006052985,114.5348358219239
49.0,93.27126788152982,0.0769502392454334,0.5396602750204436,115.53396067380525
50.0,93.11660012602383,0.07341546281008131,0.538796431363129,116.53301724674144
51.0,92.95957421146626,0.07058928252471026,0.5379213475193322,117.53199758597798
52.0,92.80005014238391,0.06843920203712778,0.53703449325594,118.53089272189776
53.0,92.63788036027493,0.06694111161135786,0.5361353302480605,119.52969252087401
54.0,92.47290892515917,0.06607909221615149,0.5352233122495907,120.52838552251848
55.0,92.30497033072453,0.0658461390996058,0.5342978851841959,121.52695870953278
56.0,92.13388884967758,0.06624286728713331,0.5333584878486877,122.52539735631541
57.0,91.9594768728399,0.06727873024393154,0.5324045521294695,123.52368470209795
58.0,91.7815336420083,0.06897235118718328,0.5314355038000503,124.52180167792578
59.0,91.59984370967052,0.07135176115552132,0.5304507634016488,125.51972657709007
60.0,91.41417492863185,0.07445521743563249,0.5294497472879804,126.51743462816236
61.0,91.2242763968165,0.0783323237570088,0.5284318689841349,127.5148975467396
62.0,91.02987601469073,0.08304469346937562,0.5273965408316017,128.51208299957815
63.0,90.8306775819719,0.0886678162458497,0.5263431759647933,129.50895396612185
64.0,90.626357745819,0.09529232483830685,0.5252711906741259,130.50546805348517
65.0,90.4165620806928,0.10302597971461348,0.5241800072716761,131.50157662119474
66.0,90.20090094714551,0.11199606900575988,0.5230690574204123,132.49722384150576
67.0,89.97894455629853,0.12235163730889778,0.5219377861137916,133.49234557461477
68.0,89.75021727443917,0.13426707728248163,0.5207856563335952,134.48686806469502
69.0,89.51419105365184,0.1479453397909131,0.519612154562502,135.4807064230264
70.0,89.27027813501346,0.1636222469369554,0.5184167970565493,136.4737629305916
71.0,89.0178220811211,0.18157136218702838,0.5171991374776296,137.46592494737754
72.0,88.75608834662106,0.20210915879297725,0.5159587752600264,138.45706268676292
73.0,88.48425242996616,0.22560203288492411,0.5146953658955428,139.44702642057732
74.0,88.20138727977118,0.2524728472294562,0.5134086322259407,140.43564347179623
75.0,87.9064483454952,0.28320974107733476,0.5120983777438336,141.42271463535246
76.0,87.59825659059828,0.3183752223873864,0.5107645018429339,142.40801007956944
77.0,87.27547939740195,0.3586170269836726,0.5094070170557862,143.39126470685284
78.0,86.93660889387755,0.40467999120454434,0.5080260686821912,144.3721728508841
79.0,86.57993756858005,0.4574193843037069,0.5066219569443109,145.35038226549258
80.0,86.20353090972834,0.5178158368042274,0.5051951619065932,146.32548732677014
81.0,85.80519699975822,0.5869914303499417,0.5037463712445561,147.29702141174837
82.0,85.39102204749278,0.6707020789894699,0.5022765108734263,148.26444843122619
83.0,85.088105390487,0.832018170036737,0.5007867780164749,149.22715361375143
84.0,84.79793013126552,1.0152578820909852,0.4992786777077428,150.1844332246571
85.0,84.5261840546905,1.223553726169419,0.49775406095705427,151.13548369438885
86.0,84.2799953682762,1.4604493271895451,0.4962151645277537,152.07939012671264
87.0,84.06825608235849,1.7299384806308542,0.49466465166154117,153.01511432685237
88.0,83.90200770120936,2.036502217827816,0.49310565154764474,153.94148292779664
89.0,83.79490302988587,2.3851423962277933,0.491541796275544,154.85717591468588
90.0,83.76375141937187,2.781408998319153,0.48997725261712627,155.76071624937725
91.0,83.82915916846424,3.2314180757557645,0.48841674583723,156.65046133907487
92.0,84.01627359767846,3.7418562568176306,0.4868655717405343,157.52459738943924
93.0,84.35563905203412,4.319967510172371,0.48532959294217376,158.3811377633207
94.0,84.88417024919877,4.973518180399764,0.4838152155149573,159.21792643446832
95.0,85.64624157221576,5.7107351909780455,0.4823293411768221,160.03264795918463
96.0,86.69488884732318,6.540213780656793,0.48087929146847136,160.82284505497472
97.0,88.09310615250322,7.470792493032093,0.4794727013646935,161.58594462881496
98.0,89.91521532099611,8.511394319510076,0.4781173810254861,162.31929280308808
99.0,92.2483130634677,9.670834568709106,0.4768211460579136,163.02019893524712
100.0,95.19363548017121,10.957603608891986,0.47559162245332165,163.68598745254377
101.0,98.86797986513545,12.379627176306716,0.4744360293214548,164.31405620435805
102.0,103.4049356469437,13.944021958997638,0.47336095460075306,164.9019379658108
103.0,108.95594038655183,15.656857032729736,0.4723721326038076,165.4473621578929
104.0,115.69119664106626,17.52293220798426,0.4714742351622608,165.94831367377253
105.0,123.80012933986247,19.545603659244975,0.4706707017513514,166.4030819320323
106.0,133.49168572054865,21.72664522753983,0.4699636002479622,166.8103017089574
107.0,144.9941416460963,24.06618286219226,0.46935355221051617,167.16897684438894
108.0,158.55456014796937,26.56268503220619,0.46883970691009125,167.4784903534717
109.0,174.43795763666753,29.21301563260742,0.46841977248497463,167.73859872060865
110.0,192.9259753085647,32.01255269476474,0.4680901062037789,167.949409662905
111.0,214.31540070966886,34.955340700993816,0.46784583615355513,168.11135063618167
112.0,238.91631572833256,38.0342893247628,0.467681027133525,168.22512490896526
113.0,267.05006404930447,41.24138340496504,0.467588857664923,168.2916639953173
114.0,299.0470955524643,44.56790125904733,0.46756180774975237,168.31207684175467
115.0,335.24461346973146,48.004628567648666,0.4675918446610081,168.28759934587416
116.0,375.98420872418217,51.54205321222306,0.46767059359807356,168.21954779760807
117.0,421.60941635904135,55.1705404735587,0.46778949394171826,168.10927639035697
118.0,472.4632141553108,58.88048130259485,0.4679399317471909,167.95814119174997
119.0,528.8855919667444,62.66241167315193,0.4681133500570722,167.7674704688461
120.0,591.2110013703598,66.50710821500661,0.4683013371921003,167.53854109402332
121.0,659.7659342206083,70.40565490005875,0.4684956921596064,167.27256158751106
122.0,734.8664615396207,74.34948943682116,0.468688472278959,166.9706601510582
123.0,816.8157346006772,78.33043269516877,0.4688720256505717,166.63387708335276
124.0,905.9015872653084,82.34069956133236,0.4690390087260272,166.26316153699767
125.0,1002.3942011086914,86.37289782606096,0.46918239314154225,165.85937139375483
126.0,1106.5436655103476,90.42002048922005,0.469295466974802,165.42327483125217
127.0,1218.5777116216993,94.4754288816502,0.46937182812411105,164.955554252158
128.0,1338.6994304099417,98.5328321268854,0.46940537476268696,164.45681117300384
129.0,1467.0851784191202,102.58626239083306,0.4693902921567054,163.92757223707358
130.0,1603.882816483194,106.63004925830222,0.4693210379183205,163.3682956688405
131.0,1749.2088051884364,110.65880361638536,0.4691923369849806,162.77937565835242
132.0,1903.146220510235,114.66738452902939,0.46899916364721267,162.16115034565104
133.0,2065.747065387359,118.65086199398627,0.46873670951096674,161.5139113901878
134.0,2237.021375945523,122.60454573250829,0.4684004316007067,160.8378991149933
135.0,2416.9497815376285,126.52388378595182,0.467985951946871,160.13332450863678
136.0,2605.465448075103,130.4045409270992,0.46748916150688963,159.40035597791018
137.0,2802.4719193954243,134.24228281156957,0.46690609365470914,158.63914240614827
138.0,3007.822632724901,138.0330566116206,0.4662330438609157,157.8498013187087
139.0,3221.339758046192,141.7728963533979,0.46546645071454196,157.0324364127814
140.0,3442.7980860437797,145.4579747705722,0.46460298944851564,156.18713181087512
141.0,3671.933808361328,149.08455774867315,0.4636395147641912,155.3139609499976
142.0,3908.444637821325,152.6490136704643,0.4625730828459955,154.4129872802969
143.0,4151.984030130789,156.14780919811477,0.46140096787380963,153.48426780404694
144.0,4402.172531002468,159.57749090643446,0.460120623638005,152.52785579360324
145.0,4658.5876050859315,162.934706222532,0.4587297500776235,151.54380280901466
146.0,4920.774169722247,166.2161786040878,0.4572262337734499,150.53216090714344
147.0,5188.242338082689,169.4187243772982,0.4556082043988931,149.4929846747969
148.0,5460.467808775076,172.5392493569353,0.4538740184111521,148.42633294399914
149.0,5735.271494255553,174.9681866676999,0.5426288246541882,53.301884672136026
150.0,6013.954851408736,186.11916628687868,0.5497014441893352,47.6940256371492
151.0,6316.241973607918,203.92027240192877,0.5509722172244116,44.69321838113402
152.0,6657.401064040605,228.0923551806345,0.5499894388503349,42.617949788899665
153.0,7052.301984508267,258.72236379165685,0.5478153935408114,41.01631171627715
154.0,7516.08581881922,295.98449715656875,0.5449234764331624,39.700683402596844
155.0,8064.265204001102,340.05946385417343,0.5415687425113541,38.57555620491577
156.0,8712.669470277244,391.0987393255219,0.5379051483583888,37.58604597984452
157.0,9477.287057056072,449.20635186907907,0.5340328932747067,36.69797825544129
158.0,10374.073440153901,514.4283742414941,0.5300208001682207,35.88880478441522
159.0,11418.732597349415,586.7471563985017,0.5259180518443273,35.14298955028265
160.0,12626.469430523,666.079073565513,0.5217608887677022,34.44945426833665
161.0,14011.770540922544,752.2739981342718,0.5175766640319771,33.800073693235774
162.0,15588.17488508935,845.1173971289977,0.5133864524279916,33.18873764734108
163.0,17368.035841186327,944.333375821712,0.5092067402203725,32.61075954253725
164.0,19362.349612347036,1049.5892102366736,0.5050506283192072,32.06246800684013
165.0,21580.576411087364,1160.5001227858415,0.500928638293814,31.54094036999968
166.0,24030.461907890833,1276.6357336771787,0.49684932173053503,31.043809201575236
167.0,26717.948157211154,1397.5261240093564,0.49281969779418006,30.569125779919602
168.0,29647.083920416215,1522.6682907464176,0.4888455756720667,30.115262886555577
169.0,32819.96257138939,1651.5328948729086,0.4849318021627567,29.68084265175497
170.0,36236.69683426452,1783.5708821468957,0.48108245007422806,29.264683068923855
171.0,39895.42836546693,1918.219925975678,0.4773009634892094,28.8657577285893
172.0,43792.347677436024,2054.9107709161535,0.4735902716467727,28.483165746289426
173.0,47921.77264173576,2193.0730264198846,0.46995287793497004,28.116107983034862
174.0,52276.230024760356,2332.1407225076914,0.46639093048457286,27.763869191037784
175.0,56846.56293900991,2471.5574063084705,0.4629062781354037,27.425803872060342
176.0,61622.38202041887,2609.8169056764973,0.459500518329445,27.10132578565996
177.0,66586.66011376116,2753.3770262516387,0.45617502840423824,26.789898004880893
178.0,71750.16410212727,2919.0537180371894,0.4529309999952425,26.49102693488017
179.0,77167.1144287848,3120.293132499687,0.4497694622241767,26.20425633743792
180.0,82925.85524370574,3369.574323747848,0.4466913018018434,25.92916271282647
181.0,89145.20007182659,3678.759013930759,0.44369727993421926,25.6653515337823
182.0,95971.53197930289,4059.0298754834,0.44078804633847213,25.412454102099975
183.0,103575.66550500318,4520.725549075335,0.437964151077753,25.170124951693786
184.0,112149.25917779448,5073.156638175717,0.435226054687508,24.938039639619504
185.0,121900.85803515927,5724.435437244182,0.4325741367757279,24.715892874260305
186.0,133051.67132819578,6481.335322421067,0.43000870338234987,24.503396914296417
187.0,145831.13056882465,7349.189176524064,0.4275299934094745,24.300280181657143
188.0,160472.22706342195,8331.829432515706,0.4251381842499677,24.10628606816643
189.0,177207.28060182967,9431.567013719132,0.4228333966382784,23.921171865669315
190.0,196263.57609154654,10649.210579381925,0.4206156990425443,23.744707836559886
191.0,217859.44545429345,11984.119714538627,0.4184851115475084,23.576676373999128
192.0,242200.73387045218,13434.280293412263,0.4164416091265993,23.416871294027278
193.0,269477.7094306693,14996.416797248803,0.41448512500247797,23.26509710353978
194.0,299862.63025683135,16666.10285179822,0.41261555308022985,23.121168465709317
195.0,333507.40405838966,18437.90538432493,0.41083275073950093,22.984909595422593
196.0,370542.3367361628,20305.521537001816,0.40913654098613594,22.85615376922475
197.0,411074.77671244845,22261.925622936637,0.4075267144701716,22.734742877896444
198.0,455189.0307920967,24299.507296371274,0.4060030314103418,22.62052698117726
199.0,502945.9965525855,26409.319702809986,0.4045652232694572,22.51336392288595
200.0,554379.236369775,28592.042866091015,0.40321299424835716,22.413118963691247
201.0,609535.3130177737,30873.114456996012,0.40194602280801317,22.31966444112442
202.0,668539.0094113162,33296.8973698295,0.4007639629606298,22.232879429997183
203.0,731640.2080956327,35922.79748697958,0.3996664452380481,22.15264948371915
204.0,799248.8556726067,38822.32808236182,0.3986530778658601,22.078866333112913
205.0,871959.9701506789,42076.43551001203,0.3977234476777426,22.01142761974307
206.0,950571.2820417854,45772.87066139084,0.39687712087393673,21.950236667270236
207.0,1036093.2430960526,50003.54699895437,0.3961136438686098,21.8952022342893
208.0,1129750.1248408693,54862.06584086978,0.39543254387364285,21.846238294205584
209.0,1232976.6378784857,60441.366259809874,0.39483332944049715,21.803263841122668
210.0,1347408.1080418262,66831.60393643215,0.3943154910388612,21.766202677419614
211.0,1474863.804055882,74118.32592079502,0.3938785013712231,21.734983231035134
212.0,1617329.768733737,82380.87876610098,0.3935218157443861,21.709538386393486
213.0,1776936.5375259744,91691.1755607244,0.39324487239731254,21.689805301135763
214.0,1955933.2930967726,102112.7512959102,0.39304709260428855,21.675725252337397
215.0,2156665.152959191,113700.0670376018,0.39292788090016995,21.667243486145136
216.0,2381546.7837839257,126498.15222596058,0.3928866252035843,21.66430905878397
217.0,2633034.3115129,140542.4499707384,0.39292269671011093,21.666874707359536
218.0,2913605.2447967916,155858.86168487946,0.3930354500708571,21.674896708652973
219.0,3225730.5396038876,172464.0349110749,0.393224223189808,21.688334748261735
220.0,3571856.845684129,190365.69429823072,0.3934883372436428,21.707151801261052
221.0,3954382.442647063,209562.5811494292,0.39382709642138125,21.731314010691747
222.0,4375638.530393818,230051.44324793995,0.3942397878856373,21.760790562788998
223.0,4837898.29477379,251848.62862611047,0.39472568155327703,21.795553594086382
224.0,5343437.567502161,275007.52922625095,0.395284029708866,21.835578070719855
225.0,5894647.447278928,299629.3204901151,0.3959140669456293,21.88084168614567
226.0,6494163.00080201,325870.01237395854,0.39661500985166764,21.93132476080364
227.0,7145008.61694473,353944.3532018727,0.39738605675690747,21.987010148121296
228.0,7850742.631568201,384127.3120470029,0.39822638730437654,22.04788314404729
229.0,8615596.861251257,416752.87323472556,0.39913516219757667,22.11393138715849
230.0,9444615.638883859,452210.94764473714,0.40011152302623165,22.185144771765415
231.0,10343777.178719224,490943.19802780997,0.4011545918021734,22.261515370594807
232.0,11320079.009667981,533437.4619957694,0.4022634705638592,22.34303734384034
233.0,12381631.96537903,580220.8840813453,0.4034372412817197,22.42970685657491
234.0,13537714.8059937,631853.2639556099,0.4046749652976388,22.521522012878318
235.0,14798793.63934285,688919.5323283186,0.4059756831509481,22.618482764880127
236.0,16176559.704039888,752022.2055832614,0.4073384142910467,22.720590850817082
237.0,17683886.117714614,821774.4682921087,0.4087621566030438,22.827849722631033
238.0,19334807.792697154,898792.927662786,0.4102458863384972,22.94026447087893
239.0,21144474.51238673,983691.0542821042,0.41178855764354516,23.057841772605293
240.0,23129042.109259523,1077073.395695697,0.41338910233577997,23.18058981788164
241.0,25305621.794572443,1179529.6771021644,0.41504642971507083,23.30851825574869
242.0,27692134.57676141,1291630.164134669,0.41675942609039257,23.441638142807783
243.0,30307196.871406198,1413921.362101177,0.4185269547220984,23.579961882154095
244.0,33170015.640011188,1546921.8602429589,0.4203478554180106,23.723503186867966
245.0,36300178.05516202,1691119.4083617576,0.42222094420836204,23.872277031578108
246.0,39717539.202968605,1846969.7530417475,0.42414501319002534,24.026299613594713
247.0,43442090.12308266,2014904.3083573643,0.4261188301413791,24.185588325918797
248.0,47493756.12652983,2195346.7997383066,0.42814113807231435,24.35016173194702
249.0,51892359.80767388,2388732.4010795094,0.43021065496358946,24.520039545708684
