Time,J,A,S,tau
0.0,100.0,10.0,0.7108379396945503,12.968528548802036
1.0,99.30552066641617,9.04308272464096,0.7070730726929734,13.945318304965937
2.0,98.62597940342538,8.183013592920798,0.703351231920713,14.923211464476658
3.0,97.96040368440524,7.41008188804065,0.6996716632589473,15.901997724808659
4.0,97.30794364409381,6.715299811995088,0.6960330599408592,16.881601667011026
5.0,96.66779877982717,6.090627835458423,0.6924340793394984,17.861953367512285
6.0,96.03921363798216,5.5288682395796345,0.688873351079655,18.84298785641447
7.0,95.42147429463418,5.023585604699106,0.6853494839116545,19.824644667344955
8.0,94.81390481695784,4.569013055400904,0.6818610719302806,20.806867388706642
9.0,94.21586412039576,4.159990714446553,0.6784066999457191,21.78960326256285
10.0,93.62674317446903,3.791896395993147,0.6749849481939553,22.77280282349605
11.0,93.04596219343306,3.4605880433786633,0.6715943964577452,23.756419540882906
12.0,92.47296832865209,3.162357931764633,0.6682336276570335,24.740409515725
13.0,91.90723330313995,2.8938800256257102,0.6649012309626966,25.72473117544922
14.0,91.34825134095497,2.6521754902470245,0.6615958045019579,26.70934500151941
15.0,90.79553727452388,2.4345736756069587,0.6583159577592672,27.694213275872404
16.0,90.24862464830235,2.238681487554068,0.655060313568212,28.679299831320893
17.0,89.70706412448888,2.0623516511059874,0.6518275099804398,29.664569829728688
18.0,89.17042183978974,1.9036608497426126,0.6486162017723274,30.649989539497696
19.0,88.63827798683668,1.7608828789764743,0.6454250619087953,31.63552613135942
20.0,88.11022538555642,1.6324719630478182,0.642252782732334,32.62114747595518
21.0,87.58586820046979,1.5170403766438791,0.6390980771429027,33.60682195109293
22.0,87.06482069144523,1.4133466254759106,0.6359596796409596,34.5925182516538
23.0,86.5467060115548,1.3202763093898036,0.6328363472669565,35.57820520261956
24.0,86.03115511518891,1.2368327407571362,0.6297268606963676,36.563851572777054
25.0,85.51780561130424,1.1621229324501308,0.6266300250045976,37.54942588992306
26.0,85.00630075344628,1.0953472436833858,0.6235446708151238,38.53489625071218
27.0,84.49628839178446,1.0357921101936887,0.6204696552747268,39.520230128073614
28.0,83.98741995511655,0.9828197141364736,0.617403863019313,40.50539417793064
29.0,83.4793494768835,0.935860762433465,0.6143462075051981,41.490354029726305
30.0,82.97173259651534,0.8944088675088447,0.6112956322310443,42.47507407417268
31.0,82.46422557332417,0.8580143221210114,0.6082511121207543,43.459517240509555
32.0,81.9564843019881,0.8262784077148243,0.6052116550528441,44.443644762573996
33.0,81.44816331189172,0.7988484391613941,0.6021763036788602,45.427415923891175
34.0,80.93891473641224,0.775415258602221,0.5991441373889468,46.41078778722503
35.0,80.42838728339521,0.7557079968793269,0.5961142743735637,47.39371491482457
36.0,79.9162251444176,0.7394915021457387,0.5930858741760632,48.37614905067342
37.0,79.40206690955144,0.7265636657497728,0.5900581401886438,49.3580388024721
38.0,78.88554437739425,0.7167524730819012,0.5870303229159528,50.339329262755086
39.0,78.36628137223136,0.7099143016870505,0.5840017231220787,51.31996163298473
40.0,77.84389255514968,0.7059313195830655,0.5809716951926073,52.299872830436954
41.0,77.31798203076858,0.7047121471973488,0.5779396515041317,53.278995007016114
42.0,76.78814166085324,0.7061889998178954,0.574905068386434,54.25725492427571
43.0,76.25395033050565,0.7103091879650102,0.571867487753574,55.23457369823019
44.0,75.71497126240911,0.7170620592798195,0.5688265264575756,56.210865862697965
45.0,75.17075130135329,0.7264372353234758,0.5657818800158004,57.186038932168486
46.0,74.62081977924642,0.7384505266191217,0.5627333249445097,58.15999308717767
47.0,74.06468437908985,0.7531436121215366,0.559680736100972,59.13261947361121
48.0,73.50183100072853,0.7705712064941019,0.5566240868070366,60.10380007025327
49.0,72.93172206880138,0.7908129620173227,0.5535634546071349,61.073407050868774
50.0,72.35379277998489,0.813966719453907,0.5504990376479779,62.04130111769582
51.0,71.76744957692,0.8401512887885078,0.5474311604818652,63.00733081546909
52.0,71.17206793291395,0.8695060789442559,0.5443602833646605,63.971331504980036
53.0,70.56698994244833,0.9021916756696866,0.541287012486248,64.93312423105544
54.0,69.95152109269134,0.9383944578545471,0.5382121135729475,65.8925142336215
55.0,69.3249281481228,0.9783187985396228,0.5351365219041976,66.84928977588974
56.0,68.68643619781474,1.0221942423240062,0.5320613548294713,67.80322070542928
57.0,68.03522597172812,1.0702743120822213,0.5289879240358026,68.75405699845136
58.0,67.37043110770075,1.1228371413442197,0.5259177480783389,69.7015272375922
59.0,66.69113547505938,1.1801860464812555,0.52285256488813,70.64533704488458
60.0,65.99637061055711,1.2426499944936356,0.5197943440359238,71.58516748618908
61.0,65.28511333417407,1.310583917271301,0.5167452984819374,72.52067346823938
62.0,64.55628362493663,1.384368816518481,0.5137078954897308,73.45148215484329
63.0,63.80874285033328,1.4644115970386102,0.5106848663270604,74.37719143475115
64.0,63.041292412364655,1.5511449640458375,0.5076792144912022,75.29736846046683
65.0,62.25267301440551,1.645026181750791,0.5046942216972147,76.21154833058202
66.0,61.44156473581716,1.746535255070137,0.5017334507672064,77.11923300903817
67.0,60.60658789897048,1.856173212760836,0.4988007455066648,78.01989046417029
68.0,59.74630497564605,1.974459420552682,0.49590022660520805,78.91295412877635
69.0,58.85922368211283,2.10192814726322,0.49303628293222546,79.7978227497701
70.0,57.943801424024734,2.2391243126643254,0.4902135575701869,80.67386070191503
71.0,56.99845124516209,2.3865983596388576,0.4874369279569945,81.54039884083608
72.0,56.02154941866986,2.544900213209688,0.4847114795712216,82.39673596798143
73.0,55.01144479447908,2.7145723159255906,0.48204247269591183,83.24214097372706
74.0,53.966469981443836,2.896142184882767,0.4794353019352686,84.07585570918815
75.0,52.899830494739206,3.1342500154246866,0.4768954482896862,84.89709853938388
76.0,51.89869086288845,3.6567069995212087,0.4744284231840272,85.70506918048292
77.0,50.88742689332709,4.2077844023519635,0.4720397075633258,86.49895347202964
78.0,49.869879429813764,4.788685930365542,0.4697346831332084,87.277929540409
79.0,48.85082096483633,5.400542946300105,0.467518559259125,88.04117440064003
80.0,47.83609394482576,6.04439510596275,0.4653962956527713,88.78787112130192
81.0,46.83276161181295,6.7211705517161064,0.4633725225405742,89.51721643807853
82.0,45.8492555067386,7.431667790250282,0.4614514655242879,90.22842825618045
83.0,44.89555205461788,8.176536403266075,0.459636866802302,90.92075344458587
84.0,43.98336775318016,8.956258248939918,0.45793190595101924,91.59347580132786
85.0,43.12631846731952,9.771134565742532,0.45633914698502237,92.24592217652287
86.0,42.340131000484035,10.621271347919434,0.4548604719550297,92.87746932791569
87.0,41.642841574840176,11.506569059816876,0.45349703477103825,93.48754923293819
88.0,41.054979826533,12.426716772533904,0.45224923291921504,94.0756528031876
89.0,40.599786612419585,13.381186858347338,0.4511166788863308,94.64133334560562
90.0,40.303408439761704,14.369234931448622,0.4500981929323177,95.18420809255906
91.0,40.195084952603665,15.389903138737765,0.4491918088370924,95.70395838206346
92.0,40.30733086187177,16.442026308637693,0.44839479183814823,96.20032856077628
93.0,40.67609541374477,17.524241548407893,0.44770366877952195,96.6731235783345
94.0,41.34093174888652,18.634998932513973,0.44711426385227876,97.12220585944152
95.0,42.345115941805695,19.772576024484305,0.446621748456767,97.54749075225178
96.0,43.7357362786196,20.935093707893344,0.446220697425569,97.94894126359203
97.0,45.5637812048591,22.120532023229554,0.4459051451377297,98.32656261365402
98.0,47.88416200003316,23.32674783455781,0.4456686486848567,98.68039609819333
99.0,50.755701828683264,24.551492225347822,0.4455043504028197,99.01051293242358
100.0,55.92600044786236,23.875008590626912,0.5469658036704736,59.30009264093672
101.0,61.28871270900557,23.174610323912177,0.6100110773564273,40.73193312587133
102.0,66.80741817341519,22.48042229924384,0.641174195041504,33.254289533935506
103.0,72.4739751676091,21.792806977060124,0.6606441893138061,28.932863799581618
104.0,78.00502847031342,21.425236945480112,0.6741771697394096,25.998048750002408
105.0,83.53836348361622,21.36092941568987,0.6841049955813262,23.82400580497071
106.0,89.19727070122832,21.58761476590406,0.6916028153097337,22.123913708199584
107.0,95.08562603047035,22.145573553067628,0.6973485963102045,20.744145399140397
108.0,101.34485496941372,23.07963864239716,0.7017709279856245,19.593424173458192
109.0,108.1626163617115,24.439019411550817,0.7051591402568272,18.613380807108637
110.0,115.78228420915487,26.27712845687082,0.7077185380589639,17.764570804006635
111.0,124.5135288603324,28.651334633121685,0.7096005509993702,17.019184005378996
112.0,134.74357879215964,31.622673671947087,0.7109203749749403,16.356944495722566
113.0,146.9492367175222,35.25545764408537,0.7117678793100086,15.762662889714893
114.0,161.7094007021685,39.61678176757814,0.712214650594631,15.224704227370626
115.0,179.94463071512857,44.494119200345615,0.7123187126373304,14.73399012001287
116.0,202.58202336802995,49.40799868077814,0.712127794157626,14.283324973121532
117.0,229.96215705924263,54.33330159997553,0.7116816429543461,13.866931598307358
118.0,262.3361629824515,59.3415582089541,0.7110137214064861,13.48011756350981
119.0,299.95015342024794,64.64062719873816,0.71015245805463,13.119034004981621
120.0,343.23560554241266,70.45042911323229,0.7091221968438293,12.780497607932947
121.0,392.8247875735761,77.05954271163029,0.7079439296258071,12.461855348939977
122.0,449.6481327322423,84.83886032715046,0.7066358688160524,12.160881182447769
123.0,515.0603974214141,94.25548900974651,0.705213900406849,11.875696029688395
124.0,590.9999753952911,105.88667768685951,0.7036919471725773,11.60470493781549
125.0,680.1810589346238,120.43324619013298,0.7020822652025144,11.346547072679002
126.0,786.3445590113463,138.70557146062984,0.700395685176485,11.100055860390126
127.0,914.6885722296336,161.22895346608016,0.698641813368491,10.864226587995486
128.0,1071.4800712241051,188.22641887198148,0.6968291990437291,10.638190130576357
129.0,1263.5844748444051,219.94675177654827,0.6949654747129821,10.421191447838838
130.0,1498.4324842886037,256.86234121182906,0.6930574758128824,10.212571760383856
131.0,1784.3104404797937,299.7645625034085,0.6911113417038729,10.011753901958206
132.0,2130.813273475911,349.90643318419296,0.6891326026293194,9.818230043663995
133.0,2549.560919978465,409.19090690585364,0.6871262544863302,9.631551467079111
134.0,3055.2862083257,480.3997591078214,0.6850968229850936,9.451320011237177
135.0,3667.3795370769235,567.4594971648548,0.6830484197964162,9.277180827746268
136.0,4412.074438697407,675.6075112231982,0.6809847908538977,9.108816309822132
137.0,5325.130664453198,810.9180995130824,0.6789093587315508,8.945940945061075
138.0,6453.537104112506,979.9299762266937,0.676825259544831,8.788296951366204
139.0,7856.442542056603,1189.8264260041003,0.6747353752556702,8.635650572039806
140.0,9606.316869169697,1448.9532036136166,0.6726423619850556,8.487788923405072
141.0,11790.973660738913,1767.6491976761067,0.6705486748612595,8.344517307962597
142.0,14517.123711232476,2159.5218021353903,0.6684565898532893,8.205656920665449
143.0,17916.422936181174,2643.2721665585373,0.6663682229742028,8.071042887820179
144.0,22155.24071859406,3245.1063790641065,0.6642855471848703,7.940522587924698
145.0,27449.60124189545,4000.988441378654,0.6622104072834365,7.813954211851983
146.0,34084.6108974591,4957.67943502984,0.6601445330275079,7.691205526506631
147.0,42435.350583395564,6173.460085791465,0.6580895507036495,7.572152811675441
148.0,52988.36463306394,7719.669037868786,0.6560469933311143,7.456679944467122
149.0,66365.21904359276,9683.90470189314,0.6540183096630192,7.344677609653206
150.0,83351.4986705808,12175.973930067696,0.6520048721277872,7.236042617513347
151.0,104937.0793860344,15337.897353287695,0.6500079838360477,7.1306773135600166
152.0,132376.46396004944,19358.924982303863,0.6480288847650651,7.028489067010537
153.0,167280.00963240763,24493.869721267707,0.6460687572095563,6.929389826222291
154.0,211740.8103201183,31081.768283895548,0.6441287305924654,6.83329573142576
155.0,268494.462777422,39564.92694483123,0.6422098857073016,6.7401267784612635
156.0,341108.67158013396,50511.11621141759,0.6403132584707146,6.649806523281149
157.0,434207.8023873984,64644.32558868315,0.6384398432058904,6.562261823624895
158.0,553745.3701605592,82892.32583109092,0.6365905955609678,6.477422612106516
159.0,707362.5708604127,106460.74865675376,0.6347664350594238,6.395221695712373
160.0,904882.7256577576,136938.8136611826,0.6329682473599346,6.3155945794832835
161.0,1159005.4248097849,176432.94946863773,0.6311968862363448,6.238479309008002
162.0,1486235.888177972,227725.04652432387,0.6294531753217834,6.163816331625948
163.0,1908080.2743063322,294458.41136635584,0.627737909644349,6.091548371122418
164.0,2452533.328619287,381370.5282223669,0.6260518569684447,6.021620316814625
165.0,3155923.8574418523,494608.2524028631,0.6243957589837364,5.953979122574386
166.0,4065273.833375998,642177.9447846432,0.6227703323337337,5.8885737167012175
167.0,5241396.435063106,834573.5064716744,0.6211762695329005,5.825354919469027
168.0,6763081.010442663,1085607.0818532764,0.6196142397545739,5.764275368628354
169.0,8732621.600114523,1413457.8657280316,0.6180848895340711,5.705289451127883
170.0,11283066.133707693,1841974.1943750016,0.6165888433724731,5.648353240512037
171.0,14587407.970671756,2402327.9044025266,0.6151267042717445,5.593424439558166
172.0,18870351.191681404,3135193.7386461934,0.6136990541978162,5.540462326859388
173.0,24423331.820681643,4093706.056509231,0.6123064544847459,5.489427707924858
174.0,31624213.53835193,5347421.581470987,0.610949446190096,5.440282868986603
175.0,40963116.04173943,6987530.774919403,0.6096285503982088,5.392991534701843
176.0,53076281.9573571,9133527.18896584,0.6083442684925283,5.347518827772655
177.0,68790093.96261087,11941737.191676794,0.6070970823827007,5.303831231827538
178.0,89177505.84086719,15616318.831536368,0.6058874547119206,5.2618965558285575
179.0,115631094.58779725,20423716.400676418,0.6047158290280625,5.221683901068034
180.0,149956855.44713572,26711758.74872922,0.6035826299396336,5.183163629580345
181.0,194497333.86800227,34934719.8458335,0.6024882632465576,5.1463073344822075
182.0,252290713.9456768,45685902.25645195,0.6014331160557866,5.111087811770357
183.0,327279468.3136088,59739561.76305544,0.6004175568831007,5.077479033453551
184.0,424578375.89243305,78105187.73741809,0.5994419357377716,5.045456122236988
185.0,550823400.863273,102097840.44096345,0.5985065842031934,5.014995327057676
186.0,714621037.0396446,133430266.18114038,0.5976118154988457,4.986074000240843
187.0,927133223.2403145,174332708.98631608,0.5967579245446548,4.958670575174453
188.0,1202837553.2866373,227708950.2877882,0.5959451880076899,4.9327645455818265
189.0,1560512759.4307094,297337839.50805914,0.5951738643530045,4.908336445161417
190.0,2024524302.8104732,388134348.20786214,0.5944441938813968,4.885367828671425
191.0,2626479946.810664,506487817.6466372,0.5937563987686478,4.863841253408447
192.0,3407396720.1383867,660701124.8837035,0.5931106830988032,4.8437402618653085
193.0,4420489504.383327,861561815.2830955,0.5925072328939287,4.82504936493002
194.0,5734832319.465233,1123081502.371668,0.5919462161455482,4.807754025943368
195.0,7440076489.061869,1463455984.4860783,0.5914277828373096,4.791840645495734
196.0,9652637866.1458,1906304761.6235988,0.5909520649757397,4.777296546764994
197.0,12523689174.68155,2482282248.702368,0.5905191766085722,4.764109961780374
198.0,16249607776.36018,3231160091.0448484,0.5901292138547353,4.752270017965475
199.0,21085546580.50392,4204535685.4377947,0.5897822549214881,4.741766725727035
200.0,27363103303.95974,5469334145.256895,0.5894783601326498,4.7325909661645715
201.0,35513422610.83569,7112354257.225618,0.5892175719477311,4.724734479831004
202.0,46097137425.73776,9246152247.33611,0.5889999149875212,4.718189855592176
203.0,59843705727.822136,12016668063.395205,0.5888253960572288,4.712950520412804
204.0,77702271428.85156,15613118091.330158,0.5886940041697082,4.709010729342894
205.0,100908657552.80804,20280801343.232735,0.5886057105734042,4.70636555620972
206.0,131072018197.71628,26337736619.802994,0.5885604687743091,4.705010884684535
207.0,170288982740.52185,34196168875.994007,0.5885582145686905,4.704943399792834
208.0,221291654379.67184,44390533595.49597,0.5885988660655385,4.706160579989787
209.0,287642116446.9898,57613587816.13469,0.5886823237233667,4.7086606894297605
210.0,373985712614.7526,74763404139.18976,0.5888084703755249,4.71244277095455
211.0,486382556954.5414,97004117163.10072,0.5889771712697871,4.7175066390897085
212.0,632741634381.8138,125844857855.68195,0.5891882740993005,4.723852873826417
213.0,823386267550.696,163241906063.93228,0.5894416090437714,4.7314828143339325
214.0,1071798087910.563,211731193943.68594,0.5897369888080387,4.740398553402421
215.0,1395582882909.3213,274600037985.88687,0.5900742086648276,4.750602931863723
216.0,1817744289080.0342,356109468539.24585,0.5904530465017697,4.762099533575226
217.0,2368335375638.915,461782733991.4085,0.590873262866612,4.77489268051995
218.0,3086636111196.073,598778119417.3291,0.5913346010227309,4.7889874282382845
219.0,4023978925689.5117,776373014549.5746,0.5918367869982052,4.804389561553054
220.0,5247464452275.009,1006588504121.8809,0.5923795296492615,4.821105590384261
221.0,6844794138274.844,1305000089008.7988,0.5929625207150105,4.8391427460206
222.0,8930596393810.729,1691782818780.8372,0.5935854348876654,4.858508977281294
223.0,11654681805004.65,2193065852754.3347,0.5942479298749476,4.879212947233305
224.0,15212786815411.953,2842678328277.1504,0.5949496464755994,4.901264029693159
225.0,19860636644636.89,3684406075688.9717,0.5956902086509643,4.92467230627404
226.0,25932148474212.688,4774900620395.315,0.5964692236047269,4.949448563237516
227.0,33863282046652.566,6187426996114.445,0.5972862818638761,4.975604288766451
228.0,44222796881441.695,8016693894310.957,0.5981409573622053,5.00315167017008
229.0,57752484161308.164,10385054991798.512,0.5990328075297563,5.032103591313131
230.0,75418937599294.19,13450494136500.863,0.5999613733796064,5.062473630164459
231.0,98480993411925.36,17416842160804.91,0.6009261796039707,5.094276056355929
232.0,128576434992180.45,22546908680013.902,0.6019267346635605,5.127525829055625
233.0,167834227510181.25,29179230082486.793,0.6029625308875334,5.162238594679022
234.0,219018811496188.72,37749530107050.69,0.604033044564233,5.198430685065003
235.0,285715368538112.6,48818015444317.016,0.605137736041151,5.23611911541745
236.0,372568033051849.06,63104193851790.484,0.6062760498150139,5.275321582771431
237.0,485583078493237.8,81531054000162.0,0.6074474146270765,5.316056464295803
238.0,632518131183286.1,105281107365621.88,0.6086512435489784,5.3583428160799995
239.0,823373736643228.6,135867308850862.08,0.6098869340679982,5.402200371964698
240.0,1071021678480787.2,175222469341091.47,0.6111538681633223,5.4476495427586515
241.0,1391993426824361.5,225812031662780.25,0.6124514123747496,5.494711415801323
242.0,1807480837821498.0,290775328370840.5,0.6137789178621557,5.543407754821034
243.0,2344585111991974.0,374102985251581.9,0.615135720449606,5.5937610004869835
244.0,3037886669569058.0,480857676701671.25,0.6165211406587096,5.645794271243201
245.0,3931395494679085.0,617449793278207.4,0.6179344837181847,5.699531365182919
246.0,5080972786439079.0,791978338440209.1,0.6193750395593991,5.754996762342666
247.0,6557326973799988.0,1014653510942404.6,0.6208420827791409,5.812215628337667
248.0,8449681940627973.0,1298316150954918.8,0.6223348725827524,5.871213818770403
249.0,1.087029076866449e+16,1659075938745491.8,0.6238526526853126,5.932017885232568
250.0,1.3959885114806412e+16,2117091060875641.5,0.6253946511843482,5.994655082659284
