Time,J,A,S,tau
0.0,100.0,10.0,0.9196899112866591,15.844619423668535
1.0,98.82894632163783,11.590465378133633,0.920353926373088,16.432905842920828
2.0,97.74930688304325,13.117046182045558,0.9210119769187805,17.034867192847557
3.0,96.74579345937727,14.58226937464611,0.9216631508887486,17.649588230752506
4.0,95.80492226921177,15.988878835001014,0.9223069792270565,18.276594414068605
5.0,94.91540643430513,17.339503518430824,0.922943064761293,18.915424403667583
6.0,94.06785642518815,18.636661636260836,0.9235710758912177,19.56563008843337
7.0,93.25452677403956,19.882763402187916,0.9241907414427698,20.226776738835543
8.0,92.4690575204443,21.080116635675132,0.9248018442881553,20.898442738550102
9.0,91.70627643753276,22.23092960123803,0.925404216848424,21.580219618829044
10.0,90.96199358560433,23.337317510231514,0.925997735313768,22.271711532991418
11.0,90.23288152357463,24.401302000755905,0.9265823172318852,22.972535670247577
12.0,89.51632497151829,25.4248149365268,0.9271579171737669,23.68232205773687
13.0,88.81026109793586,26.409708588900163,0.927724520666568,24.400712339679743
14.0,88.11312730576607,27.357751463753722,0.9282821438197905,25.12736064659795
15.0,87.42376349974346,28.270631325640643,0.9288308298850603,25.861933413824254
16.0,86.74129753761572,29.14996914543127,0.929370643333246,26.60410741519009
17.0,86.06513939719886,29.997306561988758,0.9299016719277499,27.353571939920283
18.0,85.39488478451004,30.81412140433249,0.9304240205707481,28.110026507252567
19.0,84.73028611080026,31.601825869003,0.9309378108037842,28.873181322332556
20.0,84.07122071109157,32.36176581352381,0.9314431792123367,29.642757544757224
21.0,83.41764308355312,33.09523547617825,0.9319402734479769,30.418484966528432
22.0,82.7695819064763,33.803459353841404,0.932429254337429,31.200105219570514
23.0,82.12709748511972,34.48762206623416,0.9329102897193443,31.987366770165576
24.0,81.49028262888864,35.14884107555238,0.9333835577880432,32.7800297512182
25.0,80.85924002243324,35.78819956233779,0.9338492415672165,33.57786029527531
26.0,80.23407417621426,36.406715977030416,0.9343075318521407,34.38063603233573
27.0,79.61488710517587,37.0053813372274,0.934758622417454,35.188139490285934
28.0,79.0017656755134,37.585126661768996,0.9352027123838875,36.000164036863225
29.0,78.39478447256481,38.146854071443364,0.9356400030296455,36.81650832575389
30.0,77.75422233650647,37.846794412208304,0.9360706983816375,37.63697905145878
31.0,76.98660925452808,34.76111350476546,0.9364950041884833,38.461389755616715
32.0,76.23568723645474,31.970990884686202,0.9369131273887179,39.2895606073328
33.0,75.50067284100977,29.447217511086247,0.9373252756160866,40.12131810318327
34.0,74.78081144125206,27.163513039147002,0.9377316567666355,40.95649482143651
35.0,74.07537569436877,25.096256743059435,0.9381324786197706,41.79492912053054
36.0,73.38366438655785,23.224211939545523,0.9385279485077296,42.63646491365082
37.0,72.70500102056211,21.528294163067386,0.9389182730358419,43.48095138571777
38.0,72.03873260140188,19.991311989035033,0.9393036578439945,44.328242749564566
39.0,71.38422852733093,18.597824679497265,0.9396843074003822,45.17819802256667
40.0,70.74087927121496,17.333923973684247,0.9400604248464184,46.03068075574909
41.0,70.10809543455366,16.187094154015252,0.9404322118520997,46.885558841153525
42.0,69.48530655846247,15.14608259825972,0.9407998685194893,47.74270426507717
43.0,68.87196007288948,14.200744942190207,0.9411635933076663,48.60199288927595
44.0,68.2675203838109,13.341955402910745,0.94152358296948,49.46330426080129
45.0,67.67146779373938,12.5614982802309,0.9418800325307278,50.32652138423879
46.0,67.0832975576488,11.851964660860478,0.942233135279993,51.19153052205022
47.0,66.50251904853822,11.206682786398936,0.942583082765042,52.05822101783929
48.0,65.92865480017417,10.619649228857337,0.942930064823955,52.92648509181482
49.0,65.36123963614538,10.08545008030483,0.9432742696246484,53.79621765410301
50.0,64.79981983812225,9.59920322167282,0.9436158837154545,54.66731612585184
51.0,64.24395235857139,9.156506602803956,0.9439550920840784,55.5396802693581
52.0,63.6932040057964,8.753398949899031,0.9442920782343487,56.413212011464765
53.0,63.14715065757145,8.386305673200159,0.9446270242720795,57.287815272562014
54.0,62.60537650285629,8.05200174588124,0.944960110998044,58.16339580122127
55.0,62.067473324292116,7.747581904902055,0.9452915180047904,59.03986101730317
56.0,61.533039752593126,7.470425326746635,0.9456214237875172,59.917119848403175
57.0,61.00168056689106,7.218168017396595,0.9459500058560061,60.79508257599515
58.0,60.473005990654094,6.988675299630933,0.9462774408547793,61.673660680214695
59.0,59.94663102618738,6.780027642565785,0.946603904683624,62.55276669279586
60.0,59.42217475868186,6.590491315832444,0.9469295726290103,63.43231404295935
61.0,58.8992596941712,6.418500771707518,0.9472546194947575,64.31221691049014
62.0,58.377511117533714,6.262649610564908,0.9475792197344721,65.19239008292149
63.0,57.85655642140128,6.121667565601529,0.9479035475913515,66.07274880608625
64.0,57.33602446719837,5.994408886509228,0.9482277772357107,66.95320864150673
65.0,56.81554494301138,5.8798432538469685,0.9485520829075746,67.83368532273163
66.0,56.29474772115927,5.7770428421365985,0.9488766390556145,68.71409461165358
67.0,55.77326223431759,5.68516952867454,0.9492016204774321,69.59435215853864
68.0,55.250716815297444,5.603480362420629,0.9495272024699748,70.47437335360226
69.0,54.726738052643135,5.531299227693364,0.9498535609713845,71.35407318215061
70.0,54.20095013573713,5.468019153652415,0.9501808727055009,72.23336607706908
71.0,53.67297434947967,5.413098892098275,0.9505093152839632,73.11216580521909
72.0,53.142428206750154,5.366059471839635,0.9508390674081337,73.99038527095038
73.0,52.60892475322813,5.326466463285133,0.9511703090103735,74.86793635897067
74.0,52.0720725014723,5.293928823740149,0.951503221235436,75.74472992022136
75.0,51.53147368471047,5.268123191354324,0.9518379868470886,76.62067537501788
76.0,50.98672461411381,5.248727756503362,0.9521747900893665,77.49568079457471
77.0,50.43741457906561,5.235500641896382,0.9525138169182416,78.3696526515076
78.0,49.88312454122533,5.228188175125876,0.9528552552486674,79.24249552170532
79.0,49.32342812883091,5.226614686279414,0.9531992946857949,80.11411231174709
80.0,48.757888342236555,5.230576056786138,0.9535461271868908,80.9844035066789
81.0,48.18605927133285,5.239971713791293,0.9538959466340385,81.85326756305854
82.0,47.60748545028946,5.254610234182941,0.9542489489087645,82.72060075732807
83.0,47.021694110405775,5.274460494831853,0.9546053333159995,83.58629542369364
84.0,46.42821033242831,5.299441102715437,0.9549652996326526,84.45024340474569
85.0,45.82653765292939,5.329419085804837,0.9553290515951562,85.31233162310846
86.0,45.21616346883236,5.364452061530156,0.9556967957138705,86.17244332016286
87.0,44.596570542556805,5.404554241478979,0.956068739269953,87.03046067601085
88.0,44.28344461472705,5.146060791471252,0.9562557113337935,87.72673508397276
89.0,44.04454482180968,4.845648611421731,0.9563907593158565,88.37098461390089
90.0,43.794251577308806,4.585466725540905,0.9565242881413316,89.00492096570296
91.0,43.532475611026605,4.361597701183233,0.9566561704076718,89.62789022647613
92.0,43.259135940354454,4.170506907306003,0.9567862626896599,90.23919309249005
93.0,42.97416318625204,4.0089916659412745,0.9569144043586104,90.83808097722054
94.0,42.67750322391512,3.8741535405047527,0.957040416010752,91.42375090041887
95.0,42.36912098198842,3.7633614435571885,0.9571640981113652,91.99534081165864
96.0,42.04900493386296,3.674217830902628,0.9572852292584422,92.55192356741406
97.0,41.71717176106771,3.604536286862448,0.9574035643469339,93.09250040384524
98.0,41.373671317857536,3.5523142209529275,0.9575188327101761,93.61599400812473
99.0,41.02506592964794,3.6489588137420235,0.9576307359455576,94.12124027430065
100.0,40.67769969843809,3.974955958824576,0.957738946143088,94.60698065318189
101.0,40.32242760706795,4.309750323610047,0.9578431023184444,95.07184887173484
102.0,39.95999842046717,4.652978699187214,0.9579428082263887,95.51436039696334
103.0,39.59128943071423,5.004214194913228,0.9580376311876303,95.93290622136304
104.0,39.217339318745914,5.362950524268464,0.9581270949198885,96.32572342014664
105.0,38.8393518564461,5.728601001047822,0.9582106804766357,96.69089275826971
106.0,38.45871093251601,6.100493637824964,0.9582878222083968,97.02632045222903
107.0,38.07701827262598,6.477855092449709,0.9583578994182561,97.3296986612346
108.0,37.69609623728931,6.859810991530831,0.9584202375046686,97.59849957095624
109.0,37.31800189668465,7.245383129038612,0.9584741035719377,97.8299513157705
110.0,36.945071046913604,7.633473524839332,0.9585186956106444,98.02097900261128
111.0,36.57991658021675,8.02286887996568,0.9585531440057226,98.16819275747197
112.0,36.22544018029923,8.412241506345872,0.9585765057595461,98.26785042352664
113.0,35.88486581091579,8.800141724602687,0.9585877556976578,98.31578983370278
114.0,35.56174075195203,9.185006211264273,0.958585782821382,98.30738528295973
115.0,35.25994070400237,9.565166222998277,0.9585693851464518,98.23748939821424
116.0,34.9836705805653,9.93885967283466,0.9585372642433977,98.10036703357545
117.0,34.737460753139786,10.304247590602785,0.9584880189840126,97.88961642560724
118.0,34.52615673735879,10.6594374741459,0.9584201389109697,97.59807314850148
119.0,34.35489000173805,11.002516760964902,0.9583320020315351,97.21773014114488
120.0,34.22904312076978,11.33159136400703,0.9582218716351063,96.73964543251678
121.0,34.15420597650463,11.644831333782095,0.958087894720536,96.15384963052882
122.0,34.136122732895515,11.940524183450375,0.9579281004118677,95.44924212356338
123.0,34.18062202608968,12.217142625648535,0.9577404049532577,94.6135191173727
124.0,34.39357961233016,12.372847119129123,0.957522621600604,93.6331570036729
125.0,34.903115698824685,12.275019984430003,0.957272479680543,92.49350491387838
126.0,35.456952797554656,12.176125722079908,0.9569876474966327,91.17891596794124
127.0,36.058431403288296,12.076152193637153,0.9566657630834257,89.6731030227565
128.0,36.71105243689876,11.97508818950858,0.9563044908350842,87.9598189364593
129.0,37.41847081121619,11.872923479759104,0.955901588466592,86.0238895996956
130.0,38.18448784365332,11.769648873155013,0.9554549932733365,83.85275304735782
131.0,39.01303941821974,11.665256278810096,0.9549629320773683,81.43862191642502
132.0,39.90817980565579,11.559738753496346,0.9544240360017581,78.78096666312129
133.0,40.87406839814536,11.453090552531354,0.9538374573620798,75.88931127525663
134.0,41.914943614070616,11.345307231877193,0.9532029987480182,72.78582799818456
135.0,43.03510186841752,11.236385674754377,0.9525211665469638,69.50646526784661
136.0,44.23886770272501,11.12632416567653,0.951793178132393,66.10006351907201
137.0,45.53056228226603,11.01512245330113,0.951020887164429,62.62499765399445
138.0,46.91446718767588,10.902781808422269,0.9502066246639418,59.14358451431128
139.0,48.39478474675675,10.789305088816477,0.9493529881958754,55.715715640886174
140.0,49.97559380486557,10.674696807973202,0.948462611256076,52.393173405328895
141.0,51.66080273139536,10.5589631901513,0.9475379554806628,49.21606945597087
142.0,53.454099335981475,10.442112229467764,0.9465811533030897,46.2117186544822
143.0,55.342188971947,10.341301394438078,0.9455939151010877,43.39547449157024
144.0,57.2840351133064,10.311770872047118,0.9445774716544603,40.772759663460874
145.0,59.31492019530982,10.335623043703343,0.9435325912445753,38.34161801138538
146.0,61.43474039545941,10.434200551585798,0.9424595999894037,36.09504619267544
147.0,63.648212107661145,10.632908824617644,0.9413584233478428,34.02294192667991
148.0,65.9685621067612,10.96034435566149,0.9402286321011349,32.11357684448264
149.0,68.42190453172806,11.446876339573526,0.9390694869374909,30.354629065801454
150.0,71.05186993822859,12.12285554631335,0.9378799788947837,28.733862438571446
151.0,73.92390635997525,13.016760199301686,0.9366588649266291,27.2395441116871
152.0,77.1674215511778,14.109680915163898,0.9354046947669965,25.860670535714757
153.0,80.91915145586928,15.375679510139006,0.9341158361229254,24.58708048214111
154.0,85.29133507777992,16.824168858455625,0.9327904987852726,23.40948889921674
155.0,90.41326256979089,18.462534838488324,0.9314267454161014,22.319461791436567
156.0,96.43108555191276,20.29598459610718,0.9300225055883234,21.309370361075285
157.0,103.50715102624265,22.327414152917974,0.9285755881277753,20.372333222252518
158.0,111.8188451324971,24.55731906770518,0.9270836897490186,19.502151852193496
159.0,121.55684669170537,26.98376360756143,0.9255444015415625,18.693242730213964
160.0,132.9227855526453,29.602399241191737,0.923955217339255,17.940575804515504
161.0,146.11984765957396,32.41379503801212,0.9223135409917679,17.239617708033425
162.0,161.3277779465843,35.46154166074888,0.9206166879407153,16.58627440548284
163.0,178.74275684073194,38.81284670391857,0.918861897341666,15.976847913177464
164.0,198.57776750098324,42.58199326555567,0.9170463338187307,15.407989692143184
165.0,221.0897750619249,46.944033548683315,0.9151670956281022,14.876663980458964
166.0,246.6280798714222,52.13799963230826,0.9132212209140147,14.380113372422402
167.0,275.7248459965312,58.42243134284471,0.9112056959158199,13.915829215213806
168.0,309.1358590157312,66.04502998463435,0.9091174627642965,13.481524769309942
169.0,347.8279418460028,75.27129228581852,0.9069534279959711,13.07511190905068
170.0,393.00450990068396,86.37892661782357,0.90471047274093,12.694680534736824
171.0,446.12605598384533,99.64872694423194,0.9023854627492722,12.338480156536388
172.0,508.91999718651334,115.35498414089231,0.8999752600387957,12.004903932192077
173.0,583.3750837566917,133.7585317522285,0.8974767353772669,11.692474268587105
174.0,671.6972614775194,155.1410322266012,0.8948867812319454,11.399830171614378
175.0,776.2772054447195,179.8668310856071,0.892202326590585,11.125716075041046
176.0,899.6941236184921,208.46436313147112,0.8894203519231493,10.868971742396718
177.0,1044.7777076175241,241.73504481792963,0.886537905529533,10.628523454518616
178.0,1214.7970487166717,280.8201805868309,0.8835521210134304,10.403376030693654
179.0,1413.7526773409763,327.1833649720799,0.8804602350131602,10.192605719134068
180.0,1646.635511345934,382.60637637800113,0.8772596066545679,9.995353903563235
181.0,1919.6759201744474,449.1747474028891,0.873947737089864,9.81082134727717
182.0,2240.5751860535297,529.2390776354654,0.8705222899941549,9.638263124224075
183.0,2618.6792344979604,625.356846168421,0.8669811129925298,9.476984010949057
184.0,3065.046963162391,740.266257323061,0.8633222588774864,9.326334320396883
185.0,3592.403879976802,876.9558886478424,0.8595440080358813,9.18570620242316
186.0,4215.050497450364,1038.8581815644575,0.8556448905001057,9.054530225322965
187.0,4948.847190434661,1230.1728691610517,0.8516237082122059,8.932272334625583
188.0,5811.4417043375815,1456.2009935676824,0.8474795576231254,8.818431082090688
189.0,6822.778082611602,1723.6028171538926,0.8432118512449948,8.712535084685735
190.0,8005.786193100871,2040.5867027811657,0.8388203395530202,8.614140760980826
191.0,9387.168946905564,2416.995390544306,0.8343051317249457,8.522830224374994
192.0,10998.208428884716,2864.27212939341,0.8296667154777209,8.438209387096872
193.0,12875.400567308378,3395.3521985572143,0.8249059764054918,8.359906233745692
194.0,15060.802454298526,4024.600660649434,0.8200242151276905,8.28756921684815
195.0,17602.05707746787,4767.945742897978,0.8150231637155557,8.220865822879334
196.0,20552.179950989324,5643.298075443343,0.8099050000315466,8.159481233293855
197.0,23969.454901647827,6671.184385007185,0.8046723598769011,8.10311710390941
198.0,27917.583392277902,7875.4655417260465,0.7993283477759832,8.051490457342943
199.0,32466.213632394603,9284.0016143545,0.7938765444711082,8.004332641879873
200.0,37691.84414439525,10929.14661980607,0.788321012623978,7.96138839706894
201.0,43678.865530253825,12847.972289583775,0.7826662997437023,7.922414982602674
202.0,50520.62204612173,15082.228543601868,0.7769174378322239,7.887181372940301
203.0,58320.09571982828,17678.19904733623,0.7710799410396033,7.855467530848244
204.0,67190.0019904517,20686.662246274962,0.7651597996391271,7.827063720673999
205.0,77252.48917789613,24163.136544631147,0.7591634711570097,7.801769883838769
206.0,88638.54996395526,28168.439311198243,0.753097868590415,7.779395062417631
207.0,101487.30471310424,32769.47836067872,0.7469703458380853,7.759756867893546
208.0,115945.76327709126,38040.08782840817,0.7407886797057165,7.742680987345389
209.0,132168.87068169864,44061.71846299089,0.7345610493704555,7.728000730254137
210.0,150319.98579490557,50923.80406570084,0.7282960130716123,7.715556610497866
211.0,170571.38524496203,58723.7641648508,0.7220024822103229,7.705195958497812
212.0,193104.916376444,67566.73631936926,0.7156896930339809,7.696772565592126
213.0,218112.2627683739,77565.24703338445,0.7093671761210865,7.690146353876597
214.0,245794.35528033957,88839.04278890822,0.7030447242344787,7.685183075241972
215.0,276368.88188108546,101506.53553318151,0.6967178315990562,7.682244816986914
216.0,310057.2131533969,115685.77701944025,0.6903759903159281,7.68186934359293
217.0,347056.43923337356,131544.73237478043,0.6840752785254197,7.682387468253974
218.0,387599.3144906894,149239.26217155898,0.6778301494643204,7.683580744907738
219.0,431929.56477989786,168935.56008456822,0.67165496420797,7.68524686427256
220.0,480302.51788462524,190810.4658345642,0.665563910092412,7.68719949496407
221.0,532985.830668113,215051.68958293195,0.6595709389511567,7.689267627023917
222.0,590263.5019005563,241857.73099268784,0.6536897109220765,7.691294809149504
223.0,652394.7453601499,271488.79869418935,0.6479747011236183,7.69191709655341
224.0,719761.4942504613,304130.5713417398,0.6424093610334828,7.69191709655341
225.0,792729.7174981483,339983.5974215888,0.6369810057657275,7.69191709655341
226.0,871661.806727301,379285.35800188495,0.6316973592665878,7.69191709655341
227.0,956943.6997677566,422286.633838288,0.6265658926009515,7.69191709655341
228.0,1048992.7988216847,469252.65663832444,0.6215938113524793,7.69191709655341
229.0,1148260.3157912323,520464.84015857766,0.616788042360329,7.69191709655341
230.0,1255235.9997951188,576222.3699091901,0.612155225695935,7.69191709655341
231.0,1370448.2377312256,636855.7146864878,0.6077017063670387,7.69191709655341
232.0,1494488.1518235924,702713.7530101208,0.6034335258949529,7.69191709655341
233.0,1628019.2768884622,774154.4173321264,0.5993564188607899,7.69191709655341
234.0,1771773.2847638805,851560.6478636765,0.5954758091630825,7.69191709655341
235.0,1926560.4359448878,935344.0125879528,0.5917968069976249,7.69191709655341
236.0,2093276.480806861,1025949.0182174277,0.5883242067989444,7.69191709655341
237.0,2272915.3362366515,1123857.596895139,0.5850624880018621,7.69191709655341
238.0,2466583.3464508303,1229594.3124718715,0.5820158157884021,7.69191709655341
239.0,2675515.738603993,1343734.5183233623,0.5791880421567802,7.69191709655341
240.0,2901091.675018822,1466911.8041811727,0.5765827068822237,7.69191709655341
241.0,3144858.5571245914,1599820.892462372,0.57420304102766,7.69191709655341
242.0,3408555.4396635075,1743225.2563990136,0.5720519700071882,7.69191709655341
243.0,3694141.53678941,1897966.391746913,0.57013211651635,7.69191709655341
244.0,4003821.780082181,2064975.0889457723,0.568445802498724,7.69191709655341
245.0,4340077.860329977,2245283.510909899,0.5669950531192701,7.69191709655341
246.0,4705707.7115315,2440038.8647883474,0.5657816001304857,7.69191709655341
247.0,5103872.678058691,2650519.439720718,0.5648068846196692,7.69191709655341
248.0,5538146.381433135,2878154.01904409,0.5640720583078577,7.69191709655341
249.0,6012568.595922752,3124542.0784388673,0.5635779861335408,7.69191709655341
250.0,6531716.186961211,3391476.0764882592,0.5633252484233346,7.69191709655341
251.0,7100785.845949792,3680967.2724422063,0.5633141420311565,7.69191709655341
252.0,7725687.59778992,3995276.5949983443,0.5635446799161499,7.69191709655341
