Time,J,A,S,tau
0.0,100.0,10.0,0.8874794931897845,26.70542781526196
1.0,98.25875827267409,10.478189554636177,0.8868751267182663,27.613034599571257
2.0,96.56161390050478,10.866624429645002,0.8862732413828459,28.52300709513992
3.0,94.90659614979779,11.177499300245337,0.8856738796524358,29.435135000731982
4.0,93.29124251553625,11.42128423474497,0.8850770249154566,30.349289888423524
5.0,91.71320070512124,11.607210406565834,0.8844826497247539,31.265348844203633
6.0,90.1702212332489,11.743433095624084,0.883890716688845,32.18319409647254
7.0,88.6601519586952,11.837138345669745,0.8833011791582808,33.10271274079885
8.0,87.18093120309237,11.894659830557597,0.8827139820303833,34.023796392454706
9.0,85.73058219093879,11.921577749706108,0.8821290624120672,34.9463409038093
10.0,84.30720745933412,11.922809096978929,0.8815463502702653,35.87024607914269
11.0,82.90898351294705,11.902674974151097,0.8809657690435067,36.79541540117002
12.0,81.53415558896887,11.864978190500091,0.8803872362292057,37.721755761649455
13.0,80.18103261270076,11.813059621963275,0.8798106639371277,38.6491772012267
14.0,78.84798265120952,11.749854607443522,0.879235959387971,39.577592672788505
15.0,77.53342810920255,11.677938772736658,0.8786630254178652,40.506917791905856
16.0,76.2358415313078,11.599572950523786,0.8780917609221153,41.437070615961446
17.0,74.95374118039219,11.5167377156721,0.8775220613020535,42.367971412523495
18.0,73.68568701309866,11.431170292110634,0.8769538188713543,43.29954244585088
19.0,72.43027711150759,11.34439023260673,0.8763869232186595,44.231707784920275
20.0,71.1861432466084,11.257730629733063,0.8758212616235462,45.16439306917348
21.0,69.9519475073855,11.172357781265566,0.8752567193867338,46.09752532465331
22.0,68.72637816399426,11.089295154614833,0.8746931801951717,47.03103274704796
23.0,67.50814719136402,11.009439880540898,0.8741305263893736,47.96484455483729
24.0,66.2959863467419,10.933577130591976,0.8735686393199517,48.898890774806006
25.0,65.0886428024396,10.862397830911888,0.8730073996785497,49.83310202397156
26.0,63.884877516481424,10.796517828612153,0.8724466877283532,50.767409388713894
27.0,62.68346099443357,10.736469087111901,0.8718863836721834,51.701744192059365
28.0,61.48316993232124,10.682737373058572,0.8713263678496403,52.636037843937935
29.0,60.282784627755355,10.635756705965422,0.8707665211575667,53.57022162280448
30.0,59.08108540839993,10.595891061555928,0.8702067251672755,54.50422655008725
31.0,57.87684933232829,10.563527858442148,0.8696468626079006,55.43798313071668
32.0,56.668847387059046,10.538953866188335,0.8690868174878714,56.371421243036764
33.0,55.45584141117502,10.52250346394861,0.868526475443585,57.30446993609434
34.0,54.23657945024988,10.514418813877036,0.867965724221191,58.237057141503456
35.0,53.009795382207145,10.515019809573577,0.8674044535970273,59.16910969651422
36.0,51.77420163193577,10.524518333064671,0.8668425562489765,60.10055285078499
37.0,50.528490844866276,10.543221174699639,0.8662799274300901,61.03131043095949
38.0,49.27132625751292,10.571334466342961,0.8657164661291141,61.96130419071745
39.0,48.00134582056994,10.609166276530873,0.8651520744731249,62.89045413372784
40.0,46.71714948494627,10.656930729639694,0.8645866592667539,63.81867766061017
41.0,45.4173064294768,10.714948488099523,0.8640201310469706,64.74589009145087
42.0,44.10033853370513,10.783453354493478,0.8634524060941968,65.67200356385176
43.0,42.7647313817703,10.862788245714913,0.8628834050551696,66.59692779737864
44.0,41.40891316318281,10.953216844910298,0.8623130555292393,67.52056869428102
45.0,40.031270158296934,11.055112735399334,0.861741290164396,68.4428293909588
46.0,38.630120278607905,11.168778657272066,0.8611680499326025,69.36360851032224
47.0,37.203733772729834,11.294626332070155,0.8605932815927616,70.28280154809488
48.0,35.75030059217127,11.433006069727297,0.8600169417791976,71.20029872337479
49.0,34.267957086321466,11.584374487256264,0.8594389937142666,72.1159867501234
50.0,32.754746363088664,11.749137597271494,0.8588594122431074,73.02974623058276
51.0,31.208649424537743,11.927821290038148,0.8582781799628779,73.94145371348951
52.0,29.627547296976324,12.120896556512172,0.8576952921236103,74.85097919880288
53.0,28.009243988080577,12.328872998621557,0.857110753782373,75.7581876486522
54.0,26.35143562607297,12.552363756818613,0.8565245838375468,76.66293697416701
55.0,24.65172324216223,12.791923554891598,0.855936813552011,77.56507884739624
56.0,22.907600594399597,13.04824739391564,0.8553474881775266,78.46445792409068
57.0,21.116444449626,13.32198732859781,0.8547566684279688,79.36091117361298
58.0,19.27551505796076,13.613849192017367,0.8541644305238438,80.25426791194468
59.0,17.381948217461616,13.924598499095737,0.853570867376126,81.1443492701718
60.0,15.432741337086478,14.255059948170075,0.8529760906266766,82.03096726018339
61.0,13.42475884987548,14.606065405880774,0.8523802300744644,82.91392510682965
62.0,11.354717284766725,14.97850619717142,0.8517834358491586,83.79301624893426
63.0,9.21918204685981,15.373326149372302,0.8511858790114918,84.66802410151055
64.0,7.014558750736662,15.791510731636848,0.8505877529129728,85.53872145131317
65.0,4.737088013633827,16.23409981768614,0.8499892740677722,86.40487008179227
66.0,2.3828378095119653,16.702182075138662,0.8493906833733378,87.26622022690684
67.0,0.0,17.19689289686794,0.8487922470614913,88.12251014550644
68.0,0.0,17.71941911622155,0.8481942578258146,88.97346560318591
69.0,0.0,18.270999398650183,0.8475970357970344,89.81879941403014
70.0,0.0,18.85292411382434,0.8470009295079457,90.65821097244289
71.0,0.0,19.46653816822039,0.8464063167404617,91.49138582284078
72.0,0.0,20.113231212355497,0.845813605284706,92.31799524934496
73.0,0.0,20.7944450766714,0.8452232337038132,93.13769583725801
74.0,0.0,21.511666897063964,0.8446356718319695,93.95012913062486
75.0,0.0,22.26642854575966,0.844051421059648,94.75492135887554
76.0,0.0,23.060304817706132,0.8434710147215994,95.55168307036979
77.0,0.0,23.89492295643079,0.8428950180632707,96.34000892169908
78.0,0.0,26.276243318815048,0.8423240275983286,97.11947772453992
79.0,9.049070942096503,29.67500510680975,0.8417586711050231,97.88965209877688
80.0,39.184614353178425,33.171578681362455,0.8411996065493162,98.65007860039246
81.0,73.5607216667735,36.7703746994284,0.8406475209457337,99.40028780061576
82.0,112.41436283360281,40.47586424363694,0.8401031288157896,100.13979448241332
83.0,155.99609908990928,44.29256515837215,0.8395671702274141,100.8680979562007
84.0,204.57059127396542,48.225026317982355,0.8390404083966085,101.5846824961126
85.0,258.4170982097831,52.2778097483936,0.8385236268154905,102.28901790675316
86.0,317.82993164364814,56.455470536157584,0.8380176258518178,102.98056025484837
87.0,383.1189247042357,60.76253471369799,0.8375232188694054,103.65875269430312
88.0,454.6098397621153,65.20347392191104,0.8370412277058968,104.32302653911113
89.0,532.6447441534457,69.78267886184004,0.8365724776394079,104.97280240817754
90.0,617.5823119162104,74.50442953060525,0.8361177917434193,105.60749163139232
91.0,709.7981704797123,79.37286289981473,0.8356779845887378,106.22649773046047
92.0,809.6849793806309,84.39193996463715,0.8352538554161576,106.82921816731762
93.0,917.6526174804521,89.56540892724837,0.8348461807699522,107.41504620957735
94.0,1034.1282928943322,94.89676591361679,0.8344557063177794,107.98337296373568
95.0,1159.5563204731147,100.38921706037533,0.8340831383456621,108.53358959568078
96.0,1294.3980441859524,106.04563615434235,0.8337291348011318,109.06508967203015
97.0,1439.131495909506,111.86852237033315,0.8333942956219844,109.57727165656553
98.0,1594.2509639272648,117.85995749040093,0.8330791529879915,110.069541497953
99.0,1760.2664319537328,124.0215620660828,0.8327841610592618,110.54131533117386
100.0,1937.702905107299,130.35445168740642,0.832509685649256,110.9920222304677
101.0,2127.0993064248187,136.85919608110657,0.8322559933968987,111.42110706678685
102.0,2329.0075790888854,143.5357765878153,0.8320232415302197,111.82803328326854
103.0,2543.9914517877614,150.3835466939477,0.8318114674772832,112.2122856866771
104.0,2772.624727800417,157.40119696594735,0.8316205782522843,112.57337327349994
105.0,3015.4899033365855,164.58671899467979,0.8314503409438367,112.9108318340718
106.0,3273.1763072598314,171.937376746222,0.831300373647005,113.22422643239977
107.0,3546.2778132191215,179.4496782369838,0.831170135429316,113.51315405081971
108.0,3835.390839755414,187.11935672046243,0.8310589196370901,113.77724552356126
109.0,4141.111857638531,194.9413550290834,0.8309658466077524,114.01616753299338
110.0,4464.0347539801805,202.90981052522065,0.8308898564682066,114.2296245514754
111.0,4804.747917890449,211.01806430893754,0.830829706460833,114.41735977059987
112.0,5163.831318053523,219.2586492239888,0.8307839641865431,114.57915685595212
113.0,5541.853065074653,227.62329107378005,0.8307510027194009,114.71484126836505
114.0,5939.366712952626,236.10294339694906,0.8307290047519675,114.82427958504083
115.0,6358.291569071476,243.15955684735687,0.8312825566087327,113.99892963204398
116.0,6794.140388835207,236.468934284866,0.8377948653898148,103.28361322040031
117.0,7221.117018217017,229.86390712589352,0.8455789383250942,89.9729885447878
118.0,7638.962867552046,223.34623590985876,0.853581809921728,76.43014715921369
119.0,8047.424816037873,216.91765178378014,0.8606140385908495,65.19358207808361
120.0,8446.255947489044,210.5798515205891,0.8662882670422725,56.725911892829494
121.0,8835.216302946677,204.33449226590741,0.8707568727475213,50.397335051375414
122.0,9214.073618988807,198.18318638026247,0.8742751502424492,45.55243172329064
123.0,9561.894702738306,305.00911512372255,0.8770569657714286,41.7336309505739
124.0,10164.376263212785,482.5175555924778,0.8792601453131673,38.64343773272036
125.0,11160.274638501689,700.6091774683732,0.8809986898297475,36.08732065796892
126.0,12645.648386234188,952.1719204368857,0.8823558336005355,33.93449358634064
127.0,14703.59087969697,1232.2303238806999,0.8833935329483057,32.09422464527344
128.0,17408.163985817948,1537.1546246087155,0.884158891562317,30.501651679375
129.0,20826.8094149959,1864.192059644372,0.8846884549684104,29.109138013969496
130.0,25021.901885284133,2211.176121808463,0.8850111158118961,27.880853647195707
131.0,30051.72165754917,2576.3408918230257,0.8851501124577381,26.78927731598597
132.0,35971.09045862228,2958.197486255948,0.8851244309734545,25.812876466931787
133.0,42831.76361411299,3355.450017624012,0.884949806956666,24.934528610755926
134.0,50682.63173837537,3766.9376771793077,0.884639453518467,24.14042422208651
135.0,59569.86581843054,4191.591708037921,0.8842046003165395,23.41928427443177
136.0,69536.91447212368,4628.406140565778,0.8836549058677557,22.761786688573338
137.0,80624.44894208814,5076.415661621639,0.8829987587724704,22.160158489123035
138.0,92875.46202390378,5505.533492870749,0.8822435266216756,21.607849388513177
139.0,106228.59111801274,5884.797880179854,0.8813957372527088,21.099299938559387
140.0,120563.21117921248,6217.861298305792,0.8804612309319217,20.629756869138163
141.0,135764.38136704837,6508.1964301096405,0.8794452772408892,20.19512883343594
142.0,151722.55018804356,6759.058754188427,0.8783526736410369,19.79187161409117
143.0,168299.3574642629,7230.649134433165,0.8771878213952718,19.416899997566812
144.0,186289.93808743352,8297.361298613714,0.8759547899417851,19.067513066308813
145.0,207368.97234940945,10098.95856406575,0.8746573705644273,18.741336811446402
146.0,233595.60387324807,12723.892096030879,0.873299120070508,18.4362754790576
147.0,267287.9713573566,16229.007432155697,0.8718833975069878,18.15047183831742
148.0,310942.30238141975,20650.16851352708,0.8704133950089864,17.882274282883397
149.0,367176.2768724849,26008.417428055058,0.8688921638360995,17.63020929361224
150.0,438686.3542307462,32313.743997368987,0.8673226363850978,17.392958339217284
151.0,528213.8302186404,39567.4983332457,0.8657076448514734,17.16933833123707
152.0,638516.1865247177,47763.99603970331,0.8640499371079655,16.958285033090565
153.0,772342.2060883506,56891.622586592974,0.8623521902289062,16.758838844852676
154.0,932410.5752988723,66932.1046243643,0.8606170219557343,16.570132698723576
155.0,1121384.3196020878,77780.60141971886,0.8588470005240213,16.391381506968802
156.0,1341521.3595686501,89218.83610391596,0.8570446528900102,16.221873097351402
157.0,1594415.3679406461,101045.27647677987,0.8552124717813261,16.06096034259298
158.0,1881049.3990601334,113083.55804758058,0.8533529216030903,15.908054246489455
159.0,2201785.8720736126,125547.35588144661,0.8514684434736222,15.762617949528977
160.0,2558266.3407271965,140021.73426990418,0.8495614589678476,15.624161358963573
161.0,2957459.0525388923,158742.77715785662,0.847634373729609,15.49223654338539
162.0,3413310.8455531737,184161.3229325691,0.845689580013243,15.366433586253711
163.0,3947346.490051465,218781.8701786413,0.8437294587380839,15.246376925239826
164.0,4588807.788178837,265066.9361357049,0.8417563809931832,15.131722097138773
165.0,5374499.3590619685,325376.69404805894,0.8397727090797975,15.022152843767262
166.0,6348436.450140113,401929.1630380557,0.837780797124049,14.917378518477083
167.0,7561358.760107609,496773.1086047999,0.8357829912992889,14.817131769832685
168.0,9070141.475914363,611769.3921486703,0.8337816297097739,14.72116646247014
169.0,10937130.099321753,748572.436286413,0.8317790419692733,14.6292558086603
170.0,13229392.763554642,908419.1604538219,0.8297775484929159,14.541190683878424
171.0,16017000.004039356,1091752.4354991675,0.8277794595469522,14.456778110209443
172.0,19370336.880258624,1298266.9835103385,0.8257870740668165,14.375839885193654
173.0,23357649.229879677,1527116.2671408127,0.82380267829239,14.298211336059579
174.0,28043479.747596614,1778914.0121263668,0.8218285442032597,14.223740201322435
175.0,33496079.52934393,2059816.4401742816,0.8198669278240264,14.15228560833753
176.0,39806924.0220431,2383007.2744400823,0.8179200673662579,14.083717141058377
177.0,47113641.429004684,2768745.7907950417,0.8159901812700586,14.017914001424693
178.0,55622570.15283115,3243881.487822717,0.8140794661437228,13.954764240486586
179.0,65629404.98072334,3841093.501661673,0.8121900946120402,13.894164057918754
180.0,77537034.79966174,4597991.499569748,0.8103242130966765,13.836017163318992
181.0,91870134.67059025,5556155.249067046,0.8084839395409709,13.780234192939393
182.0,109286312.91983269,6760160.680182731,0.8066713610926031,13.7267321766361
183.0,130583780.72062649,8256608.835691475,0.8048885317569425,13.675434050351564
184.0,156705517.69124863,10092739.754846662,0.8031374700331245,13.62626820994273
185.0,188737811.7528653,12313982.171646418,0.8014201565439732,13.579168102617125
186.0,227900121.98890176,14961557.46262232,0.7997385316715147,13.534071852491934
187.0,275527190.9982969,18071092.605446644,0.7980944932092974,13.490921917219197
188.0,333048021.7130214,21677537.86024234,0.7964898940297931,13.449664773787235
189.0,401990354.988589,25831709.60078132,0.7949265398110185,13.410250628383485
190.0,484045007.2462805,30620685.738715038,0.7934061867548121,13.372633153406882
191.0,581198437.2319348,36186577.12720141,0.7919305394248178,13.336769241761449
192.0,695923848.5694289,42742164.76663604,0.7905012485652987,13.302618785464908
193.0,831420767.1032026,50582561.697999075,0.7891199090543769,13.270144468816358
194.0,991885958.2207067,60093051.720710374,0.7877880578555421,13.239311581436015
195.0,1182806570.0627944,71752955.21095741,0.7865071721182743,13.210087843948696
196.0,1411255718.7039504,86136181.09119563,0.7852786672933856,13.182443250004393
197.0,1686183666.9124978,103908338.19494249,0.7841038953671065,13.15634992021094
198.0,2018690413.4519749,125818778.26747608,0.7829841431740627,13.131781968417613
199.0,2422260519.5082703,152685710.1660341,0.7819206308021521,13.108715379086242
200.0,2912937410.1951604,185376173.50053066,0.7809145100913221,13.08712789494434
201.0,3509422641.627445,224788644.77161866,0.779966863229541,13.066998914149012
202.0,4233124230.761525,271865505.57489353,0.7790787014498125,13.048309396234718
203.0,5108280437.155624,327658881.7381881,0.7782509638299009,13.031041776239272
204.0,6162341787.093314,393448303.81434953,0.777484516183238,13.015179886616874
205.0,7426776356.400435,470898076.0263757,0.7767801500824308,13.00070888578356
206.0,8938415536.328312,562240758.7467597,0.7761385819438663,12.987615194016968
207.0,10741412708.267206,670472348.6015987,0.7755604522570005,12.97588643497513
208.0,12889818894.834381,799546859.960099,0.7750463249197853,12.965511382988112
209.0,15450760246.074148,954560736.2100514,0.7745966866432437,12.956479916359154
210.0,18508174242.915176,1141917522.8185365,0.7742119464932783,12.948782975488296
211.0,22166988795.576717,1369463356.23614,0.7738924355527996,12.942412525628729
212.0,26557636813.958416,1646579946.8653843,0.7736384066505143,12.937361524780808
213.0,31840769454.22443,1984220759.7672992,0.7734500342115286,12.933623895902757
214.0,38211911289.49079,2394890896.7880807,0.7733274142426522,12.9311945029398
215.0,45905892412.30733,2892621617.9775805,0.7732705643836046,12.93006913134918
216.0,55201164108.7452,3493058146.199961,0.7732794240619804,12.930244472639775
217.0,66424417938.02361,4213791694.674561,0.7733538547937954,12.931718112208515
218.0,79956398126.97478,5075033743.38541,0.7734936405510998,12.934488521222892
219.0,96240157449.49202,6100684110.100865,0.7736984882159542,12.938555052373765
220.0,115792997107.26915,7319799343.043215,0.7739680281845488,12.943917938665917
221.0,139223254743.98044,8768441289.66978,0.7743018150415953,12.950578295961769
222.0,167253187896.81693,10491858845.549469,0.7746993283078092,12.958538129382237
223.0,200748864588.15558,12546923246.748783,0.7751599733320611,12.967800342729383
224.0,240757443234.38,15004741850.582777,0.7756830822611139,12.978368751492896
225.0,288552359387.8513,17953353054.45805,0.7762679150719475,12.990248099831037
226.0,345686486399.9741,21500351879.25026,0.776913660735425,13.003444080767096
227.0,414052217203.899,25775323221.223427,0.7776194384667012,13.017963359917887
228.0,495947807312.4441,30932025476.115917,0.7783842990300311,13.03381360343467
229.0,594149317597.3147,37150436818.432335,0.7792072261564429,13.051003509545252
230.0,711986813743.0348,44639107918.65831,0.7800871380563013,13.069542843691256
231.0,853426429385.1044,53638500037.10676,0.7810228889799554,13.089442478224647
232.0,1023162611251.1222,64426041213.71484,0.7820132708702022,13.110714436272568
233.0,1226724980928.2173,77323656422.02414,0.7830570151141772,13.133371939378616
234.0,1470608176301.0955,92708481101.22913,0.7841527943382985,13.157429460143963
235.0,1762436054538.1863,111027262189.74844,0.785299224273737,13.182902779771178
236.0,2111169720113.3818,132814733876.02475,0.7864948657201779,13.209809049698684
237.0,2527370564739.7085,158716185014.78934,0.7877382265481156,13.238166858748974
238.0,3023532025476.0884,189514155846.71436,0.7890277637524395,13.26799630604611
239.0,3614489412549.8555,226158788730.48846,0.7903618855956854,13.299319078512239
240.0,4317914079305.727,269801403357.36407,0.7917389537856355,13.332158534420694
241.0,5154901815836.781,321830558393.971,0.7931572856882159,13.366539793669487
242.0,6150658811587.113,383909493926.9052,0.7946151566135551,13.402489833346918
243.0,7335279099353.929,458014839351.516,0.796110802132946,13.440037589848615
244.0,8744618414884.31,546477318298.05804,0.7976424204169117,13.479214068721067
245.0,10421269665816.834,652025835902.421,0.7992081746257181,13.520052460726083
246.0,12415635035811.54,777838273704.665,0.8008061953260888,13.562588264849085
247.0,14787119871636.436,927603373781.8724,0.8024345829164643,13.6068594200243
248.0,17605487565307.586,1105598048689.1375,0.8040914100831337,13.65290644418672
249.0,20952397237738.18,1316785441560.5935,0.8057747242753922,13.700772580494162
250.0,24923190692063.867,1566939355327.1548,0.807482550178907,13.750503953044301
251.0,29629017795441.523,1862799396421.1865,0.80921289219779,13.802149731577336
252.0,35199327522900.86,2212259689180.617,0.8109637369529831,13.855762301803473
