Time,J,A,S,tau
0.0,100.0,10.0,0.9990070941450652,18.200707674304457
1.0,183.2184372899392,70.07459822057663,0.9965253827332371,17.84286078540966
2.0,473.7984596709587,126.28707128057641,0.9939579667923449,17.482093342294355
3.0,954.3575732563006,178.83576348075118,0.9913053495717913,17.118504650467205
4.0,1608.6665861225206,227.91192623110015,0.9885682639664858,16.75219173267096
5.0,2421.5928226426813,273.6994530653834,0.9857477029396426,16.383251963661852
6.0,3379.0435485107782,316.37499752330257,0.9828449240442128,16.011783067078614
7.0,4467.912492704797,356.1080860032453,0.9798614526252782,15.637883111478358
8.0,5676.027434245005,393.0612469054646,0.9767990832120192,15.261650505027145
9.0,6992.0993156108,427.39016837326653,0.9736598795225071,14.88318398948297
10.0,8405.675129555986,459.24382721906267,0.9704461727284203,14.502582633118427
11.0,9907.091346175781,488.76466046467954,0.9671605582227163,14.119945822929967
12.0,11487.425525662642,516.0887934343336,0.9638058897633536,13.735373254849689
13.0,13138.463589620047,541.3460598193957,0.9603852738239681,13.348964925386921
14.0,14837.048079592761,606.6645350119225,0.9587233073571376,13.235331606870316
15.0,16832.695755949844,859.2916961388562,0.9576751247669405,13.213526250868425
16.0,19723.656719749648,1281.581803696921,0.9566490377503764,13.19277123106158
17.0,24017.87085976915,1845.4492109460916,0.955648069057879,13.173058490924447
18.0,30128.354812626338,2525.916172928792,0.9546752232349162,13.154380403393532
19.0,38385.62548237947,3300.8518938736197,0.9537334710822235,13.136729754359374
20.0,49048.8409717681,4150.726988404395,0.9528257340144265,13.12009972710626
21.0,62315.76270839365,5058.383406635152,0.9519548684267817,13.104483887777535
22.0,78331.63027796746,6008.819640714798,0.9511236501784273,13.089876171803196
23.0,97197.09452404514,6988.9890837528865,0.950334759381186,13.076270871066303
24.0,118975.20819421714,7987.614259142676,0.9495907654833601,13.063662622181305
25.0,143697.6334572208,8995.01380747989,0.9488941128184698,13.052046395586322
26.0,171370.14861092623,10002.940229484964,0.948247107023537,13.041417484829795
27.0,201964.09903526216,11025.833010288561,0.9476519015100079,13.03177149785841
28.0,235588.07621799488,12429.383494499029,0.9471104858969922,13.023104347612593
29.0,273723.96204276633,14744.771230819033,0.9466246740715923,13.01541224452831
30.0,319411.6649538038,18369.75278271112,0.9461960940064131,13.008691689086664
31.0,376838.59150602034,23585.881296665553,0.945826178456199,13.002939465231712
32.0,450998.8102914951,30579.0763970261,0.9455161568109385,12.998152634425866
33.0,547418.3558655491,39457.36938634793,0.9452670481812757,12.994328530316361
34.0,671936.3925086857,50266.12451855426,0.9450796556894456,12.991464754086824
35.0,830533.0495140086,63001.0673583953,0.9449545621342449,12.989559170315088
36.0,1029197.2186047334,77619.33158619664,0.944892126941847,12.988609903503837
37.0,1273826.311531963,94048.8110549701,0.9448924844751635,12.988615335148339
38.0,1570153.7061123562,112195.99785755717,0.9449555436857183,12.98957410142045
39.0,1923698.434833721,131952.53230461426,0.9450809892695855,12.991485091244801
40.0,2339725.9158649906,153208.18602187454,0.9452682838420134,12.994347445260825
41.0,2823259.0851783296,176326.48446550718,0.9455166718360967,12.99816055487302
42.0,3381308.5159199075,203068.58716063213,0.9458251845068963,13.002924062219993
43.0,4027449.5638363105,236382.03283707367,0.9461926460994738,13.008637860487973
44.0,4785441.982431407,279960.6374699238,0.9466176813168792,13.015302094795656
45.0,5691596.856908409,337904.2833098382,0.9470987238876574,13.022917163608817
46.0,6796184.378999506,414461.4671946593,0.9476340262173217,13.031483720646076
47.0,8164124.036618307,513839.07273997774,0.9482216699985645,13.041002677331097
48.0,9875147.139460266,640066.2312078051,0.9488595776994531,13.0514752057921
49.0,12023577.016255397,796901.4702626396,0.9495455248729261,13.062902742348289
50.0,14717854.974913577,987773.9508694279,0.9502771531689926,13.075286991522905
51.0,18079906.22688301,1215751.244403404,0.9510519839303512,13.088629930612992
52.0,22244402.1951601,1483527.745636999,0.9518674322707611,13.10293381479945
53.0,27357997.813450173,1793427.8581134272,0.952720821557074,13.118201182765938
54.0,33578496.90892213,2147733.3654161207,0.9536093981435365,13.134434862863971
55.0,41076146.94192843,2551157.9330447987,0.9545303462603834,13.151637979888793
56.0,50045426.84935776,3014534.5902388296,0.9554808029576753,13.169813962363277
57.0,60729532.8360052,3557310.2955975686,0.9564578729812817,13.188966550297016
58.0,73453715.63995288,4208872.532382052,0.9574586434608171,13.209099803807316
59.0,88663995.33044533,5009004.918168953,0.9584801983412828,13.230218111927869
60.0,106968606.65309398,6007759.848045163,0.9595196324213586,13.252326202331664
61.0,129180456.28660259,7264918.732291117,0.9605740649290756,13.275429151484284
62.0,156359258.33810472,8849200.674202694,0.9616406525372476,13.299532395444796
63.0,189852482.4394169,10837329.952383202,0.9627166017401204,13.324641741273176
64.0,231334566.5376194,13313045.416601205,0.9637991805186064,13.350763379055516
65.0,282844075.21806073,16366111.597420713,0.964885729229878,13.377903894553668
66.0,346818652.2130207,20091373.61683154,0.965973670665943,13.4060702824852
67.0,426127720.50579,24587907.421235602,0.9670605192350193,13.435269960438859
68.0,524103259.6318393,29959710.436066527,0.968143889229172,13.465510783430007
69.0,644579000.55464,36323702.66940478,0.9692215021506648,13.496801059098022
70.0,791972120.5876591,43827305.345450625,0.970291193079591,13.529149563548005
71.0,971445332.3157637,52672265.56879595,0.971350916073226,13.5625655578358
72.0,1189174777.634224,63141557.81360454,0.9723987486015416,13.597058805089809
73.0,1452739776.3779922,75627078.84270762,0.9734328950278422,13.632639588291777
74.0,1771641770.0156088,90656632.32422583,0.974451689147174,13.669318728677926
75.0,2157953860.2937737,108919206.68376039,0.9754535958097954,13.707107604744612
76.0,2627099014.5251946,131287963.98092794,0.976437211667477,13.746018171879038
77.0,3198751615.462951,158840641.77491352,0.9774012650789907,13.786062982585449
78.0,3897854992.8070784,192877275.26809332,0.9783446152198911,13.827255207288417
79.0,4755745985.654939,234935296.95919138,0.9792662504499118,13.869608655708179
80.0,5811377554.87039,286802120.29163736,0.9801652859842409,13.913137798752723
81.0,7112627396.510202,350525418.61032975,0.9810409609256902,13.957857790876922
82.0,8717682201.53652,428422965.19722927,0.9818926347259702,14.003784492919543
83.0,10696502479.818367,523105033.0847949,0.9827197831330741,14.050934495357113
84.0,13132450075.457518,637534734.4276053,0.9835219936869946,14.09932514192571
85.0,16124277842.809275,775147244.1674316,0.9842989608278495,14.148974553569513
86.0,19788774872.644012,940039238.7809633,0.9850504806764007,14.199901652652839
87.0,24264410586.677692,1137232516.7831059,0.9857764455413222,14.252126187303464
88.0,29716344464.92072,1373010749.2825882,0.9864768382228748,14.305668755888076
89.0,36343170614.9236,1655324906.2556317,0.9871517261655045,14.360550831514711
90.0,44385745554.45254,1994260650.104257,0.9878012555130228,14.416794786466044
91.0,54138414947.47838,2402559714.5546556,0.9884256451177045,14.474423916469293
92.0,65962915577.89772,2896186599.421708,0.9890251805514324,14.533462464714281
93.0,80305175603.48174,3494931006.175191,0.9896002081565689,14.593935645405269
94.0,97715163480.76306,4223037326.505907,0.9901511291839112,14.65586966679515
95.0,118869892921.44745,5109852122.525539,0.9906783940520208,14.719291753557401
96.0,144599611009.1006,6190480907.179216,0.9911824967592127,14.784230168332087
97.0,175917127316.2721,7506448999.044713,0.9916639694763899,14.850714232286347
98.0,214050206971.1493,9106387531.484318,0.9921233773454999,14.918774344549444
99.0,260477114882.803,11046822877.311224,0.9925613135009964,14.988442000248407
100.0,316965763830.6356,13393203985.875263,0.9929783943338362,15.059749806988245
101.0,385617675549.0442,16221330341.933592,0.9933752550111422,15.132731499607402
102.0,468918711427.4911,19619350903.279873,0.9937525452603535,15.207421952964713
103.0,569799320388.0239,23690496627.82486,0.9941109254244592,15.283857192530089
104.0,691707753026.4781,28556691433.654907,0.9944510627920323,15.362074402570157
105.0,838700363238.4459,34363158382.38015,0.9947736282023422,15.44211193162711
106.0,1015553307535.094,41284108454.954056,0.9950792929251319,15.524009295005829
107.0,1227900294000.75,49529566210.80454,0.9953687258114882,15.607807174090595
108.0,1482400943617.3347,59353350164.54992,0.9956425907098551,15.693547412181395
109.0,1786943992759.6775,71062190431.23027,0.995901544140064,15.781273006569753
110.0,2150889003367.7031,85025935577.95343,0.9961462332166393,15.87102809658722
111.0,2585349675471.9814,101688763607.94882,0.9963772938113479,15.962857947333426
112.0,3103520589802.703,121581267549.15678,0.9965953489457493,16.056808928689634
113.0,3721048365757.9834,145333295975.6833,0.9968010073995456,16.152928489561802
114.0,4456445095056.682,173687368630.71155,0.9969948625288814,16.25126512665563
115.0,5331545500055.237,207512709592.6651,0.997177491268738,16.351868348300705
116.0,6372004785088.57,247819922411.21942,0.9973494533221346,16.454788632025714
117.0,7607830886483.489,295776794390.2261,0.9975112905199885,16.56007737610842
118.0,9073958296092.49,352726044215.05273,0.9976635263220712,16.667786845472943
119.0,10810864066154.406,420205641881.9112,0.9978066654730098,16.777970110383603
120.0,12865227348134.002,499972980983.8439,0.9979411937872036,16.89068097862319
121.0,15290651192983.133,594034361303.39,0.9980675780329615,17.005973921356357
122.0,18148455245308.285,704680089602.6178,0.9981862659562961,17.123903990754197
123.0,21508567699076.15,834527669517.9889,0.9982976863585482,17.244526731688936
124.0,25450514012256.098,986572546741.3607,0.9984022492996882,17.3678980850134
125.0,30064565233051.055,1164248656765.534,0.9985003463366995,17.494074284263316
126.0,35453004880039.61,1371498102999.936,0.9985923508570844,17.623111744432137
127.0,41731613517829.41,1612850394415.9421,0.9986786184532698,17.755066943533443
128.0,49031319019101.266,1893511882388.7478,0.9987594873390235,17.889996296704815
129.0,57500045973119.63,2219463167827.2974,0.998835278823182,18.027956023111358
130.0,67304791364005.7,2597564620643.0547,0.9989062978037588,18.16900200576669
131.0,78633892340768.8,3035669237669.049,0.9989728332814288,18.313189644045906
132.0,91699461294078.95,3542739300097.6514,0.9990351589097407,18.460573699998392
133.0,106740019083407.1,4128965845129.017,0.9990935335526826,18.611208138258498
134.0,124023251918512.03,4805890474971.516,0.9991482018428255,18.765145959229812
135.0,143848837648995.5,5586525620670.471,0.9991993947568186,18.922439027290928
136.0,166551363549340.78,6485472898666.487,0.9992473301888348,19.08313789369588
137.0,192503229087937.25,7519039859315.665,0.9992922135207207,19.247291614721632
138.0,222117521244664.38,8705355033442.698,0.9993342381874819,19.414947565707617
139.0,255850855833596.94,10064482137864.871,0.9993735862355747,19.58615125163944
140.0,294206007264620.8,11618538253347.615,0.9994104288678647,19.760946114175876
141.0,337734585206397.3,13391813068460.61,0.9994449269832612,19.93937333760495
142.0,387039501447306.56,15410897480438.088,0.9994772316982273,20.121471652522647
143.0,442777405123201.4,17704821114550.67,0.999507484855804,20.307277139273683
144.0,505660829320883.7,20305207121998.445,0.9995358195146649,20.496823030107834
145.0,576460608129559.5,23246437137511.637,0.9995623604273064,20.690139513692756
146.0,656008043682280.2,26565837694259.69,0.9995872244979593,20.887253540443638
147.0,745197200333268.4,30303884383366.273,0.999610521223472,21.08818863038858
148.0,844987139073031.0,34504427584829.465,0.999632353114934,21.292964683418226
149.0,956404233268129.8,39214933696280.625,0.999652816105723,21.50159779626022
150.0,1080544859134210.0,44486749699229.984,0.9996719999303078,21.714100076382547
151.0,1218578193355354.5,50375371251911.195,0.9996899885004202,21.930479470843327
152.0,1371748731790004.2,56940729023280.336,0.9997068602581775,22.15073959969154
153.0,1541379131423127.2,64247495561175.03,0.9997226884995429,22.37487958430275
154.0,1728874171854857.0,72365364409562.31,0.9997375416989572,22.602893897027805
155.0,1935723083975553.0,81369347732064.19,0.9997514838139611,22.834772220071557
156.0,2163503684455201.5,91340079553848.52,0.9997645745543392,23.0704992874279
157.0,2413885644145712.0,102364064285609.55,0.9997768696691463,23.31005477576871
158.0,2688633409467608.5,114533979259088.0,0.9997884211830292,23.553413159575854
159.0,2989611305222350.0,127948861408844.58,0.9997992776526436,23.800543621368906
160.0,3318785321165920.0,142714390166599.0,0.9998094843759132,24.051409923646062
161.0,3678228922362541.0,158943019616554.16,0.9998190836196391,24.305970338895754
162.0,4070123894735759.0,176754243966390.38,0.999828114801808,24.564177533134064
163.0,4496765784742207.0,196274666946294.25,0.9998366147002345,24.825978532275297
164.0,4960567775719119.0,217638218039456.88,0.9998446176064347,25.091314606347098
165.0,5464062262585856.0,240986254406518.53,0.9998521555077928,25.360121251863706
166.0,6009906548637960.0,266467683884941.97,0.9998592582360737,25.632328127812883
167.0,6600885344845256.0,294239147999261.06,0.9998659536062703,25.907858995598758
168.0,7239914189885817.0,324465122805254.0,0.9998722675625938,26.1866317163219
169.0,7930045731436836.0,357318054415512.5,0.9998782243034479,26.468558220907955
170.0,8674473856359502.0,392978608444781.94,0.9998838463913259,26.75354445839015
171.0,9476535917803354.0,431635886221450.44,0.9998891548714672,27.041490411221048
172.0,1.0339721191031722e+16,473487647711072.8,0.9998941693750707,27.332290086291348
173.0,1.12676770081881e+16,518740628153913.9,0.9998989082152313,27.625831510733374
174.0,1.2264217826992452e+16,567610908104573.8,0.9999033884744439,27.92199671891617
175.0,1.3333328698174016e+16,620324414021938.6,0.9999076260894371,28.22066176126412
176.0,1.4479178586262972e+16,677117352622764.8,0.9999116359311919,28.521696717040687
177.0,1.5706130058389408e+16,738236814990606.9,0.9999154318773329,28.824965700426702
178.0,1.7018751411154094e+16,803941441195779.0,0.9999190268800633,29.130326869474423
179.0,1.84218316343254e+16,874502140670356.9,0.9999224330301127,29.437632439617786
180.0,1.9920392452366636e+16,950203040778301.1,0.9999256616132729,29.74672867642045
181.0,2.1519708420844356e+16,1031342342601339.8,0.9999287231677336,30.05745591876707
182.0,2.3225325452098e+16,1118233405337858.2,0.9999316275341843,30.369648577673445
183.0,2.5043082051874984e+16,1211205911467834.2,0.9999343839034136,30.683135139583015
184.0,2.697913303890474e+16,1310607146859456.8,0.9999370008604618,30.997738165197966
185.0,2.9039975470372516e+16,1416803407810494.5,0.9999394864257241,31.313274284892238
186.0,3.123247962707806e+16,1530181509874978.0,0.9999418480931076,31.629554187506425
187.0,3.3563914389240056e+16,1651150549936852.5,0.9999440928654927,31.94638260885236
188.0,3.6041988509311416e+16,1780143625592864.2,0.9999462272878649,32.263558309839816
189.0,3.867488662793694e+16,1917619847169921.2,0.9999482574779013,32.58087405077466
190.0,4.147131111376629e+16,2064066482574026.5,0.999950189154459,32.89811655916329
191.0,4.444052785234266e+16,2220001276221374.2,0.9999520276640405,33.215066491046024
192.0,4.759241628998684e+16,2385974964090999.5,0.9999537780053714,33.5314983856173
193.0,5.093752423477306e+16,2562573994165842.0,0.999955444852236,33.84718061327567
194.0,5.448712768394561e+16,2750423473365087.5,0.9999570325746753,34.161875316939906
195.0,5.825329620130957e+16,2950190355017204.0,0.9999585452586638,34.47533834671382
196.0,6.224896438147601e+16,3162586903781500.5,0.9999599867243745,34.78731918819968
197.0,6.648801000361581e+16,3388374445257088.0,0.9999613605431257,35.0975608847713
198.0,7.098533950877184e+16,3628367430048347.0,0.9999626700531022,35.40579995426635
199.0,7.57569815310196e+16,3883437848656617.5,0.999963918373935,35.71176630069296
200.0,8.082018930280845e+16,4154520027983663.5,0.999965108420214,36.015183121693454
201.0,8.619355284887819e+16,4442615844407769.0,0.9999662429140108,36.315766812668876
202.0,9.18971219728094e+16,4748800405302345.0,0.9999673243964735,36.613226868643345
203.0,9.795254120051173e+16,5074228243482367.0,0.9999683552385579,36.907265785139195
204.0,1.043831979489879e+17,5420140059659446.0,0.9999693376509502,37.197578959543705
205.0,1.1121438532808203e+17,5787870090778303.0,0.9999702736932362,37.4838545946779
206.0,1.184734811767569e+17,6178854163227526.0,0.9999711652823613,37.76577360652981
207.0,1.2619014511720456e+17,6594638503228834.0,0.9999720142004292,38.04300953839043
208.0,1.343965356235173e+17,7036889374885227.0,0.9999728221018785,38.31522848393239
209.0,1.4312754931709674e+17,7507403681319975.0,0.9999735905200743,38.58208902210185
210.0,1.5242108505797146e+17,8008120569669450.0,0.9999743208733484,38.84324216705467
211.0,1.6231833559624963e+17,8541134187562394.0,0.9999750144705207,39.09833133676096
212.0,1.7286410995406726e+17,9108707717780700.0,0.9999756725159282,39.34699234432937
213.0,1.8410719010725408e+17,9713288823044814.0,0.9999762961139865,39.58885341656527
214.0,1.9610072592867107e+17,1.0357526681842524e+16,0.9999768862733085,39.82353524477616
215.0,2.0890267293432768e+17,1.1044290806740186e+16,0.9999774439103972,40.0506510733744
216.0,2.2257627791805955e+17,1.1776691804690192e+16,0.9999779698529346,40.269806832399794
217.0,2.3719061816678906e+17,1.2558104350258374e+16,0.9999784648426765,40.480601320692486
218.0,2.5282120073585942e+17,1.3392192631451058e+16,0.999978929537972,40.68262644708637
219.0,2.6955062910535814e+17,1.4282938565384308e+16,0.9999793645159138,40.875467537660114
220.0,2.8746934551547738e+17,1.5234673100366444e+16,0.9999797702741319,41.05870371777025
221.0,3.066764582989797e+17,1.625211105484784e+16,0.9999801472322339,41.231908378289255
222.0,3.272806649836123e+17,1.7340389875488162e+16,0.9999804957328998,41.39464973616806
223.0,3.494012831979889e+17,1.850511280416255e+16,0.9999808160426309,41.54649150012118
224.0,3.731694031472969e+17,1.975239705749239e+16,0.9999811083521548,41.686993652872495
225.0,3.987291773508484e+17,2.10889276512024e+16,0.999981372776485,41.81571336197556
226.0,4.2623926550680486e+17,2.2522017621627116e+16,0.9999816093546299,41.932206031701696
227.0,4.558744549167484e+17,2.4059675479986148e+16,0.9999818180489463,42.036026508835626
228.0,4.8782747981171085e+17,2.571068083742667e+16,0.9999819987441287,42.126730455386
229.0,5.223110661548147e+17,2.748466948781543e+16,0.9999821512458246,42.20387590115604
230.0,5.5956023287203904e+17,2.9392228958938004e+16,0.9999822752788597,42.26702498876666
231.0,5.998348843729427e+17,3.1445006164518624e+16,0.9999823704850636,42.31574592301533
232.0,6.434227410639054e+17,3.365582914323776e+16,0.9999824364206472,42.34961513759365
233.0,6.906425935839452e+17,3.60388435441252e+16,0.9999824725531208,42.36821965867256
234.0,7.418481494534033e+17,3.860966766116786e+16,0.9999824782580479,42.37115978768059
235.0,7.974321691032808e+17,4.138556906842025e+16,0.9999824528147079,42.358051901687915
236.0,8.578312752264858e+17,4.438566257179479e+16,0.9999823954017295,42.32853155546776
237.0,9.235313887085146e+17,4.763113580263398e+16,0.9999823050920141,42.28225679932271
238.0,9.950739056367438e+17,5.114550554893692e+16,0.999982180847065,42.218911717543726
239.0,1.0730627285459443e+18,5.49549091763659e+16,0.9999820215106913,42.13821017205114
240.0,1.158172337215459e+18,5.908843859175544e+16,0.9999818258019548,42.039899753620816
241.0,1.2511569525748378e+18,6.3578521353355336e+16,0.9999815923073467,41.92376587218195
242.0,1.3528609490573932e+18,6.846135094195959e+16,0.9999813194723907,41.789635922413
243.0,1.464230809389421e+18,7.377738069182802e+16,0.9999810055922943,41.637383527929956
244.0,1.586328819781937e+18,7.957188874932418e+16,0.9999806488016784,41.46693278608232
