Time,J,A,S,tau
0.0,100.0,10.0,0.9297723905885642,20.641463881674497
1.0,99.96948120915228,9.04305473291869,0.9295647167412513,21.639659784733457
2.0,99.93998252090113,8.177706214012842,0.9293612028554459,22.638119974742455
3.0,99.91147563866157,7.395445078615056,0.9291616509190581,23.6366939598533
4.0,99.88387465825795,6.68828578506757,0.9289658417992651,24.635369216563195
5.0,99.85710157614865,6.049002757797148,0.9287735621747083,25.634134679397345
6.0,99.83108534378246,5.471074860564529,0.9285846044854132,26.632980552816612
7.0,99.805761011711,4.948601930496808,0.9283987668030377,27.631898142702923
8.0,99.7810690018109,4.476258253972501,0.9282158526730834,28.63087971405342
9.0,99.75695446497873,4.049225755654075,0.9280356709187034,29.62991836655302
10.0,99.73336671467412,3.663154527569855,0.9278580354106324,30.62900792603665
11.0,99.71025874003776,3.3141099660392186,0.9276827648319611,31.628142851964014
12.0,99.68758676004379,2.998538810943142,0.9275096824017184,32.627318153979324
13.0,99.66530984940651,2.7132278106463943,0.9273386156176004,33.62652932241337
14.0,99.64338958343869,2.4552741850924313,0.9271693959520356,34.62577226357047
15.0,99.62178974538348,2.2220537054129434,0.9270018585827307,35.62504324677895
16.0,99.60047603972971,2.011194806250763,0.9268358420747802,36.62433885367034
17.0,99.57941585776123,1.820554264968499,0.9266711881041871,37.62365593702498
18.0,99.55857804249537,1.6481944172248288,0.9265077411355721,38.6229915804718
19.0,99.53793269511593,1.4923648505884408,0.9263453481408682,39.62234306561032
20.0,99.51745097849853,1.3514824423145793,0.9261838582790428,40.62170783938207
21.0,99.49710495143013,1.2241175545846708,0.926023122610559,41.621083486829534
22.0,99.47686740020612,1.1089768370087507,0.925862993782794,42.62046770394984
23.0,99.45671169068203,1.004892659810047,0.9257033257405002,43.61985827408558
24.0,99.43661161895942,0.9108085545802251,0.9255439734181077,44.61925304442796
25.0,99.41654127349432,0.82577097035899,0.9253847924466754,45.6186499044627
26.0,99.39647489683257,0.7489171350617725,0.9252256388524035,46.61804676451495
27.0,99.37638675132665,0.6794684907357641,0.9250663687609787,47.61744153492739
28.0,99.35625098433708,0.6167207115802514,0.924906838100419,48.61683210515165
29.0,99.33604149175503,0.5600383678841586,0.9247469023041874,49.616216322451216
30.0,99.31573177906591,0.5088468232108668,0.9245864160158871,50.61559197004712
31.0,99.2952948169351,0.4626278132336225,0.9244252327930321,51.61495674413387
32.0,99.27470289001158,0.420912952218769,0.924263204811089,52.61430822947624
33.0,99.253927438325,0.3832800090692976,0.9241001825703574,53.61364387340495
34.0,99.23293888463576,0.34934777328257155,0.923936014597446,54.6129609570235
35.0,99.21170645425646,0.3187728776432694,0.9237705471583756,55.612256564598674
36.0,99.19019797003362,0.2912458006902054,0.9236036239568605,56.611527548149404
37.0,99.16837964130517,0.2664881321832183,0.9234350858575844,57.61077049023375
38.0,99.14621581308363,0.24424951912739168,0.923264770582767,58.60998165912311
39.0,99.12366871194848,0.22430530258122933,0.9230925124507122,59.609156962357794
40.0,99.10069813319625,0.20645419335790327,0.9229181420762466,60.60829188903578
41.0,99.077261124889,0.19051641592153024,0.9227414861281026,61.60738145018463
42.0,99.05331159433707,0.17633178177104025,0.922562367046367,62.606420104024025
43.0,99.02879990056157,0.16375837143462454,0.9223806028204627,63.605401676976335
44.0,99.00367237110233,0.15267082436236887,0.9221960067588025,64.60431926924345
45.0,98.97787074374618,0.14295959585992193,0.9220083872738816,65.6031651445484
46.0,98.95133157262316,0.13452975306549644,0.9218175477364983,66.6019306109462
47.0,98.923985490369,0.12730014362001793,0.9216232863123061,67.6006058723162
48.0,98.89575639211596,0.12120299234121035,0.9214253958729723,68.5991798620227
49.0,98.86656053515003,0.11618321323645668,0.9212236639821276,69.59764005743077
50.0,98.83630543378122,0.11219822831387428,0.9210178729036006,70.59597225161315
51.0,98.80488863955837,0.10921781114299696,0.92080779972338,71.59416029874261
52.0,98.77219641546839,0.10722393437328416,0.9205932165842048,72.59218583494889
53.0,98.73810132652098,0.10621293920495535,0.9203738908270948,73.59002777758529
54.0,98.70246174274365,0.1061932472474665,0.9201495858594484,74.58766220240682
55.0,98.66511837472507,0.107187065126648,0.9199200614687664,75.58506162058495
56.0,98.62589218964109,0.10923231306582235,0.9196850748196802,76.58219452507345
57.0,98.58458126936058,0.11238282683061508,0.9194443815572022,77.57902471543626
58.0,98.54095726378783,0.11671095005285843,0.9191977372313891,78.57551053154248
59.0,98.49476147062671,0.12230897046975099,0.918944899060663,79.57160400158705
60.0,98.44569986810941,0.12929167199654729,0.9186856281480686,80.56724976268282
61.0,98.39343746316858,0.1377997807435442,0.9184196922240225,81.562383827039
62.0,98.33759206524114,0.1480031975835039,0.918146868902614,82.55693221638538
63.0,98.2777263686879,0.16010517632790244,0.917866949777045,83.5508092257866
64.0,98.2133393928321,0.17434752143196858,0.9175797451896938,84.54391553741686
65.0,98.14385580162715,0.19101681472949275,0.9172850901717109,85.53613586624019
66.0,98.06861414856152,0.21045087146610475,0.916982851320328,86.52733635864567
67.0,97.98685281760068,0.23304740794481887,0.9166729350943855,87.51736147800804
68.0,97.89769349741252,0.25927342877851745,0.9163552977528618,88.50603033654494
69.0,97.80012288831804,0.28967584465474927,0.9160299566723447,89.49313262387278
70.0,97.6960044975959,0.32968680346664203,0.9156970040745691,90.47842367312825
71.0,97.60159026880612,0.40490196996410444,0.9153566226401144,91.46161895304242
72.0,97.5012633502045,0.49086317130705065,0.9150091037932655,92.44238765461988
73.0,97.394632918205,0.5892625795218277,0.9146548684639417,93.42034547878707
74.0,97.28133264602612,0.7020622937004892,0.9142944909261724,94.39504639093455
75.0,97.16104551260891,0.8315336717789948,0.9139287252743268,95.36597352269483
76.0,97.03353820449468,0.9803008399737136,0.9135585348628948,96.33252907795439
77.0,96.89870811288722,1.151388036707154,0.9131851244909364,97.29402331063723
78.0,96.75664645594684,1.3482693321011443,0.9128099743769815,98.24966289544159
79.0,96.60772224874576,1.5749198711381949,0.9124348752744538,99.19853887080065
80.0,96.45269284439043,1.8358669461122565,0.9120619635113766,100.13961452420021
81.0,96.2928470480513,2.136237287255037,0.9116937534538846,101.07171402967248
82.0,96.13018849873366,2.4817969216429803,0.9113331647718909,101.99351265255609
83.0,95.96766803263525,2.8789788777189793,0.9109835411193185,102.9035295821344
84.0,95.80947316789015,3.3348923922240465,0.9106486557100774,103.80012482982254
85.0,95.66138369845025,3.8573067245855244,0.9103326988407191,104.68150175702328
86.0,95.53119994266439,4.454602039171729,0.910040241933674,105.54571695617086
87.0,95.42924840992156,5.135680068172932,0.9097761728640188,106.39069915700877
88.0,95.36896641088047,5.909828938023489,0.9095455984541045,107.21427845762076
89.0,95.36755587094535,6.786539028736689,0.9093537117909049,108.01422664045181
90.0,95.44670097964439,7.775270540129729,0.9092056247153393,108.78830843735983
91.0,95.63331909848183,8.885179387247504,0.9091061701653004,109.53434231128941
92.0,95.9603030946974,10.124816752084875,0.9090596851968772,110.25026733740869
93.0,96.46727034389646,11.50181253861114,0.9090697813728211,110.93421374401952
94.0,97.20115741152885,13.022585562469366,0.9091391343168439,111.58456771904213
95.0,98.21679184482527,14.69207609181706,0.9092692873476689,112.2000310217873
96.0,99.57723174270299,16.513554831443415,0.9094605096467417,112.7796635568979
97.0,101.35393336697315,18.4885132217091,0.9097117117006384,113.32290756551997
98.0,103.62673623772078,20.616642562910812,0.9100204235098609,113.82959171501213
99.0,106.48367896403417,22.89590014670777,0.9103828343044122,114.29991545344845
100.0,110.02062166495463,25.322660365496844,0.9107938927233838,114.73441418176775
101.0,114.34071634292637,27.891933354112833,0.9112474557678402,115.13390920793725
102.0,119.55379784720216,30.59761815577181,0.9117364623330552,115.4994498545741
103.0,125.7757204458861,33.43277131023826,0.9122531180018683,115.83225206634367
104.0,133.12766056286912,36.38987187197383,0.9127890773495886,116.13363782068919
105.0,141.73538962420952,39.46106721221737,0.913335613924584,116.40497903431736
106.0,151.7285748247484,42.63838242703079,0.9138837646380265,116.64764966360744
107.0,163.24010163671994,45.91389025480383,0.9144244464498437,116.8629867124407
108.0,176.40541561391177,49.27984163327464,0.9149485451270457,117.0522600563994
109.0,191.36185971014706,52.7287572356042,0.9154469772687622,117.21665117767114
110.0,208.24802419324038,56.25348326488187,0.9159107277784342,117.35723995101397
111.0,227.20309302844657,59.84721912431331,0.9163308675430454,117.47499770088308
112.0,248.36617228133125,63.503522876347645,0.9166985556697359,117.57078517570746
113.0,271.8755780876701,67.21629940329427,0.917005029875305,117.64535442336603
114.0,297.86810050367336,70.97977434304491,0.9172415883713048,117.69935396406753
115.0,326.4782299453109,74.78846078420914,0.9173995670443129,117.73333551820035
116.0,357.8373202266587,78.6371222714904,0.9174703140530831,117.74776149113539
117.0,392.0727157808925,82.52073216714696,0.9174451636427301,117.74301333719386
118.0,430.29298024460377,85.3647333302472,0.9332804524597672,42.833305253347
119.0,470.86939955413266,88.10312264042591,0.9373343200044646,31.57496165854337
120.0,512.7175481100373,92.658197763236,0.9375933722294935,28.025066763628
121.0,557.0590465490386,98.80484604684848,0.9368612523501192,25.94733694257593
122.0,604.8780611598899,106.60074272186723,0.9356126042269977,24.50163075780729
123.0,657.2125743895126,116.16824122364645,0.9340245634142819,23.402535940416865
124.0,715.2187450676454,127.65804055038336,0.9321837397300596,22.518977961315496
125.0,780.2007213168798,141.23612063782448,0.9301391985035253,21.78021593644769
126.0,853.6286917869907,157.07687103857415,0.9279214885158601,21.143980748268422
127.0,937.1508136919837,175.35841445148026,0.9255509191772296,20.58320725080493
128.0,1032.600414747481,196.2588552731146,0.9230416621184522,20.079687299272056
129.0,1141.998636324934,219.95296372254273,0.9204039876977141,19.62071212589071
130.0,1267.5529541482663,246.60906556644963,0.9176455738245991,19.197159197125323
131.0,1411.651364492592,276.3860794161763,0.9147723186007513,18.80233486411273
132.0,1576.8518232288463,309.43069201560456,0.91178886973928,18.43124083322324
133.0,1765.8670659396716,345.8746612742129,0.9086989838799094,18.080090688650298
134.0,1981.5447007163511,385.8322673265604,0.9055057794519189,17.745980818126142
135.0,2226.842808964728,429.3979303583108,0.9022119200886749,17.426660495499814
136.0,2505.411682826109,475.8030632168387,0.8988197519921924,17.120368252758535
137.0,2819.1984984701285,525.5063221552116,0.8953314070048318,16.825711820122184
138.0,3169.8757593149594,580.3314485953182,0.8917488848162352,16.54158104264581
139.0,3560.514354089611,642.075860520869,0.8880741166740582,16.26708228609001
140.0,3995.4936958698313,712.7206191631107,0.8843090166047766,16.001489040666023
141.0,4480.649854210147,794.473820367849,0.8804555228011064,15.744204549052272
142.0,5023.469383030811,889.7811110561456,0.8765156312352007,15.494733261954224
143.0,5633.291728451852,1001.3193086954459,0.8724914231525909,15.252658930728561
144.0,6321.499239535546,1131.9770813867,0.8683850874754357,15.017627678652822
145.0,7101.682197334162,1284.8244903515097,0.864198938888083,14.78933490786179
146.0,7989.7641205437585,1463.0726185515741,0.8599354325032084,14.567515153682615
147.0,9004.07513104555,1670.0242331535853,0.8555971754655011,14.351934177524456
148.0,10165.36444130024,1909.0167597723512,0.8511869358063396,14.142382791580172
149.0,11496.74022893098,2183.359438626477,0.8467076490811809,13.938672038984334
150.0,13023.813533430784,2495.895302514975,0.8421624228825131,13.740629415937157
151.0,14773.934436637404,2848.91382023959,0.8375545394741137,13.548095908383788
152.0,16774.264024668777,3246.5028947075307,0.8328874568730307,13.360923665373157
153.0,19053.098817294795,3694.8382658698556,0.8281648081496887,13.178974163534232
154.0,21641.403610466652,4202.330831155553,0.8233903994842376,13.002116762644784
155.0,24574.414594464728,4779.822604076373,0.8185682068744854,12.830227563820616
156.0,27893.372087535892,5440.746208477394,0.8137023716165244,12.663188505145687
157.0,31647.343091791412,6201.213579650578,0.8087971946865984,12.500886644305751
158.0,35895.0604018002,7080.011499288099,0.8038571300903525,12.343213587649164
159.0,40706.68244754566,8098.48929828134,0.7988867772634233,12.190065034270733
160.0,46165.365984791126,9280.330927944511,0.7938908726041779,12.041340410497536
161.0,52368.53968623752,10651.210938600903,0.7888742802171138,11.896942575436007
162.0,59428.89866190435,12238.180408993378,0.783841981944843,11.756777582389821
163.0,67474.92500635581,14068.520012182224,0.7787990667664882,11.620754484210728
164.0,76648.92314949534,16170.719381724872,0.7737507196404575,11.48878517319692
165.0,87105.33744692775,18576.730109075725,0.7687022098697838,11.360784248158156
166.0,99010.95721324411,21324.15983471171,0.763658879068361,11.23666890284293
167.0,112546.85551847903,24458.43136472737,0.758626128806346,11.116358831163122
168.0,127911.9830613179,28034.81507557655,0.7536094080131196,10.999776145633584
169.0,145328.26732969473,32120.19868024532,0.7486142002177383,10.886845306257232
170.0,165046.96781782748,36794.44943314956,0.7436460106867521,10.777493057437935
171.0,187355.89104430584,42151.23858744619,0.7387103535581324,10.671648371429253
172.0,212586.99069269357,48298.22403936341,0.7338127390312493,10.569242396876184
173.0,241123.91350044197,55356.37999623767,0.7289586606820261,10.47020841136671
174.0,273408.87676893227,63458.18310334243,0.7241535829710894,10.374481777179831
175.0,309946.6983121126,72746.63917410371,0.7194029290077724,10.281999899587905
176.0,351306.1733182692,83376.608400605,0.7147120686287578,10.192702187216263
177.0,398120.97474921873,95518.14244971129,0.7100863068456861,10.106530014077132
178.0,451091.9198523966,109361.4343746479,0.7055308727112005,10.023426682984535
179.0,510992.0516005887,125122.90257184453,0.701050908647762,9.943337390126874
180.0,578675.5538819409,143051.83279902342,0.6966514602781593,9.86620919062872
181.0,655091.0258948908,163436.9390291777,0.6923374667910438,9.791990964975863
182.0,741299.1119301507,186612.1944216513,0.6881137518691216,9.720633386211293
183.0,838493.996643815,212961.26177203923,0.6839850152011794,9.652088887858643
184.0,948027.9750187898,242919.73319513287,0.6799558245921246,9.586311632462483
185.0,1071436.7303077886,276975.7209564976,0.6760306086894936,9.523257480742476
186.0,1210462.8598953064,315670.8727921612,0.6722136503241802,9.462883961370908
187.0,1367077.2084328982,359603.54718661186,0.6685090804655435,9.405150241329867
188.0,1543499.2593260992,409435.20780885156,0.6649208727859689,9.350017096843988
189.0,1742218.915131388,465900.47168750135,0.6614528388243816,9.297446884883994
190.0,1966022.5067790824,529820.6588398584,0.6581086237337472,9.247403515238977
191.0,2218025.8743965863,602120.1805456661,0.6548917025935163,9.199852423156734
192.0,2501716.944542925,683844.7011843395,0.6518053772643015,9.154760542552362
193.0,2821009.551214343,776179.6566220312,0.648852773758875,9.112096279785293
194.0,3180309.1912437696,880467.6148208969,0.6460368401008134,9.071829488004644
195.0,3584589.634036147,998224.040086031,0.6433603446398652,9.03393144206205
196.0,4039478.271323638,1131152.53499335,0.6408258747913229,8.998374813990154
197.0,4551348.494091328,1281161.510481034,0.638435836162379,8.965133649050488
198.0,5127421.102273394,1450384.313372684,0.6361924520881481,8.934183342204218
199.0,5775866.797727072,1641205.4870704177,0.6340977632685957,8.905500615750155
200.0,6505933.483046016,1856293.1203154696,0.6321536280382755,8.879063496547301
201.0,7328080.969641688,2098639.396290052,0.6303617226745759,8.854851294188817
202.0,8254140.799449754,2371608.542104516,0.6287235419517668,8.832844579783103
203.0,9297502.031485165,2678991.6568948315,0.6272403998028581,8.813025165527074
204.0,10473338.578158002,3025066.5111931805,0.6259134302433135,8.795376084726167
205.0,11798869.204875689,3414661.9108625054,0.6247435884588398,8.77988157159723
206.0,13293658.035168357,3853227.2894720077,0.6237316519238151,8.76652704198442
207.0,14979959.694281181,4346908.950287538,0.6228782215997285,8.755299074595992
208.0,16883107.20237355,4902636.228959377,0.6221837231151164,8.746185392898726
209.0,19031966.42693635,5528219.469743097,0.6216484080878089,8.739174847501422
210.0,21459443.264869504,6232463.639769187,0.6212723555125746,8.734257398205067
211.0,24203060.951373715,7025301.290402061,0.6210554730878486,8.73142409683388
212.0,27305624.902379047,7917947.039237192,0.6209974985541998,8.730667070508538
213.0,30815980.880455963,8923076.590335235,0.6210980009632785,8.731979505429907
214.0,34789915.90896522,10055030.165006632,0.6213563820360489,8.735355631132386
215.0,39291186.00185393,11330042.330696804,0.6217718775723231,8.740790704294346
216.0,44392698.98668313,12766502.120088184,0.6223435587874105,8.748280993167917
217.0,50177884.58962543,14385246.278462289,0.623070333670595,8.757823762349657
218.0,56742258.04401805,16209892.513139198,0.6239509483050559,8.769417257904117
219.0,64195260.27285267,18267216.44407216,0.6249839882943747,8.783060692886705
220.0,72662352.1608147,20587579.398286343,0.6261678803052898,8.798754232319293
221.0,82287407.9062047,23205418.885907102,0.6275008935988018,8.816498978602807
222.0,93235477.92903607,26159809.30963932,0.6289811416587351,8.83629695715122
223.0,105695942.21107475,29495106.10188483,0.6306065838778967,8.858151102214512
224.0,119886209.984714,33261680.010344796,0.6323750274210354,8.882065242989727
225.0,136055951.87805662,37516750.303404264,0.6342841293192326,8.908044089085491
226.0,154491938.18386492,42325336.74520102,0.6363313986610047,8.936093216229052
227.0,175523629.49916983,47761341.1582108,0.6385141989903902,8.966219052061705
228.0,199529562.80667907,53908780.80065667,0.6408297508889307,8.998428861957809
229.0,226944804.81160748,60863188.15378336,0.6432751348247829,9.032730734990665
230.0,258269480.415008,68733191.37920879,0.6458472943539096,9.069133569159373
231.0,294078475.6936373,77642316.03892855,0.6485430395345151,9.10764705666285
232.0,335032605.6921073,87731029.7650326,0.6513590506494769,9.148281669122849
233.0,381891331.6125261,99159071.00816287,0.6542918822243977,9.191048642671417
234.0,435527494.1473128,112108093.39675921,0.6573379673836788,9.235959963028524
235.0,496944146.2601534,126784643.80949005,0.6604936226351465,9.283028349761127
236.0,567293592.2241776,143423548.54469818,0.6637550529504762,9.332267240410347
237.0,647899198.2278792,162291742.3783207,0.6671183572038757,9.383690774434877
238.0,740280118.6350687,183692608.09424114,0.6705795339605837,9.437313776880494
239.0,846179704.7773843,207970882.63309717,0.6741344876194675,9.493151741891916
240.0,967597829.1767268,235518146.3630461,0.6777790349753354,9.551220815353124
241.0,1106827135.972896,266779029.36664003,0.6815089120919435,9.611537777263782
242.0,1266494251.9295478,302258186.7581567,0.6853197815027411,9.674120023831163
243.0,1449606141.7392018,342528150.16289175,0.6892072397300272,9.73898554920109
244.0,1659602778.9783187,388238156.7888858,0.6931668250975134,9.806152926933375
245.0,1900416614.2397885,440123958.23247135,0.6971940258509607,9.875641290615048
246.0,2176538484.355011,499018828.5464552,0.7012842885204126,9.947470314178428
247.0,2493091733.499335,565865846.7969888,0.705433026491832,10.021660191920109
248.0,2855914644.1879606,641731610.5339985,0.7096356287759152,10.098231618186992
249.0,3271652793.248598,727821532.803496,0.7138874689333503,10.177205766838219
250.0,3747862159.607179,825496668.8734295,0.7181839141053349,10.258604269997615
