Time,J,A,S,tau
0.0,100.0,10.0,0.9598512090914593,15.564074085755362
1.0,98.92248934519395,11.63281610813558,0.9586777872523384,16.33220100107015
2.0,97.97690621742704,13.223919127621553,0.9575029970932486,17.10358683426852
3.0,97.1551646035544,14.775232822713008,0.9563277460723125,17.8775693877174
4.0,96.4493340397682,16.28842887159921,0.955152175280729,18.6540126004728
5.0,95.85223513131497,17.76511592396432,0.9539764178101833,19.4327832847575
6.0,95.35736627745709,19.20684408065466,0.9528005993301765,20.213750923813148
7.0,94.95882995497527,20.61510964578595,0.9516248387847112,20.99678742561048
8.0,94.65133270837873,21.99135342946391,0.9504492482861476,21.781767165546977
9.0,94.43013383399521,23.33696422823169,0.949273933568961,22.568566825143005
10.0,94.29094966350769,24.653286729094035,0.9480989950740757,23.357065002066793
11.0,94.23001223672836,25.94161454065828,0.9469245272584977,24.14714246192027
12.0,94.24396205345889,27.203200442983054,0.9457506197851551,24.938681705559375
13.0,94.32986523562583,28.43925561197764,0.9445773575175941,25.731566974020687
14.0,93.63871916709373,28.362685909779753,0.9434048211335628,26.525684019637463
15.0,91.94063462145479,26.823528841964823,0.942233087217004,27.320920073103892
16.0,90.25518594439053,25.438222585642208,0.9410622287339931,28.117163666693223
17.0,88.58148235895582,24.19124673541491,0.939892315358976,28.914304511275585
18.0,86.91864577118655,23.068716502350146,0.9387234138129209,29.71223336816935
19.0,85.26581058741994,22.058217785671797,0.9375555882008687,30.51084192038711
20.0,83.62212270352268,21.14863912178555,0.9363889003388778,31.310022646796927
21.0,81.98673853707406,20.330039542590043,0.9352234100717062,32.109668698612296
22.0,80.3588240270418,19.593533769832735,0.9340591755959089,32.90967377314372
23.0,78.73755363916176,18.931177715495355,0.9328962537788759,33.70993198831927
24.0,77.12210940831683,18.335855680378497,0.931734700469842,34.510337759129555
25.0,75.51168000245801,17.801209891065515,0.9305745708078234,35.31078567412996
26.0,73.90545975838796,17.32155047637429,0.9294159195306299,36.11117037118557
27.0,72.30264775087214,16.89178081241701,0.9282588012778049,36.91138641442032
28.0,70.7024468761401,16.507354414103684,0.9271032708949669,37.71132816930841
29.0,69.10406291366495,16.164199182479333,0.9259493837336721,38.51088967958018
30.0,67.50670361789543,15.858667883446758,0.9247971959476752,39.30996454435834
31.0,65.90957780833584,15.587511608857145,0.9236467648018534,40.1084457883633
32.0,64.31189446012004,15.34781779018109,0.9224981489559171,40.906225743643716
33.0,62.71286179170077,15.13698620589293,0.9213514087801465,41.70319591490187
34.0,61.11168638641126,14.95269479013337,0.9202066066270168,42.499246865078184
35.0,59.50762214227616,14.792973632521765,0.9190638071562769,43.29426807522082
36.0,58.63752148155787,15.75397241048053,0.9179230775998214,44.0881478305871
37.0,58.09260227124249,17.07652513362027,0.9167844880376518,44.88077310206497
38.0,57.64083559481453,18.391540888200456,0.915648111846309,45.67202934827687
39.0,57.28431036150996,19.69979865303871,0.91451402576567,46.461800489472616
40.0,57.02548053990629,21.00206851772883,0.9133823104400874,47.24996866879097
41.0,56.86716239817506,22.29911350408664,0.9122530506408096,48.036414150190645
42.0,56.81253187021727,23.591690159359114,0.9111263352847241,48.8210153190627
43.0,56.86519375700459,24.88054922054353,0.9100022584654334,49.60364821063024
44.0,57.02911716514056,26.166437103365638,0.9088809187050201,50.3841868577401
45.0,57.30874694835995,27.45009606374698,0.9077624204470696,51.162502609602136
46.0,57.708929368959765,28.732265593481166,0.9066468731557479,51.9384645437542
47.0,58.23502730973467,30.013682902734928,0.905534392813149,52.71193879010011
48.0,58.89288800179209,31.29508381642663,0.9044251014971603,53.482788717682716
49.0,59.68885526506845,32.5772035845412,0.9033191275396173,54.25087486678622
50.0,60.629887808193835,33.86077771275791,0.9022166069590931,55.01605429747968
51.0,61.723473282044665,35.14654239478433,0.9011176823074616,55.7781811100366
52.0,62.97773629928199,36.435235473567666,0.9000225039474246,56.537105866651714
53.0,64.40147428430181,37.72759716099497,0.8989312303582028,57.292675450522
54.0,66.00417035732647,39.02437050344109,0.8978440281409535,58.04473306094142
55.0,67.79602914128105,40.32630202362674,0.8967610723093998,58.7931180803928
56.0,69.78805384947464,41.63414266519381,0.8956825470182087,59.5376657426392
57.0,71.99208661992034,42.94864808467102,0.8946086457732492,60.278207033198484
58.0,74.42083152389687,44.27057910561318,0.8935395714791512,61.01456866628088
59.0,77.08791668184558,45.60070246044761,0.8924755369112141,61.74657286916945
60.0,80.0079991240899,46.93979162520751,0.8914167655373633,62.47403700593077
61.0,83.19675808001361,48.28862646988646,0.8903634911225617,63.19677375367702
62.0,86.67099762804452,49.647994276799906,0.8893159585032879,63.91459074985207
63.0,90.44870178482549,51.01868999899468,0.8882744237922394,64.62729049698547
64.0,94.54911017840213,52.401516684793734,0.8872391547580071,65.33467018839646
65.0,98.99280154216957,53.797285833832134,0.8862104312220157,66.03652152606058
66.0,103.80176583254165,55.20681755083093,0.8851885453068435,66.73263060638426
67.0,108.99948605880046,56.630940820086295,0.8841738017489095,67.42277777756634
68.0,114.61102847133411,58.070493729443484,0.8831665182376136,68.10673748526794
69.0,121.42554195160133,58.72721487609068,0.8831754795596638,68.06687570945867
70.0,128.7876127960052,59.174679001735726,0.8837447655104284,67.62471851330888
71.0,136.30441427454682,59.845371482207526,0.8843849769364951,67.12780868446549
72.0,144.02843831011106,60.7403780346648,0.8850986539279903,66.57431818702278
73.0,152.01664336447058,61.861317932198055,0.8858881755976948,65.96258017884729
74.0,160.3308274241874,63.210486906780616,0.8867556985805655,65.2911431605771
75.0,169.03804003246393,64.7910260205639,0.8877030873234588,64.5588318829595
76.0,178.21104789664324,66.60711994219747,0.888731836938317,63.764814138800766
77.0,188.81005799842916,67.75869661307465,0.8898429887450856,62.908673123327056
78.0,201.9786051640535,66.76276433207615,0.8910370516465014,61.99047301413575
79.0,215.4309758963353,65.77219824928356,0.8923139128948742,61.01083344699669
80.0,229.17372293780915,64.78700069402828,0.8936726927514146,59.97104872649608
81.0,243.2131909823841,63.80717917668985,0.8951118430484272,58.87299681629987
82.0,257.55542410589675,62.83274710479582,0.8966287855074804,57.71943434336124
83.0,272.2061957299801,61.86372390889799,0.8982202291928599,56.51371901769217
84.0,287.1709547163201,60.90013352450263,0.8998818672244893,55.26004358612976
85.0,302.4548099583065,59.94200537306894,0.9016085753731836,53.96325654972821
86.0,318.06242221084466,58.989375108715485,0.9033943053051869,52.628917589723514
87.0,333.5829818334415,58.469549308745805,0.9052323254090076,51.26308618153074
88.0,347.91014389856593,59.914433978225695,0.9071152276897617,49.872281201282455
89.0,362.8378400399853,61.89136115355684,0.9090351162919946,48.46330430064521
90.0,378.55428222442134,64.44279445315335,0.9109837681394992,47.04308683818826
91.0,395.27809360958986,67.6176684582805,0.9129528092647445,45.61852889248727
92.0,413.26387778869906,71.47180865908761,0.914933894524911,44.19634106382911
93.0,432.8083166458397,76.06819058785358,0.9169188769633144,42.78290409248134
94.0,454.2577476282579,81.47719901164389,0.9188999618902379,41.384146399355735
95.0,478.0162194367837,87.77681588015159,0.9208698366118635,40.00544901094997
96.0,504.55439308593645,95.05263584138437,0.9228217682482703,38.651583406853824
97.0,534.4202868505088,103.39789621617872,0.9247496793710172,37.32667012234879
98.0,568.2499202988346,112.91340507368068,0.9266481873055322,36.03417077281408
99.0,606.7793518399052,123.70732538643561,0.9285126179753423,34.77690192117377
100.0,650.858722124359,135.89495897756177,0.9303390034946231,33.55706135737716
101.0,701.472938782394,149.59059609060265,0.9321240507369581,32.376276800539635
102.0,760.0925941127658,164.48548624053433,0.9338651049460457,31.235656222518422
103.0,827.7991768276787,180.62504159618257,0.9355600987973376,30.13584710679489
104.0,905.5489092151489,198.4110150225602,0.9372074969313781,29.077096173561696
105.0,994.5987814757732,218.26756848890975,0.938806238811529,28.059307512781924
106.0,1097.7114155851066,239.17980936625267,0.9403556811555517,27.082098064861093
107.0,1216.8690011937235,260.2867070459356,0.9418555425331544,26.14484868173393
108.0,1353.1034197121658,281.564280624829,0.9433058490795215,25.246751581414355
109.0,1507.4668021072662,302.98530910630836,0.9447068882850035,24.386850045662396
110.0,1681.0261088353027,324.51963407085003,0.9460591637031529,23.56407497698101
111.0,1874.319370367864,346.78363184218716,0.9473633568966683,22.77727502462867
112.0,2087.6834879042167,371.61222416607313,0.9486202946844672,22.025241395072467
113.0,2323.3094573275425,400.09244264000006,0.94983091596906,21.30673158100099
114.0,2584.2723259751147,433.48366762736356,0.9509962476194472,20.62048610385942
115.0,2874.7328853837816,473.288112671377,0.9521173821686912,19.96524318193436
116.0,3200.2301743527537,521.2894018244506,0.9531954591179399,19.33975037635053
117.0,3568.0378409467226,579.5905094048588,0.9542316492289842,18.74277378612723
118.0,3987.5903358593673,650.6497278456687,0.9552271414426471,18.173105169749736
119.0,4470.990424557244,737.3063803533227,0.956183132079231,17.629567333029325
120.0,5033.87642422394,842.3836176450802,0.9571008159671176,17.111018099264896
121.0,5695.492152791189,968.7810323852029,0.957981379303557,16.616353065990246
122.0,6478.713888234246,1120.2723201732788,0.958825993935741,16.14450740716791
123.0,7412.595503271338,1299.2503509740184,0.9596358128533377,15.69445689742234
124.0,8530.931846427498,1506.7142681115952,0.9604119667028913,15.265218312673797
125.0,9870.576230059305,1743.5143807385496,0.9611555611581261,14.855849337318913
126.0,11470.94939875572,2010.9097555068668,0.9618676750076092,14.465448083754955
127.0,13373.187533811186,2313.3062060699394,0.9625493588239169,14.093152322190734
128.0,15623.940924213792,2658.2873797334546,0.9632016341168637,13.738138486818597
129.0,18279.120109862586,3056.874572686416,0.9638254928785496,13.399620525038609
130.0,21408.14708903623,3524.4170045067885,0.964421897527356,13.07684858003034
131.0,25099.619853012027,4081.6254175145095,0.9649917810340078,12.769107658840445
132.0,29468.675807281335,4755.700804868531,0.9655360472116193,12.475716272192116
133.0,34666.74273850246,5580.83743892878,0.9660555713076368,12.196024969067702
134.0,40892.340834545634,6598.688553418933,0.9665512005913021,11.92941496091773
135.0,48403.8077951405,7858.799410970051,0.9670237551511782,11.675296682054617
136.0,57534.707754717696,9414.539515760203,0.967474028663927,11.433108441036078
137.0,68703.21641998315,11321.318231729701,0.9679027892693095,11.202315072127298
138.0,82417.74025313051,13638.42720126075,0.9683107804637155,10.982406636513646
139.0,99283.19080660812,16436.93600702425,0.9686987220119226,10.772897169506885
140.0,120018.55566395487,19808.583432378655,0.9690673108685433,10.57332347398568
141.0,145487.26927140888,23876.374737684753,0.9694172220939672,10.383243966124551
142.0,176743.74667701437,28808.09733784261,0.9697491097609484,10.202237572003273
143.0,215101.6622346268,34832.72629411239,0.9700636078451439,10.029902675378265
144.0,262230.29442447174,42257.89889458496,0.9703613310946612,9.865856116250807
145.0,320281.8902809931,51488.519658407386,0.9706428758744915,9.709732239716631
146.0,392056.5039653948,63039.397010650966,0.9709088209852961,9.561181991829454
147.0,481194.684318411,77539.18335225452,0.9711597284516124,9.41987206318301
148.0,592380.9701664806,95737.26212806563,0.9713961442790067,9.285484077994216
149.0,731558.9316348486,118529.37913742135,0.9716185991792337,9.157713826702976
150.0,906187.5170456639,147007.507650713,0.9718276092626802,9.036270540321585
151.0,1125577.7460241143,182538.55496399014,0.9720236766974059,8.92087620503461
152.0,1401358.9067270414,226879.17826624267,0.9722072903357759,8.811264914134727
153.0,1748138.6106856994,282331.1429844164,0.9723789263082286,8.707182256108139
154.0,2184431.616477356,351937.69442633603,0.9725390485837838,8.608384737866329
155.0,2733942.1247461825,439709.7929310024,0.972688109499789,8.514639238869767
156.0,3427261.67967153,550857.9646257388,0.9728265502579364,8.425722498705996
157.0,4303999.192964254,692031.0760270607,0.9729548013904193,8.341420632657417
158.0,5415348.653863394,871605.9740222543,0.9730732831958828,8.261528675156033
159.0,6827178.026894601,1100089.0158113332,0.9731824061465253,8.185850148769395
160.0,8623829.130620815,1390701.2590830617,0.9732825712656202,8.114196658799603
161.0,10912947.93931945,1760232.6182017585,0.9733741704764917,8.04638751192773
162.0,13831815.00657965,2230252.475790735,0.9734575869256842,7.9822493560730665
163.0,17555830.665582187,2828750.5074869907,0.9735331952797577,7.92161584117948
164.0,22309962.7113966,3592230.14862523,0.9736013619960461,7.864327300387547
165.0,28384010.234958686,4568237.6542611765,0.9736624455684306,7.810230450343243
166.0,36152468.9114011,5818364.161102136,0.9737167967506319,7.759178108223445
167.0,46099867.562866226,7421895.19298588,0.9737647587561943,7.711028925769775
168.0,58852735.73332217,9480436.91941966,0.9738066674359286,7.665647139549012
169.0,75219916.24456914,12124024.134963777,0.9738428514339736,7.622902336359959
170.0,96243825.24219948,15519379.504743475,0.9738736323245363,7.582669231937678
171.0,123266575.30695963,19881139.20541483,0.973899324728565,7.544827463413192
172.0,158016411.25493348,25486877.533885576,0.9739202364112384,7.509261394738045
173.0,202721358.40852982,32696680.274781436,0.9739366683616119,7.475859934038827
174.0,260258387.676218,41978012.61129963,0.9739489148560175,7.444516361668272
175.0,334347835.4829731,53936980.30851946,0.9739572635046657,7.415128169328913
176.0,429804770.21392053,69357729.13152689,0.973961995282314,7.38759690959599
177.0,552861616.3988075,89252712.42718567,0.9739633845445942,7.361828054802143
178.0,711581607.9340353,114927809.26890947,0.9739616990311247,7.337730864596478
179.0,916389991.4578668,148067845.02194318,0.9739571998550912,7.315218262387086
180.0,1180760219.9572206,190849454.89795178,0.973950141480096,7.294206720137236
181.0,1522103752.5797744,246089279.14159873,0.9739407716861807,7.2746161504778915
182.0,1962928310.0195932,317436602.6323342,0.9739293315256334,7.256369805887144
183.0,2532345793.2484536,409621629.7333611,0.9739160552685389,7.23939418497202
184.0,3268031352.3207483,528773908.0661319,0.9739011703388056,7.223618945445239
185.0,4218757427.5699563,682830286.2393364,0.9738848972429051,7.208976822786881
186.0,5447666467.334912,882059656.1351985,0.9738674494913727,7.195403554667057
187.0,7036494206.972403,1139742236.4189577,0.9738490335133264,7.182837811019884
188.0,9091022502.783808,1473053648.01625,0.9738298485647228,7.171221129439652
189.0,11748125625.465893,1904216298.8976471,0.9738100866328451,7.160497854960713
190.0,15184900502.412756,2461997304.3901625,0.9737899323365043,7.150615084512283
191.0,19630513664.89795,3183651521.840783,0.9737695628224922,7.141522615843525
192.0,25381564812.61983,4117434684.663421,0.9737491476591368,7.133172900598926
193.0,32821988569.66494,5325843394.148251,0.9737288487294418,7.125521000758297
194.0,42448823419.52945,6889793979.443884,0.9737088201228911,7.1185245488176125
195.0,54905561066.54185,8914021244.634949,0.9736892080266238,7.112143711479234
196.0,71025246238.59503,11534068791.00267,0.9736701506171621,7.106341156476406
197.0,91886200041.22342,14925344985.613903,0.9736517779547651,7.101082021968673
198.0,118884136493.75945,19314869820.91537,0.9736342118793803,7.0963338888649306
199.0,153825593007.57367,24996509083.900333,0.9736175659088957,7.09206675586627
200.0,199048857499.60126,32350705712.98196,0.9736019451413558,7.088253016763992
201.0,257580580369.75302,41869985518.9008,0.9735874461624638,7.08486743968644
202.0,333338588161.2844,54191924558.07158,0.9735741569574773,7.081887148569422
203.0,431394515949.67944,70141773609.27303,0.9735621568280978,7.079291606687766
204.0,558313308622.2024,90787562889.19016,0.9735515163165074,7.077062601690318
205.0,722592412943.3701,117511356094.4598,0.9735422971369082,7.075184232094357
206.0,935230017942.4783,152101476876.24753,0.973534552113979,7.073642895401369
207.0,1210460433154.9163,196871945577.32422,0.9735283251287137,7.0724272777153505
208.0,1566704697990.3506,254816970248.91168,0.9735236510741532,7.071528344238444
209.0,2027800624605.879,329810684570.66943,0.9735205558203386,7.070939330838481
210.0,2624594476117.394,426865344682.4851,0.9735190561882896,7.0706557367344764
211.0,3396999436434.0713,552465129472.6614,0.973519159933382,7.070675318199367
212.0,4396654944064.308,714997088036.264,0.9735208657406923,7.070998082645712
213.0,5690364024399.782,925307716351.5896,0.9735241632307856,7.071626283468177
214.0,7364536400320.439,1197421961079.7646,0.9735290329760421,7.07256441560186
215.0,9530925833381.434,1549472298336.377,0.9735354465280092,7.073819211655541
216.0,12334035482773.232,2004897498372.019,0.9735433664578791,7.075399638082215
217.0,15960679108960.371,2593989732420.4995,0.9735527464081659,7.077316891830198
218.0,20652326706020.37,3355890736507.336,0.9735635311557435,7.0795843974024315
219.0,26721020337664.797,4341166219136.1245,0.9735756566870049,7.082217804089793
220.0,34569889105033.133,5615120820779.001,0.9735890502863677,7.08523498302243
221.0,44719586983685.36,7262067495758.723,0.9736036306362161,7.088656024457749
222.0,57842358174325.336,9390825095263.084,0.9736193079283257,7.092503235240313
223.0,74805842561298.11,12141791776003.572,0.9736359839878438,7.096801136080154
224.0,96729410757173.12,15696034105773.605,0.9736535524099816,7.101576458522628
225.0,125056575327863.6,20286965573951.617,0.9736718987078149,7.106858141938102
226.0,161648023386772.9,26215346291531.484,0.9736909004710503,7.112677330488466
227.0,208900875325589.22,33868518396353.473,0.9737104275370341,7.1190673696020115
228.0,269901572898248.9,43745043304504.484,0.9737303421731486,7.1260638020665334
229.0,348621709051552.6,56486242129143.82,0.9737504992694227,7.133704363941653
230.0,450168589812304.56,72916550227608.47,0.9737707465410639,7.142028980257419
231.0,581105088312886.0,94095037959107.81,0.9737909247421744,7.15107975995211
232.0,749857860211152.9,121381121546429.75,0.9738108678890481,7.16090099036069
233.0,967237754361268.8,156518294881939.62,0.9738304034922942,7.171539131322566
234.0,1247102003426745.5,201740726058689.34,0.9738493527974608,7.183042808842521
235.0,1607195054931793.2,259908589025418.9,0.9738675310351274,7.195462807757738
236.0,2070215378991094.0,334679699539693.7,0.9738847476785385,7.20885206383578
237.0,2665167150983275.5,430726883280731.4,0.9739008067083087,7.223265655270492
238.0,3429068096788009.0,554012840796298.56,0.9739155068840075,7.238760793409537
239.0,4409103168378232.5,712136633623141.6,0.973928642023019,7.255396812273548
240.0,5665336361648741.0,914769903533266.2,0.9739400012849114,7.273235157279911
241.0,7274119433486606.0,1174205046306190.0,0.9739493694609669,7.2923393730825605
242.0,9332360894472274.0,1506042491610787.5,0.9739565272688736,7.312775090215042
243.0,1.1962862476889752e+16,1930049492633396.8,0.973961251652364,7.33461001027314
244.0,1.5320975072754882e+16,2471231355102106.5,0.9739633160844821,7.357913889942694
245.0,1.960288146425276e+16,3161164571313783.0,0.9739624908741896,7.382758523751119
246.0,2.505585751714175e+16,4039650516811386.5,0.9739585434764353,7.409217725078343
247.0,3.19909596595756e+16,5156759482615591.0,0.9739512388050278,7.437367305361285
248.0,4.079866516810261e+16,6575351187259429.0,0.9739403395475266,7.467285051634001
249.0,5.196809265459028e+16,8374174149344181.0,0.9739256064819491,7.499050702246577
250.0,6.611050289161498e+16,1.0651660349889604e+16,0.9739067987953647,7.532745920189009
