Time,J,A,S,tau
0.0,100.0,10.0,0.6752544739567641,7.442383357051076
1.0,124.9209748977353,24.624893901548226,0.6777106967200266,7.636152475046563
2.0,184.60104057052735,38.41891652210602,0.6801930753168551,7.8327658984810595
3.0,275.500128091551,51.435134436609815,0.6827009146819244,8.032158029896198
4.0,394.3785317120925,63.72334801467482,0.6852336206639541,8.234269614531534
5.0,538.2722495932213,75.33001852461658,0.6877906170589817,8.439040585751034
6.0,704.4706058592542,86.29850429283042,0.6903713455515578,8.646410084145808
7.0,890.4955412057257,96.66928107240724,0.692975265634984,8.856316476802855
8.0,1094.0828472395615,106.48014320164268,0.6956018545018717,9.068697377111361
9.0,1313.164585854992,115.76639378313381,0.698250606916336,9.283489664502715
10.0,1543.238119718069,130.76297733369205,0.6993469229640578,9.38082007558511
11.0,1804.819532316072,167.83383200831196,0.6995531521134991,9.410558944094527
12.0,2150.0200809365356,225.32968627762963,0.6997522856754966,9.43977216096374
13.0,2623.5171425561093,300.8131027258762,0.6999444165733617,9.46843940670553
14.0,3262.3118463961155,392.07361478695884,0.7001296384853892,9.496540438511875
15.0,4096.633089634242,497.10809692678583,0.7003080455986908,9.524055116447414
16.0,5150.749752389029,614.10278220831,0.7004797323629434,9.550963430185922
17.0,6443.695548434164,741.4168676668672,0.7006447932441839,9.577245526272991
18.0,7989.918255673859,877.5674881068755,0.7008033224789945,9.602881735783702
19.0,9799.86462816352,1021.2108658170974,0.7009554138293144,9.627852602521894
20.0,11877.558002896209,1179.5074788687173,0.7011011603391111,9.652138911185736
21.0,14250.792480265234,1383.7357354323167,0.7012406540962437,9.675721716279714
22.0,17022.642836116487,1664.3557128389505,0.7013739859895594,9.69858237098391
23.0,20361.844187372455,2046.2620646637909,0.701501245473656,9.720702556242024
24.0,24487.26261752648,2549.4669963038646,0.701622520335335,9.742064309974165
25.0,29654.67791504089,3189.710787558611,0.701737896464305,9.762650056203835
26.0,36145.59972160958,3979.005252884522,0.701847457626998,9.782442634318746
27.0,44257.79783168834,4926.120707952873,0.701951285245447,9.801425328040823
28.0,54297.42094911757,6037.018661215875,0.7020494581808948,9.819581894306658
29.0,66572.41566184042,7315.239130839859,0.7021420525224172,9.836896591892312
30.0,81384.54930134134,8768.57570445071,0.7022291413822408,9.853354209567694
31.0,99042.65152984663,10442.305945219114,0.7023107946955788,9.868940094016297
32.0,119959.19247401983,12429.577956038194,0.7023870790297182,9.883640177083244
33.0,144754.9885124313,14860.788639720697,0.7024580573979516,9.897441002512165
34.0,174335.15586650657,17893.792705219596,0.7025237890821634,9.91032975200175
35.0,209940.14015048888,21705.615367988725,0.7025843294630397,9.922294270539215
36.0,253176.39719870372,26485.47511240222,0.7026397298586111,9.933323090933905
37.0,306030.50675141736,32428.94955705332,0.7026900373721796,9.94340545735761
38.0,370869.91821766685,39733.140259973035,0.7027352947492208,9.952531347930277
39.0,450433.1789171047,48592.70141895423,0.7027755402439398,9.960691496250737
40.0,547810.421977072,59199.5967853638,0.7028108074957666,9.967877411800563
41.0,666421.5886740723,71777.17562237298,0.7028411254160705,9.974081399174535
42.0,810089.6609257477,86653.34998756122,0.7028665180863455,9.979296575924089
43.0,983283.6499843296,104323.5542733711,0.7028870046672527,9.983516889070394
44.0,1191494.5204498481,125494.41370697468,0.7029025993190917,9.986737130211731
45.0,1441696.1847312213,151111.3894473555,0.7029133111339881,9.988952949154868
46.0,1742853.30326651,182373.34482137955,0.7029191440798671,9.990160866053625
47.0,2106445.865516433,220736.47483746617,0.7029200969574941,9.99035828184845
48.0,2546985.8177836523,267909.8008001266,0.7029161633698965,9.989543487068063
49.0,3082508.3369131754,325844.0357684436,0.7029073317044989,9.987715668964238
50.0,3735023.2884716135,396716.46716058085,0.702893585128234,9.984874916918468
51.0,4530913.879090975,482939.70631037734,0.7028749015955092,9.981022226134545
52.0,5501353.205980548,587267.4444514221,0.7028512538701452,9.976159499447276
53.0,6682980.5978865195,713014.5577461319,0.7028226095606462,9.97028954730056
54.0,8119094.077074584,864357.9887779894,0.7027889311687897,9.963416085928007
55.0,9861525.440504111,1046686.185400197,0.7027501761517376,9.955543733691826
56.0,11973287.49138027,1266971.4602837644,0.7027062969973814,9.946678005623642
57.0,14532028.93182175,1534144.4902134726,0.7026572413137139,9.936825306056615
58.0,17634272.64525041,1859455.1727585082,0.7026029519316932,9.925992919388012
59.0,21400390.52964238,2256807.9036107315,0.7025433670212055,9.9141889990719
60.0,25980237.77466164,2743062.8607990947,0.7024784202202164,9.901422554822595
61.0,31559343.58307549,3338319.493877586,0.7024080407766847,9.88770343809811
62.0,38365619.27860756,4066301.718594725,0.7023321537036173,9.873042325823702
63.0,46676832.90136676,4955048.46664825,0.7022506799468229,9.857450702381657
64.0,56829613.17500502,6038073.993414172,0.702163536564632,9.84094084002484
65.0,69231096.57019742,7356095.2514463505,0.7020706369195157,9.823525777724926
66.0,84374514.39401779,8959370.729844349,0.7019718908810598,9.805219298544161
67.0,102860138.53515048,10910650.948117115,0.7018672050402577,9.786035905558744
68.0,125422887.85364679,13288707.684939768,0.7017564829346974,9.765990796354865
69.0,152967843.39527234,16192387.60712329,0.7016396252836808,9.745099836291915
70.0,186614768.22825062,19745116.654949315,0.7015165302330226,9.723379530575432
71.0,227752475.8879914,24099800.261095535,0.7013870936088964,9.700846995240555
72.0,278103861.03806067,29444237.826954395,0.7012512091803418,9.67751992712607
73.0,339802570.10615563,36007536.925225064,0.7011087689299362,9.65341657286654
74.0,415483600.2201203,44068367.65632101,0.7009596633315782,9.628555697105522
75.0,508392285.0898361,53966092.52537816,0.7008037816349577,9.602956550000195
76.0,622518453.6434569,66115899.034455605,0.7006410121560106,9.576638834121546
77.0,762765455.9895575,81029052.04812625,0.7004712425727703,9.549622670856989
78.0,935166092.4120754,99339274.494219,0.7002943602259264,9.521928566360646
79.0,1147159463.8132377,121836170.72280145,0.7001102524231237,9.493577377233038
80.0,1407945278.3810875,149506405.4384757,0.6999188067464379,9.464590276019289
81.0,1728933010.9469788,183583241.08551323,0.6997199113622854,9.434988716624403
82.0,2124304894.6061397,225605304.82978404,0.6995134553331401,9.404794399752982
83.0,2611713658.4876995,277486385.0564805,0.6992993289301144,9.374029238440265
84.0,3213138619.116463,341599955.678719,0.6990774239456375,9.342715323814089
85.0,3955935271.0046268,420884205.342191,0.6988476340056207,9.31087489118102
86.0,4874126217.097132,518975669.0590457,0.6986098548803602,9.278530286521434
87.0,6010001975.695406,640381833.0542706,0.6983639847936324,9.245703933481854
88.0,7416127544.309327,790704682.2071332,0.6981099247288355,9.212418300945128
89.0,9157872010.477215,976929082.5601708,0.6978475787316133,9.178695871270799
90.0,11316619558.375225,1207790769.7925296,0.6975768542084525,9.144559109283934
91.0,13993849520.635029,1494239646.7693844,0.6972976622205221,9.110030432078403
92.0,17316308928.239254,1850016351.8068058,0.6970099177723698,9.075132179692448
93.0,21442552479.077984,2292363886.116726,0.6967135400942466,9.039886586736193
94.0,26571148613.35498,2842906274.313208,0.6964084529176231,9.00431575502374
95.0,32950953285.196327,3528740149.8378773,0.6960945847436506,8.968441627255084
96.0,40893952342.940765,4383804140.842608,0.6957718691038696,8.932285961793395
97.0,50791327850.14929,5450615489.453204,0.695440244812973,8.895870308561955
98.0,63133666591.72073,6782487293.808794,0.6950996562124738,8.859215986123832
99.0,78536417663.15494,8446370613.383334,0.6947500534048373,8.822344059971662
100.0,97772132500.9459,10526495577.226255,0.6943913924782316,8.785275322028102
101.0,121811409897.9334,13129015992.998287,0.69402363572125,8.748030271382868
102.0,151874920779.1654,16387904435.840353,0.6936467518275897,8.710629096260648
103.0,189499616851.13403,20472393523.10406,0.6932607160897722,8.673091657254815
104.0,236622654674.1154,25596345491.427383,0.6928655105813291,8.635437471844453
105.0,295687665905.642,32030061324.62209,0.6924611243280915,8.597685700147865
106.0,369779200832.24554,40115208561.72824,0.6920475534679988,8.559855131921319
107.0,462792215380.72437,50283806225.43259,0.6916248014000833,8.521964174750378
108.0,579648990514.1136,63082368814.11302,0.6911928789192785,8.484030843564387
109.0,726570831328.9706,79202927077.02669,0.6907518043420887,8.446072751223276
110.0,911425802893.9104,99522712073.76096,0.6903016036181192,8.408107100372872
111.0,1144171123339.3323,125155014060.79018,0.6898423104301605,8.370150676414431
112.0,1437417836342.2493,157514210333.55682,0.689373966282271,8.332219841580812
113.0,1807150585193.4565,198398788918.91156,0.6888966205758883,8.294330530089749
114.0,2273645860104.8286,250097114255.44443,0.6884103306729714,8.256498244388586
115.0,2862642915033.662,315522205953.9814,0.6879151619473775,8.218738052392684
116.0,3606836339151.7627,398383700277.45276,0.6874111878242825,8.181064585692582
117.0,4547779176582.564,503407768761.7098,0.6868984898080427,8.143492038673731
118.0,5738306814158.369,636619045474.3258,0.6863771574978178,8.106034168554185
119.0,7245632826398.511,805702505437.1665,0.6858472885911565,8.068704296284942
120.0,9155304730396.898,1020468661866.3851,0.6853089888764061,8.031515308237811
121.0,11576268162135.744,1293451544796.8484,0.6847623722138676,7.994479658647149
122.0,14647346388070.002,1640677412201.7546,0.6842075605061758,7.957609372753598
123.0,18545537195536.758,2082651368787.203,0.6836446836568687,7.920916050664117
124.0,23496643818874.223,2645623639768.3765,0.6830738795185023,7.884410871823668
125.0,29788892154807.797,3363215088913.5005,0.6824952938304405,7.848104600063464
126.0,37790384464327.46,4278505963691.4395,0.6819090801467216,7.812007589172648
127.0,47971430641125.22,5446723213331.792,0.6813153997538383,7.776129788981375
128.0,60933183975833.305,6938699600333.636,0.6807144215782688,7.740480751921173
129.0,77444361080404.61,8845332667105.385,0.6801063220850214,7.70506963997925
130.0,98488387296291.78,11283334543499.094,0.6794912851671391,7.669905232021288
131.0,125323918033629.4,14402650871913.607,0.6788695020268147,7.6349959314317575
132.0,159562522060479.06,18396025480983.3,0.6782411710473203,7.6003497740867765
133.0,203268537506714.8,23511330481739.23,0.6776064976568165,7.565974436578444
134.0,259087366620921.8,30067465502938.51,0.6769656941845175,7.531877244654188
135.0,330410468982285.5,38474866457181.72,0.6763189797094821,7.498065181835848
136.0,421587144291303.2,49261983668925.13,0.6756665799022906,7.464544898200208
137.0,538196858183924.75,63109458453213.21,0.6750087268591581,7.431322719312956
138.0,687399417370048.4,80894283611469.67,0.6743456589298346,7.398404655243493
139.0,878385540127990.2,103746878373727.5,0.673677620539311,7.365796409646723
140.0,1122956740458628.4,133124896506403.19,0.6730048620039084,7.33350338887558
141.0,1436270798469446.2,170908638206909.34,0.672327639341368,7.301530711137351
142.0,1837801964590046.0,219524354543543.03,0.6716462140755058,7.26988321564738
143.0,2352576852481838.0,282103663462515.56,0.6709608530361614,7.238565471747796
144.0,3012766851913798.0,362689667329564.2,0.670271828154563,7.207581787975689
145.0,3859736241655424.0,466503655166969.75,0.6695794162545847,7.1769362210644845
146.0,4946679489151822.0,600289977827201.1,0.668883898839405,7.146632584888734
147.0,6342018196360364.0,772762316934023.2,0.6681855618746887,7.116674459300378
148.0,8133777041333577.0,995181220616141.6,0.6674846955684269,7.087065198851453
149.0,1.043522402438059e+16,1282101769128977.2,0.6667815941478301,7.057807941384281
150.0,1.339212665310898e+16,1652341409932641.5,0.6660765556332786,7.028905616499218
151.0,1.7192107001490356e+16,2130232046059507.2,0.6653698816094823,7.000360953883105
152.0,2.207669269270775e+16,2747240658960734.0,0.6646618769946218,6.9721764914734585
153.0,2.835685480758867e+16,3544066674477932.5,0.663952849807522,6.944354583456887
154.0,3.643301348002983e+16,4573358078214953.0,0.663243110933318,6.916897408091635
155.0,4.682080332102832e+16,5903226110818013.0,0.6625329738873459,6.88980697537154
156.0,6.018428384181261e+16,7621794695684691.0,0.6618227545779495,6.863085134501515
157.0,7.737873013563792e+16,9843089646553520.0,0.6611127710684495,6.836733581183992
158.0,9.950581334474758e+16,1.2714662653045748e+16,0.6604033433384853,6.810753864710971
159.0,1.2798459193961898e+17,1.6427462643661706e+16,0.6596947930449688,6.785147394868789
160.0,1.646430337527739e+17,2.1228605405420516e+16,0.6589874432826438,6.759915448657268
161.0,2.1183591947468214e+17,2.743790016816219e+16,0.6582816183448263,6.7350591768065655
162.0,2.7259681852884954e+17,3.5469233850555468e+16,0.6575776434844097,6.710579610097199
163.0,3.5083383854472275e+17,4.5858253411053064e+16,0.656875844675409,6.686477665479828
164.0,4.5158153941822445e+17,5.929817728744772e+16,0.6561765483751384,6.662754152010713
165.0,5.813256319096228e+17,7.668611616135987e+16,0.655480081287272,6.6394097765911715
166.0,7.484211312903354e+17,9.918299593795787e+16,0.6547867701260642,6.616445149511527
167.0,9.636314175643265e+17,1.2829106384838779e+17,0.654096941381826,6.593860789802367
168.0,1.2408214461757555e+18,1.6595416823999043e+17,0.6534109210879241,6.571657130397932
169.0,1.5978507344519828e+18,2.146873618974548e+17,0.6527290345894231,6.549834523121347
170.0,2.0577232310719206e+18,2.7774446808910464e+17,0.652051606313581,6.528393243482575
171.0,2.650068223905427e+18,3.593346743034522e+17,0.651378959542343,6.5073334952962725
172.0,3.4130474507680154e+18,4.649025636160452e+17,0.6507114161869222,6.486655415120957
173.0,4.395806505157339e+18,6.014900204909292e+17,0.6500492965648051,6.466359076530713
174.0,5.661632725608289e+18,7.782036698773128e+17,0.6493929191792396,6.446444494219326
175.0,7.292018544548932e+18,1.0068187803499634e+18,0.6487426005013168,6.426911627937241
176.0,9.391895513068405e+18,1.3025592163447706e+18,0.6480986547547449,6.4077603862674675
177.0,1.2096361209379455e+19,1.6851051931957453e+18,0.6474613937034338,6.388990630243871
178.0,1.5579334146768038e+19,2.1798938491930253e+18,0.6468311264423137,6.3706021768224526
179.0,2.0064691303471022e+19,2.8197981157761454e+18,0.6462081591912107,6.3525948022025105
180.0,2.5840596916899557e+19,3.64729351576158e+18,0.6455927950919395,6.334968245003765
181.0,3.3277946266945032e+19,4.717254796090324e+18,0.6449853340085872,6.3177222093032315
182.0,4.285404632641726e+19,6.100565027575316e+18,0.6443860723313726,6.300856367538437
183.0,5.518309571856985e+19,7.888769031230197e+18,0.6437953027842388,6.284370363282153
184.0,7.105537185736881e+19,1.020007543783939e+19,0.6432133142359594,6.26826381388911
185.0,9.148765899877918e+19,1.3187095205235712e+19,0.6426403915149331,6.252536313020867
186.0,1.1778803773978565e+20,1.704682340317483e+19,0.6420768152275693,6.237187433051694
187.0,1.516391304874328e+20,2.2033501632012984e+19,0.6415228615809849,6.222216727363195
188.0,1.9520517306243613e+20,2.8475192002024882e+19,0.640978802209599,6.207623732529005
189.0,2.5126963807859936e+20,3.6795133027436757e+19,0.640444904005678,6.193407970393354
190.0,3.234122994891246e+20,4.753925354299067e+19,0.639921428953804,6.179568950048065
191.0,4.1623639928300805e+20,6.141162788042588e+19,0.6394086339694989,6.166106169710959
192.0,5.356608094088392e+20,7.93201119986223e+19,0.6389067707424878,6.15301911851204
193.0,6.892954723889336e+20,1.0243510955268851e+20,0.6384160855839904,6.140307278188308
194.0,8.869241385511468e+20,1.3226522011126455e+20,0.6379368192782804,6.127970124691881
195.0,1.1411246597855086e+21,1.7075465367838074e+20,0.6374692069382727,6.116007129714146
196.0,1.4680650771356802e+21,2.2040859333117274e+20,0.6370134778659533,6.104417762129714
197.0,1.888527440919871e+21,2.8445446599562084e+20,0.6365698554173072,6.093201489364275
198.0,2.429223090472257e+21,3.6704945045682854e+20,0.6361385568715182,6.082357778688048
199.0,3.1244845180847737e+21,4.7354741598432454e+20,0.6357197933045199,6.071886098438988
200.0,4.0184357552803896e+21,6.108424668481887e+20,0.6353137694668589,6.0617859191766374
201.0,5.167782258580237e+21,7.878105535549719e+20,0.6349206836667604,6.052056714771731
202.0,6.64539620560548e+21,1.0158773847824801e+21,0.6345407276574646,6.042697963433188
203.0,8.54492487209695e+21,1.3097486141644884e+21,0.6341740865290694,6.0337091486752135
204.0,1.0986715196385739e+22,1.6883488916300423e+21,0.63382093860461,6.025089760227113
205.0,1.41254142253768e+22,2.1760292443018017e+21,0.6334814553410663,6.016839294886343
206.0,1.815974611111595e+22,2.804118446880083e+21,0.6331558012352874,6.008957257319881
207.0,2.3345073970212535e+22,3.6129172379470355e+21,0.6328441337342295,6.001443160814362
208.0,3.0009561125104923e+22,4.654261086222062e+21,0.6325466031497272,5.994296527978136
209.0,3.857491788303848e+22,5.994815633090819e+21,0.632263352577507,5.987516891395208
210.0,4.95830662695639e+22,7.720309737093935e+21,0.6319945178216251,5.981103794233869
211.0,6.373043024304814e+22,9.94097457588713e+21,0.6317402273232968,5.975056790812614
212.0,8.191202226994187e+22,1.2798532359768863e+22,0.6315006020942223,5.969375447124228
213.0,1.0527817350999025e+23,1.6475177251668752e+22,0.6312757556542291,5.964059341320399
214.0,1.3530734127969218e+23,2.120511846498438e+22,0.631065793973639,5.9591080641553456
215.0,1.738998238604452e+23,2.728940323445921e+22,0.6308708154208235,5.954521219393106
216.0,2.234982652154754e+23,3.511496292287468e+22,0.630690910713972,5.950298424178627
217.0,2.8724277562166895e+23,4.517907969622779e+22,0.6305261628774064,5.946439309374418
218.0,3.691703615428896e+23,5.812083657279205e+22,0.6303766472020098,5.942943519862712
219.0,4.744713053756991e+23,7.4761513149844475e+22,0.6302424312109979,5.939810714813346
220.0,6.098192803764735e+23,9.615647438480854e+22,0.6301235746301969,5.937040567920863
221.0,7.837961250164125e+23,1.2366183830765651e+23,0.6300201293626653,5.934632767610246
222.0,1.0074391268419907e+24,1.5902013268069488e+23,0.6299321394676445,5.93258701721323
223.0,1.2949442333012473e+24,2.0447040631847864e+23,0.6298596411439155,5.93090303511266
224.0,1.6645720151278905e+24,2.6288963072497926e+23,0.629802662718471,5.929580554858369
225.0,2.1398141925777578e+24,3.379744032311607e+23,0.6297612246392917,5.928619325254799
226.0,2.7508966590938487e+24,4.344744090914756e+23,0.6297353394725609,5.928019110420858
227.0,3.536715616544458e+24,5.584925436508899e+23,0.6297250119039236,5.927779689822158
228.0,4.5473283421275753e+24,7.178706005204251e+23,0.6297302387447793,5.927900858273666
229.0,5.847165374799426e+24,9.226847745583046e+23,0.6297510089432342,5.928382425916721
230.0,7.519168991134469e+24,1.1858825560740682e+24,0.6297873035991862,5.929224218168844
231.0,9.670132838323973e+24,1.5241012887726395e+24,0.6298390959837188,5.930426075647648
232.0,1.2437574812638552e+25,1.9587209764554304e+24,0.6299063515625924,5.931987854066057
233.0,1.5998600628147052e+25,2.517216970089419e+24,0.629989028025033,5.933909424100678
234.0,2.0581335634748836e+25,3.2348989755762934e+24,0.6300870753165589,5.936190671233898
235.0,2.6479672080787333e+25,4.157146738559113e+24,0.630200435676093,5.938831495568978
236.0,3.4072303173499284e+25,5.342285322786798e+24,0.6303290436770739,5.941831811618344
237.0,4.384723823342132e+25,6.865283169735823e+24,0.6304728262732208,5.945191548061783
238.0,5.643346611467014e+25,8.822505494009016e+24,0.6306317028490622,5.9489106474781375
239.0,7.264180975915219e+25,1.1337828100041778e+25,0.6308055852744048,5.952989066048435
240.0,9.351770852607027e+25,1.4570499850800677e+25,0.6309943779630344,5.957426773230852
241.0,1.2040929162415298e+26,1.872526177095531e+25,0.6311979779352881,5.962223751404942
242.0,1.5505524800497654e+26,2.406535877809003e+25,0.6314162748857186,5.967379995485126
