Time,J,A,S,tau
0.0,100.0,10.0,0.6382991009409921,18.147013894311733
1.0,97.31393400821281,11.408835455408315,0.6354948098147896,18.67645040387294
2.0,94.75773915081754,12.742219622771445,0.6325999098725693,19.222233848177886
3.0,92.3194912024752,14.002442178889106,0.6296183022333831,19.783735538341478
4.0,89.9880796541431,15.192069516832314,0.626551997265824,20.36070321131909
5.0,87.75427045977291,16.313614846742308,0.6234032162525925,20.952874486121626
6.0,85.61037783111426,17.369544414434973,0.6201743962440557,21.559976150561845
7.0,83.54999283699426,18.36228211229542,0.6168681932434759,22.18172350147048
8.0,81.56772833693284,19.294214504107398,0.6134874772903989,22.817820140969417
9.0,79.65902378305223,20.167693774573454,0.6100353262010263,23.467957844092783
10.0,77.81998183840754,20.985039965624296,0.6065150163900617,24.131816612826853
11.0,76.04723648390352,21.74854153726206,0.6029300118681106,24.809064802237987
12.0,74.33783812014273,22.460455929623283,0.5992839495631813,25.499359506342596
13.0,72.68915194710544,23.123009752451438,0.595580615092162,26.202347563217284
14.0,71.09878992609802,23.738397699136712,0.5918239231242204,26.917666335211877
15.0,69.56455972420224,24.308778706961213,0.5880178987063421,27.644944306300452
16.0,68.084409023307,24.83627503191784,0.5841666470862537,28.383802626460984
17.0,66.65638996460402,25.32297093536909,0.5802743275486556,29.133856515370347
18.0,65.27863887637626,25.770906858051895,0.5763451302974042,29.894716235758597
19.0,63.94935280141804,26.182076681818543,0.5723832462792207,30.66598877408664
20.0,62.66677398539805,26.55842724846854,0.56839284324818,31.44727936836751
21.0,61.42918520828957,26.901850629026658,0.5643780384757702,32.23819286305736
22.0,60.13293126765235,25.113424528336974,0.5603428783548924,33.03833522471074
23.0,58.86535102133849,23.024049298430434,0.5562913130868485,33.847314976180385
24.0,57.648802710275916,21.12793560091896,0.55222717748934,34.664744563742204
25.0,56.480703531135845,19.40582377766471,0.5481541738197454,35.4902415989824
26.0,55.35857476101591,17.84050153630555,0.544075855236624,36.32343007552615
27.0,54.280040423352446,16.4165811679396,0.5399956138786969,37.163941380633126
28.0,53.24282682111906,15.120278682821034,0.5359166693955844,38.01141527532517
29.0,52.24476103293508,13.939268535841839,0.5318420612406555,38.86550068998156
30.0,51.283769096038945,12.862485706077027,0.5277746430111842,39.72585639922361
31.0,50.35787449898211,11.88002384293154,0.523717078091125,40.59215162671126
32.0,49.46519517187184,10.982974629512503,0.5196718394279332,41.464066403465026
33.0,48.60394186425247,10.16334867075013,0.5156412081093406,42.34129199042562
34.0,47.77241467147954,9.413963096308951,0.5116272767814102,43.22353100212886
35.0,46.96900017954493,8.728345036932291,0.5076319528362742,44.110497523267526
36.0,46.19216884035191,8.100672427094352,0.5036569621737698,45.001917184636184
37.0,45.44047118374542,7.525699162810287,0.4997038561849246,45.897527013131665
38.0,44.71253462868028,6.9986856734982705,0.4957740180556379,46.79707530196776
39.0,44.00706046043913,6.515357309818625,0.4918686694489762,47.70032144649778
40.0,43.32282008990247,6.071854082740962,0.48798887915931577,48.607035621499286
41.0,42.658651636402304,5.664682443969081,0.48413557138158747,49.516998458427594
42.0,42.01345685250055,5.290679328272035,0.48030953360467415,50.43000073261071
43.0,41.386197712166165,4.946982957170238,0.47651142552650755,51.34584295596613
44.0,40.775893039397445,4.630998826427161,0.47274178794175553,52.264334941754505
45.0,40.18161536959395,4.340372043803102,0.4690010512558713,53.18529537399496
46.0,39.60248804478298,4.072963253153526,0.46528954359139435,54.108551387173534
47.0,39.03768221981768,3.82683358678723,0.4616074991995871,55.033938101787285
48.0,38.48641390245651,3.6002191054804378,0.45795506660027424,55.961298147503975
49.0,37.94794124881124,3.3915154701671226,0.4543323162552824,56.89048120505973
50.0,37.42156194644569,3.1992626908031045,0.45073924797655546,57.82134354522805
51.0,36.906610712952265,3.022130935810229,0.4471757980067024,58.75374757117526
52.0,36.402456956312214,2.8589080988391076,0.4436418457052706,59.68756137292888
53.0,35.90850249397255,2.7084921165077787,0.44013722006004397,60.622658276560266
54.0,35.42417935202865,2.5698770680870555,0.4366617057868699,61.558916399511695
55.0,34.948947744053626,2.4421456001228257,0.43321504907012826,62.4962182223201
56.0,34.48229413543653,2.324460901159002,0.42979696299683906,63.43445016570013
57.0,34.02372938446329,2.2160589329768143,0.42640713269425773,64.37350217272362
58.0,33.57278709141403,2.1162433687932944,0.42304522010005874,65.31326731257089
59.0,33.12902186521222,2.024378651949676,0.41971086858504236,66.25364136928262
60.0,32.69200781398792,1.9398845760537762,0.4164037071851692,67.19452245556373
61.0,32.26133706988779,1.8622317492707459,0.41312335464496913,68.13581062580153
62.0,31.836618373405386,1.7909367332452337,0.4098694232083834,69.0774074942092
63.0,31.417475845620178,1.7255596526282198,0.4066415222289151,70.01921586410306
64.0,31.0035476339758,1.6656993252078367,0.4034392615563332,70.96113934797255
65.0,30.594484767133242,1.6109899873461715,0.40026225472452426,71.90308200172375
66.0,30.18995006745868,1.5610987643856684,0.3971101220525446,72.84494795364702
67.0,29.789617015445124,1.51572354975277,0.39398249349289105,73.78664103885147
68.0,29.393168776031118,1.4745898119287164,0.3908790114118333,74.72806443057495
69.0,29.000297212895823,1.4374483515098635,0.387799333221926,75.66912027020098
70.0,28.6107020429828,1.4040755249251864,0.38474313420643974,76.609709273534
71.0,28.224089811885367,1.3742676130331748,0.3817101096115904,77.54973037301346
72.0,27.84017311271943,1.3478410963206688,0.37869997721608145,78.48908032064641
73.0,27.458669720381398,1.3246326733985518,0.375712479143967,79.42765336238163
74.0,27.079301954721625,1.3044973823848687,0.3727473850443506,80.36534073658954
75.0,26.70179584392647,1.2873053823717304,0.36980449434386786,81.30203023790143
76.0,26.325880248597986,1.2729389508524565,0.36688363594947077,82.23760610093942
77.0,25.951286481263928,1.261303871655472,0.3639846737472627,83.17194822394654
78.0,25.577747390549483,1.252309327557631,0.3611075078870611,84.10493169583938
79.0,25.204996820558293,1.2458821490553795,0.35825207111918494,85.03642725993262
80.0,24.832768950567917,1.241963264531221,0.35541834453401167,85.96629886377545
81.0,24.460797967841767,1.2404938741477227,0.35260633577452766,86.8944066065635
82.0,24.088816773765906,1.241438516436598,0.34981611580711824,87.82060113081295
83.0,23.71655765798998,1.244781977235094,0.3470477810352097,88.74472930213486
84.0,23.34375062527256,1.2504807641974212,0.3443014841461087,89.6666287187281
85.0,22.970123489805022,1.258549587915131,0.34157742706686955,90.58612934495487
86.0,22.595402003664454,1.2689636354171339,0.33887584892916195,91.50305445484845
87.0,22.219307961788342,1.2817446012417635,0.3361970560157545,92.417216024842
88.0,21.841561114457807,1.2968897711578964,0.33354138638718095,93.32842004637811
89.0,21.46187617493706,1.3144327188722067,0.3309092515635359,94.2364592377594
90.0,21.079965812384824,1.3343901095248054,0.32830109232985144,95.14112054251187
91.0,20.69553708804496,1.356801799974006,0.32571742579564217,96.04217604632856
92.0,20.30829475619301,1.3817086205334084,0.32315880061234925,96.93939140972267
93.0,19.917938599731094,1.409152299934822,0.3206258330860623,97.83251798327147
94.0,19.52416563586569,1.4391770289475918,0.31811917832420755,98.72129861903657
95.0,19.12666860323831,1.471844094304704,0.3156395529476314,99.60546231483157
96.0,18.725137927930792,1.507200708726628,0.31318771147414615,100.48472874567098
97.0,18.319260843684347,1.5453179774831685,0.3107644622499026,101.35880444458263
98.0,17.90872307727758,1.5862466381857738,0.30837065108976586,102.2273854958902
99.0,17.493208741915076,1.6300616349061743,0.3060071661035254,103.09015644060341
100.0,17.072401929194072,1.6768175835738892,0.30367493038065824,103.94679039164646
101.0,16.645986946206307,1.7265866406257935,0.3013748963833989,104.79695091229516
102.0,16.21365046383599,1.7794275869796503,0.2991080446175063,105.6402899286709
103.0,15.775081377939095,1.8354025193825096,0.2968753723097276,106.47645173260959
104.0,15.329974118812931,1.894573460874619,0.2946778924915112,107.30507002366615
105.0,14.878027813351027,1.9569882417619378,0.29251662264417194,108.1257724260843
106.0,14.418950684007005,2.022708757549555,0.290392579702926,108.93817828696105
107.0,13.952458691263585,2.0917739283148333,0.2883067720060585,109.7419023954563
108.0,13.487093248743479,2.3321207316867647,0.2862601901651051,110.53655461165944
109.0,13.018479803540883,2.625325009987997,0.2842538000092344,111.32174175900782
110.0,12.544755671670458,2.9273877438671825,0.28228853324523456,112.09706893812239
111.0,12.06626479576099,3.238542381027574,0.28036527953157714,112.86214105760831
112.0,11.583462544161655,3.559006631388178,0.2784848813303074,113.61656409216725
113.0,11.096952240717737,3.888978214939824,0.27664811818670815,114.35994706821955
114.0,10.60747896458436,4.22863680802192,0.27485571079450277,115.09190285957169
115.0,10.115971003451866,4.5781397430532405,0.2731083064409884,115.81205008860779
116.0,9.623560521606873,4.937621691362245,0.27140647575462695,116.520014363899
117.0,9.13160519446996,5.307194000880265,0.2697507103430497,117.21542925569604
118.0,8.757969999060094,5.570390831434049,0.26839102110145874,117.78579967000472
119.0,8.637382777809359,5.589712626776302,0.26765932773802814,118.08073855419931
120.0,8.520266150337761,5.614402195236737,0.2670473785756488,118.3280246375679
121.0,8.408215581620842,5.644001799374937,0.26656524187766384,118.5232554154656
122.0,8.303061277222735,5.677950066557276,0.2662247056669285,118.66136431826753
123.0,8.206879419758055,5.7155808872800105,0.2660397274477902,118.73646050436746
124.0,8.121999773067554,5.756124509561831,0.26602702199714057,118.74162095393618
125.0,8.051008690130695,5.798711615364751,0.2662068275072228,118.66862045909348
126.0,7.996750041871708,5.842378023879806,0.2666039907475754,118.50755186279095
127.0,7.962317087719747,5.886075226027012,0.26724940458479374,118.24632380444525
128.0,7.951040163228032,5.928681926150495,0.26818204875695517,117.8699521908532
129.0,7.96646692291665,5.969018910259604,0.2694519042515092,117.35955341480602
130.0,8.012334823788718,6.005866786366394,0.27112422010993037,116.69087916467699
131.0,8.0925351906679,6.037986550230275,0.2732859528588507,115.83212039725225
132.0,8.21106825130403,6.064142752064618,0.2760556310135824,114.74057089656131
133.0,8.371987015920334,6.083131268732922,0.27959942915303615,113.35725058062594
134.0,8.621147905151528,6.051271567355573,0.2841571631102983,111.59832841337396
135.0,8.965613399951472,5.9581032659658515,0.29008632578852483,109.34090029232543
136.0,9.34513974186856,5.864747196347224,0.2979413022176413,106.39817596183303
137.0,9.76195891636326,5.771221442852705,0.3086079284005919,102.4799735262683
138.0,10.218334862203788,5.677545310537998,0.32350922599495774,97.14191048931276
139.0,10.716546894854728,5.583739327303087,0.3447206438739591,89.80307277658801
140.0,11.258870856031866,5.489825242326734,0.37402462990186147,80.18476796920714
141.0,11.847557753868795,5.395826022137353,0.40947095219203333,69.43248326497579
142.0,12.484810080512377,5.301765842939026,0.4444671660153256,59.8116416361438
143.0,13.172755880639585,5.207670079918393,0.4742859946741722,52.36159075915471
144.0,13.913420635130308,5.113565293133321,0.49839788236184734,46.78412017039846
145.0,14.708697038211065,5.01947920898788,0.5178708132878999,42.52762141169582
146.0,15.560321187078753,4.925432588953746,0.5338337941997258,39.1747483945816
147.0,16.44555183363641,4.8586280642159325,0.5471519653982183,36.45249718592454
148.0,17.376179155492846,4.817099320439795,0.5584467953167067,34.18449009596579
149.0,18.356500241233817,4.807667479119209,0.5681636577653278,32.2541422513975
150.0,19.396611768948212,4.835911829456869,0.5766270325009268,30.581925148421057
151.0,20.521553470120626,4.893988694628809,0.5840782835669208,29.111886849456795
152.0,21.746054766124146,4.9862999931692675,0.5907006573606502,27.803553200321733
153.0,23.088008921205358,5.119157269176584,0.5966359554339513,26.62691075493617
154.0,24.57118467658461,5.299286725053641,0.6019957395990658,25.559227287558215
155.0,26.22661710721355,5.533618716850625,0.6068691486167204,24.582945007973457
156.0,28.09403073513383,5.8290323407036535,0.6113282661547864,23.684291627514344
157.0,30.224017905443613,6.191257018038932,0.6154320434723216,22.85230549944579
158.0,32.686055963508544,6.614255859769251,0.6192291839562637,22.078144771582725
159.0,35.54761045432542,7.098305659674958,0.622760224228164,21.354603189194886
160.0,38.88165968873414,7.647110530419065,0.6260591626377,20.67574402453848
161.0,42.77137643515952,8.264062446256748,0.6291546878647177,20.03663157013481
162.0,47.31050957071803,8.952148791909877,0.6320711388454878,19.433127330616674
163.0,52.603538386902066,9.713859053788546,0.6348292610779352,18.861733868714637
164.0,58.76555343164501,10.551093053009211,0.6374468095676056,18.319473685767008
165.0,65.91951871719301,11.468001838891782,0.6399390348954785,17.80379420855344
166.0,74.19396060393518,12.48096724483759,0.6423190778794484,17.312492688442653
167.0,83.73846009465602,13.614542285710176,0.6445982931417666,16.843656246438975
168.0,94.73691874766365,14.899520018539295,0.646786516369753,16.395613644106707
169.0,107.41715001079866,16.37241005890693,0.6488922865451066,15.966896217899125
170.0,122.0594832454262,18.082914002093556,0.650923031625662,15.556206077967914
171.0,139.01782686117377,20.09705036646403,0.6528852255731917,15.162389867930761
172.0,158.74742586611245,22.49944069691387,0.6547845198529778,14.784417377498254
173.0,181.84273321110166,25.3879620431492,0.6566258558312883,14.421363673074737
174.0,209.06616903087001,28.86922900833485,0.658413560280821,14.0723942797248
175.0,241.3704343314612,33.06538300192867,0.6601514270200652,13.736752802553385
176.0,279.9326878461322,38.11436439557264,0.6618427868538421,13.41375055436178
177.0,326.1893911195924,44.168855425798746,0.6634905676688262,13.102757831746052
178.0,381.8688304387239,51.39526613496914,0.6650973465081539,12.803196497778869
179.0,449.0158706700573,59.985771524622365,0.6666653942306116,12.514533742656404
180.0,530.0358512244846,70.18286007250927,0.668196714038561,12.236276798468088
181.0,627.7842490517953,82.29986567117948,0.6696930753013736,11.967968357990246
182.0,745.6910617104334,96.7458717012372,0.6711560424435196,11.709182729142462
183.0,887.9335290202184,114.06878017226244,0.6725870004790221,11.459522464053176
184.0,1059.6928582330138,135.01002128988517,0.6739871768479947,11.21861551730311
185.0,1267.5252892724823,160.5510891286836,0.6753576607795376,10.98611273477494
186.0,1519.8223308195147,191.9525049432704,0.6766994199642113,10.761685711327196
187.0,1827.347343359599,230.80174139559017,0.6780133152240015,10.545024908354513
188.0,2203.8588471934827,279.05742378907155,0.6793001132848692,10.335838017874938
189.0,2666.8034719763637,339.08848187881506,0.6805604979859279,10.133848523292533
190.0,3238.0489637188934,413.7465253039636,0.6817950800892685,9.938794434529866
191.0,3944.72476485288,506.5097683117635,0.6830044058807592,9.75042717100812
192.0,4820.307656972691,621.6983365199602,0.6841889647172048,9.568510571555718
193.0,5906.08189422905,764.8020584635908,0.6853491956536107,9.392820013698712
194.0,7253.201743737052,942.9676120665616,0.6864854932684559,9.22314162719458
195.0,8925.67400140608,1165.6231786664214,0.6875982127899524,9.059271588678069
196.0,11004.484481533804,1445.2061019781736,0.6886876746053388,8.9010154876617
197.0,13593.005384813581,1797.9885876926921,0.6897541682306322,8.748187754623876
198.0,16823.787135319468,2244.9630681280237,0.6907979558197175,8.600611141062814
199.0,20866.681952022816,2812.8179801420456,0.6918192752542209,8.458116248070366
200.0,25938.312315734423,3535.190575905989,0.6928183428652037,8.320541097237658
201.0,32313.281512992897,4454.425637578546,0.693795355842556,8.187730736837906
202.0,40337.96444069616,5624.16877627071,0.694750494369401,8.05953687935979
203.0,50448.373075942174,7113.214741696958,0.6956839235066679,7.935817568975487
204.0,63194.242845133675,9010.876410641275,0.6965957948570448,7.816436874911708
205.0,79271.86632734418,11433.975498225587,0.6974862480456726,7.701264605863882
206.0,99568.11705215242,14535.431956341647,0.6983554120312626,7.5901760457086995
207.0,125217.4896292307,18514.37915124602,0.6992034062651344,7.483051708428792
208.0,157673.44657650133,23628.12727308659,0.7000303417236181,7.379777108137018
209.0,198795.95489216625,30206.99630227841,0.7008363218258903,7.280242544436011
210.0,250958.58415688734,38673.90349169908,0.7016214432475643,7.184342902275547
211.0,317181.4484497026,49571.422324543135,0.7023857966444026,7.0919774635129285
212.0,401301.71890514233,63599.252436411116,0.7031294672993156,7.003049729476349
213.0,508197.4109020383,81664.67167497192,0.7038525356974127,6.917467254778389
214.0,644081.8876925774,104947.65235479367,0.7045550780373766,6.835141490643884
215.0,816902.9648430331,134963.85945358753,0.7052205409147352,6.75645737439997
216.0,1036849.7209519771,173312.83376106908,0.7055808704942592,6.688815680491912
217.0,1316110.144915664,222064.54509691033,0.7055471223068035,6.634370944737385
218.0,1669666.8572809668,283892.3038655538,0.7051304102756707,6.592478044667344
219.0,2116070.5518521564,362107.54905814055,0.7043425132472393,6.562527007450549
220.0,2678223.7363706836,460813.2179444912,0.7031958223210482,6.543940245738575
221.0,3384346.062405757,585097.2275656972,0.7017032866270428,6.536170041668209
222.0,4268870.436033227,741842.105280095,0.6999840416192495,6.53586444264592
223.0,5375615.925261525,940678.8710419646,0.6983033604941422,6.53586444264592
224.0,6761324.033190814,1192283.3764793524,0.6966737113009291,6.53586444264592
225.0,8496159.022228362,1509806.702917197,0.6950961833422178,6.53586444264592
226.0,10666665.03289302,1909485.1745412697,0.6935718326178619,6.53586444264592
227.0,13379434.938075501,2411328.545009721,0.6921016808584639,6.53586444264592
228.0,16765552.004182823,3039976.4996101074,0.6906867146192529,6.53586444264592
229.0,20985713.878145028,3826553.0911947773,0.689327884407725,6.53586444264592
230.0,26238528.205303133,4811241.083676379,0.6880261038607557,6.53586444264592
231.0,32772293.76146328,6043900.893754858,0.6867822489676124,6.53586444264592
232.0,40896473.92048845,7586034.222002046,0.6855971573278131,6.53586444264592
233.0,50995552.30229137,9513388.004453147,0.6844716274670194,6.53586444264592
234.0,63545994.639546916,11919137.64380504,0.6834064181754521,6.53586444264592
235.0,79137051.42722945,14917804.476400977,0.6824022479103432,6.53586444264592
236.0,98496053.42555489,18651030.431912486,0.6814597942171173,6.53586444264592
237.0,122521271.68726985,23295708.221864644,0.6805796932097493,6.53586444264592
238.0,152326131.30070394,29072370.619397745,0.6797625390766668,6.53586444264592
239.0,189293615.75037053,36255052.19987032,0.6790088836316531,6.53586444264592
240.0,235143521.22797695,45183389.66183826,0.6783192359036259,6.53586444264592
241.0,292014800.33951163,56277512.729118235,0.6776940617538604,6.53586444264592
242.0,362567618.7641566,70056379.37782913,0.6771337835455098,6.53586444264592
243.0,450108895.2696222,87161544.71044962,0.6766387798264049,6.53586444264592
244.0,558749619.3747909,108388452.56598957,0.6762093850710221,6.53586444264592
245.0,693605738.8317024,134725520.7033485,0.675845889431502,6.53586444264592
246.0,861052282.4771769,167402060.72217065,0.6755485385432168,6.53586444264592
247.0,1069046062.3013165,207947372.50485486,0.6753175333471444,6.53586444264592
248.0,1327529583.619748,258263686.68363646,0.6751530299524415,6.53586444264592
249.0,1648941835.0288358,320716461.20686316,0.6750551395309045,6.53586444264592
250.0,2048856267.996114,398247821.6152158,0.6750239282340894,6.53586444264592
