Time,J,A,S,tau
0.0,100.0,10.0,0.7375835830707644,5.841857171569525
1.0,166.79810085989993,39.88113655734612,0.7360156005475759,5.821063707747687
2.0,347.80712110484444,67.43623058116142,0.7348578000781759,5.805563371813506
3.0,628.5824447030192,92.86831032959145,0.7341007402124722,5.795337499606009
4.0,996.3724073261424,116.36324007449473,0.7337356303513106,5.790365588636395
5.0,1439.92641737883,138.0909644599991,0.7337543209819875,5.790625672246839
6.0,1948.0945582409754,159.899986685692,0.7344915087487573,5.8006349495560485
7.0,2556.9857555841572,237.73037846455196,0.7367020768367493,5.8305115150534
8.0,3539.531678174091,390.308564422295,0.7388987782228829,5.86056456062019
9.0,5172.826042326552,607.3090545627642,0.7410810038884663,5.890786867765649
10.0,7681.932217975898,879.587300717898,0.7432481623644509,5.921171045676833
11.0,11247.263793362492,1199.0541610858484,0.7453996797874046,5.951709530610945
12.0,16010.655795992141,1559.0100298997395,0.7475349999324366,5.98239458540027
13.0,22104.162453326935,2025.6737714717538,0.749653584220541,6.013218299089646
14.0,30118.092439082964,2797.8371698247056,0.7517549116998131,6.044172586705471
15.0,41437.395409789715,4053.7562676718985,0.7538384790110334,6.075249189131037
16.0,58081.96889061075,5935.529802468683,0.7559038003259528,6.106439673126816
17.0,82540.23856379249,8554.161557167996,0.7579504072653174,6.1377354314802925
18.0,117630.51804393869,11993.999208835434,0.7599778487960401,6.169127683289723
19.0,166382.11638158176,16352.332194040926,0.7619856911085212,6.200607474384665
20.0,232325.2418949338,22057.537131577625,0.7639735174754987,6.2321656778773376
21.0,321209.51552405104,30063.88826968671,0.7659409280897085,6.263792994873611
22.0,442978.1834782651,41740.45316799943,0.7678875398867755,6.295479955306286
23.0,613171.6154098392,58755.853816753435,0.7698129863496995,6.327216918924326
24.0,853827.729959774,82982.05403654289,0.7717169172975009,6.35899407642619
25.0,1193974.794634821,116416.97823691723,0.7735989986584298,6.390801450744794
26.0,1669846.8188562798,161320.5128243589,0.7754589122286542,6.422628898484703
27.0,2326452.5128947035,221216.9117656602,0.7772963554173886,6.45446611151449
28.0,3223920.315645341,302225.5441486041,0.7791110409788976,6.4863026187185415
29.0,4448674.348621943,414032.5857125649,0.7809026967327051,6.518127787909003
30.0,6127706.927951653,570509.6340986199,0.7826710652724254,6.549930827903803
31.0,8444462.349927112,790046.2392180432,0.7844159036640257,6.581700790775161
32.0,11655171.472181508,1095666.8223040744,0.7861369831344859,6.613426574270645
33.0,16104943.128189264,1515502.8531114797,0.7878340887515471,6.645096924412168
34.0,22246921.263849597,2085689.9375848155,0.7895070190953084,6.676700438277808
35.0,30676080.456168495,2856643.76422111,0.7911555859224676,6.708225566971141
36.0,42189851.3940793,3901739.0949266343,0.7927796138237475,6.739660618785924
37.0,57882862.0924751,5327322.612964479,0.794378939875325,6.770993762570994
38.0,79278727.21607308,7283216.138561303,0.7959534132849877,6.802213031301546
39.0,108498527.97744939,9973078.091553692,0.7975028950336294,6.833306325864417
40.0,148463461.78672913,13664951.612587735,0.7990272575127382,6.864261419064732
41.0,203133774.59001058,18706613.15710569,0.8005263841584995,6.895065959861971
42.0,277809817.53031266,25554083.04485715,0.8020001690829585,6.925707477845658
43.0,379552461.826119,34819868.46404497,0.803448516702966,6.956173387957515
44.0,517800084.1946265,47344319.251430206,0.8048713413674184,6.986450995470037
45.0,705266301.4402772,64290943.75037245,0.8062685669832843,7.016527501231397
46.0,959200054.8124822,87264656.23624615,0.8076401266409428,7.04639000718632
47.0,1303080672.7238083,118451199.22010614,0.8089859622392473,7.076025522184395
48.0,1768812160.3167515,160781630.5591541,0.8103060241107105,7.105420968086344
49.0,2399508362.2341156,218143323.27599454,0.8116002706474158,7.134563186177951
50.0,3253056689.3598237,295678026.5578853,0.8128686679276813,7.163438943901949
51.0,4406821798.506311,400218468.1624395,0.814111189344736,7.192034941920293
52.0,5964018188.77618,540917893.4721885,0.8153278152361544,7.220337821519879
53.0,8062493770.811654,730124840.4204507,0.8165185325165165,7.248334172363568
54.0,10886794890.667662,984547788.5426615,0.8176833343113196,7.276010540608016
55.0,14684554619.850164,1326751482.3972554,0.8188222195947273,7.3033534373873055
56.0,19788308106.02291,1787043006.9989507,0.819935192829216,7.3303493476798485
57.0,26644139670.524662,2405875139.6440444,0.8210222636095557,7.356984739560569
58.0,35848979901.18068,3236995492.1243477,0.8220834463093005,7.383246073849117
59.0,48199412660.08175,4351699756.539191,0.8231187597320371,7.409119814159605
60.0,64756027095.12264,5844660365.684509,0.8241282267657287,7.43459243735419
61.0,86929302213.42825,7841921830.476579,0.8251118740421793,7.459650444409885
62.0,116594777160.20581,10511722475.995909,0.8260697316001652,7.484280371690757
63.0,156247891305.02045,14078901517.98434,0.8270018325539977,7.508468802639158
64.0,209210888179.82907,18843747503.567085,0.8279082127663182,7.532202379866233
65.0,279907772319.65405,25206489027.92469,0.8287889105266004,7.55546781766003
66.0,374226741013.14923,33699123463.34615,0.8296439662344444,7.578251914877835
67.0,499996882578.96423,45027208770.64676,0.830473422088836,7.6005415682461
68.0,667614199847.5913,60125249790.98134,0.8312773217827593,7.6223237860194715
69.0,890867142192.1057,80230810545.26292,0.8320557102040198,7.643585702027559
70.0,1188028009237.5574,106983795388.79393,0.8328086331419895,7.664314590044674
71.0,1583302329055.3604,142559269400.88614,0.8335361370008092,7.684497878516633
72.0,2108753859690.6243,189843726363.01715,0.8342382685190894,7.704123165562625
73.0,2806861873278.7847,252667763014.86826,0.8349150744963262,7.723178234291872
74.0,3733906838288.5947,336111265106.86487,0.8355666015263948,7.741651068335393
75.0,4964444841631.904,446903856146.5541,0.8361928957380387,7.7595298676381965
76.0,6597203438788.167,593950535050.987,0.8367940025430209,7.776803064394583
77.0,8762851950614.868,789025424423.2429,0.8373699663916543,7.793459339176226
78.0,11634232721157.479,1047689883466.3115,0.8379208305362261,7.809487637126919
79.0,15439874779532.28,1390511382706.7847,0.8384466368026999,7.824877184250863
80.0,20481848725628.883,1844681999466.9753,0.8389474253705047,7.839617503711685
81.0,27159392260035.92,2446163687443.2495,0.8394232345609873,7.853698432096144
82.0,36000183769965.484,3242524738992.093,0.8398741006346514,7.867110135601664
83.0,47701721699024.56,4296681139176.4395,0.8403000575974148,7.879843126092464
84.0,63186035991222.07,5691825341545.819,0.840701137016104,7.891888276974543
85.0,83671941328685.19,7537919398826.199,0.8410773678433662,7.903236838824845
86.0,110770429467977.23,9980258031500.746,0.8414287762524719,7.913880454716069
87.0,146610606548826.4,13210782955634.824,0.8417553854820192,7.923811175190075
88.0,194006048502331.25,17483056556389.0,0.8420572156908386,7.933021472818469
89.0,256674732918403.8,23132101306176.203,0.8423342838232376,7.941504256298361
90.0,339529962824278.2,30600688006395.87,0.8425866034848888,7.949252884009159
91.0,449065543801065.9,40474150529983.19,0.8428141848296751,7.956261176981642
92.0,593865881981799.8,53526461717459.53,0.84301703445751,7.962523431229834
93.0,785281655909335.6,70781174449389.11,0.8431951553234102,7.9680344293894105
94.0,1038324681817822.2,93592021514324.6,0.8433485466578646,7.9727894516154985
95.0,1372852906350621.0,123749537756733.05,0.8434772038989147,7.976784285668875
96.0,1815140100557756.8,163622231073357.34,0.8435811186360125,7.980015236161909
97.0,2399955747469321.5,216343699501364.4,0.8436602785657188,7.98247913292035
98.0,3173322934332068.5,286060894082343.9,0.8437146674594322,7.984173338421958
99.0,4196176924702626.0,378263784506499.94,0.8437442651431238,7.985095754275017
100.0,5549222154079843.0,500223204491736.44,0.8437490474894976,7.985244826686238
101.0,7339384727566772.0,661572545300217.5,0.8437289864224278,7.984619550913035
102.0,9708388728366242.0,875080625643254.9,0.8436840499337539,7.983219474672177
103.0,1.2844161972807478e+16,1157678803707239.5,0.8436142021124928,7.981044700491549
104.0,1.699600600009013e+16,1531826536839210.5,0.8435194031864234,7.978095886982572
105.0,2.2494784572705916e+16,2027327694073918.0,0.8433996095763377,7.9743742490175435
106.0,2.9779803926095772e+16,2683748630513588.5,0.8432547739626826,7.969881556828944
107.0,3.943462500609981e+16,3553640134901105.0,0.8430848453646445,7.9646201340268865
108.0,5.22348129936258e+16,4706834544589477.0,0.8428897692315935,7.958592854549324
109.0,6.921163049713802e+16,6236180828710510.0,0.8426694875468549,7.951803138540623
110.0,9.173708161418814e+16,8265202965906738.0,0.8424239389438914,7.944254947182206
111.0,1.2163753817977024e+17,1.0958333335891102e+16,0.842153058834586,7.935952776509997
112.0,1.6134567108616458e+17,1.4534593949737038e+16,0.8418567795496094,7.926901650241495
113.0,2.1410373226275328e+17,1.928590023255395e+16,0.8415350304906593,7.917107111650408
114.0,2.8423566272827456e+17,2.5601562451204976e+16,0.8411877382945663,7.906575214504139
115.0,3.775116553030543e+17,3.4001109170754484e+16,0.8408148270091237,7.895312513120873
116.0,5.016368953899448e+17,4.517830006503833e+16,0.8404162182803556,7.883326051592642
117.0,6.669073696260072e+17,6.006019498439933e+16,0.8399918315511279,7.870623352219689
118.0,8.870904247650833e+17,7.988651079394638e+16,0.8395415842707963,7.857212403207196
119.0,1.1806080307556332e+18,1.0631630295782318e+17,0.8390653921158949,7.843101645658931
120.0,1.5721283288906988e+18,1.4157150898536277e+17,0.8385631692215544,7.828299959941785
121.0,2.0947080117096364e+18,1.8863024561450477e+17,0.838034828423405,7.812816651473108
122.0,2.792678982125414e+18,2.514873192299265e+17,0.8374802815097996,7.796661435989006
123.0,3.7255400044070113e+18,3.3550564172455846e+17,0.8368994394840079,7.779844424346071
124.0,4.973208080183028e+18,4.4789059373697606e+17,0.836292212836348,7.762376106905977
125.0,6.64311074206322e+18,5.983310177728091e+17,0.8356585118258808,7.744267337575886
126.0,8.87977278618483e+18,7.998661900705125e+17,0.8349982467714456,7.725529317556182
127.0,1.1877787839748704e+19,1.0700596568461641e+18,0.834311328351819,7.706173578854285
128.0,1.5899380254638645e+19,1.4325900791960916e+18,0.8335976679146362,7.686211967610023
129.0,2.129820806400467e+19,1.9194089838924155e+18,0.8328571777939873,7.665656627287176
130.0,2.8551652886823735e+19,2.5736704992334387e+18,0.8320897716363166,7.644519981790381
131.0,3.83046647062612e+19,3.453712882374446e+18,0.8312953647344081,7.622814718552443
132.0,5.142935338211514e+19,4.638475132056326e+18,0.8304738743691985,7.600553771640852
133.0,6.910603377859367e+19,6.234872411654333e+18,0.8296252201590357,7.577750304918137
134.0,9.293357309433879e+19,8.387848033055804e+18,0.8287493244162633,7.5544176953046955
135.0,1.2507976067293805e+20,1.1294088205955777e+19,0.8278461125107711,7.530569516184267
136.0,1.6848642917937994e+20,1.522075286625815e+19,0.8269155132402852,7.5062195209860185
137.0,2.271495022685858e+20,2.0531086658803204e+19,0.8259574592070749,7.481381626976022
138.0,3.0650164777269907e+20,2.7719466606165656e+19,0.824971887200676,7.45606989928204
139.0,4.1393570662924504e+20,3.745941377642815e+19,0.8239587385864777,7.430298535185736
140.0,5.5952131151147867e+20,5.066943239789023e+19,0.8229179596998019,7.404081848704572
141.0,7.569870630912197e+20,6.860338701969044e+19,0.8218495022452241,7.377434255484293
142.0,1.0250676383581015e+21,9.297470228264432e+19,0.8207533237007049,7.350370258018428
143.0,1.3893532025169293e+21,1.261271831861778e+20,0.8196293877260997,7.3229044312096745
144.0,1.8848309542207454e+21,1.712702186945747e+20,0.8184776645758594,7.295051408289871
145.0,2.559380990783407e+21,2.3280296718095165e+20,0.8172981315154882,7.266825867107557
146.0,3.4785900183948477e+21,3.1676166815094827e+20,0.8160907732414655,7.23824251679166
147.0,4.732383921840333e+21,4.314375004933664e+20,0.8148555823040177,7.209316084795868
148.0,6.444176331410422e+21,5.882307354045877e+20,0.8135925595323005,7.18006130433066
149.0,8.783499019981598e+21,8.028328683235811e+20,0.8123017144617203,7.150492902185459
150.0,1.1983455571058601e+22,1.0968642668934277e+21,0.8109830657628615,7.120625586941721
151.0,1.6364864396889478e+22,1.5001453245776056e+21,0.8096366416716454,7.090474037575996
152.0,2.236967479997907e+22,2.0538492282407677e+21,0.8082624804198688,7.060052892452096
153.0,3.060726917126477e+22,2.814882473713606e+21,0.8068606306657022,7.029376738702044
154.0,4.191867285781553e+22,3.8619778124168393e+21,0.8054311519237307,6.998460101990461
155.0,5.746568316353966e+22,5.304177169092517e+21,0.8039741149938798,6.967317436658847
156.0,7.885469470161597e+22,7.292654838332507e+21,0.8024896023887383,6.9359631162435
157.0,1.0830883859689272e+23,1.0037210042905655e+22,0.800977708758144,6.904411424365826
158.0,1.4890753772551997e+23,1.3829294463553741e+22,0.7994385413106904,6.872676545988508
159.0,2.0492013055397737e+23,1.9074195838986365e+22,0.7978722202315023,6.8407725590304
160.0,2.8227095024019792e+23,2.6336059567481257e+22,0.7962788790955361,6.808713426334673
161.0,3.891880738108595e+23,3.640093530701641e+22,0.7946586652757184,6.776512987982981
162.0,5.3710896113446044e+23,5.03651288214678e+22,0.7930117403445858,6.744184953955823
163.0,7.419458351395773e+23,6.975913425627227e+22,0.7913382804691454,6.711742897128506
164.0,1.0258549714833272e+24,9.67216304236604e+22,0.7896384767980529,6.679200246597293
165.0,1.4197128363144256e+24,1.3424397988793007e+23,0.7879125358403232,6.646570281329518
166.0,1.966583047425653e+24,1.865141184145684e+23,0.7861606798346075,6.61386612413302
167.0,2.7265746785704524e+24,2.5940055049432788e+23,0.7843831471076725,6.5811007359449
168.0,3.7836551692316926e+24,3.611341483804924e+23,0.7825801924217922,6.54828691042816
169.0,5.255210750540438e+24,5.032693493948098e+23,0.7807520873099496,6.515437268873085
170.0,7.305473198928604e+24,7.020403857281874e+23,0.7788991203980846,6.482564255396832
171.0,1.0164382540258118e+25,9.80276369402448e+23,0.7770215977130895,6.449680132440893
172.0,1.4154108899793963e+25,1.370107156438702e+24,0.7751198429753928,6.416796976563736
173.0,1.9726364097836498e+25,1.9167895927164458e+24,0.7731941978757372,6.3839266745188175
174.0,2.751492653949007e+25,2.6841216591090766e+24,0.7712450223349742,6.351080919615998
175.0,3.8409628072249647e+25,3.762109468693488e+24,0.7692726947461797,6.318271208359805
176.0,5.366059934272768e+25,5.277830819705422e+24,0.7672776121974887,6.285508837368124
177.0,7.50252612478638e+25,7.410836780943681e+24,0.7652601906749111,6.252804900564007
178.0,1.0497567513857249e+26,1.0415001690245861e+25,0.7632208652445646,6.220170286633796
179.0,1.4699121570281731e+26,1.4649538718480258e+25,0.7611600902132318,6.1876156767489725
180.0,2.059717057873602e+26,2.062306292251126e+25,0.7590783392670922,6.155151542542792
181.0,2.8882132173936424e+26,2.905617351433576e+25,0.756976105584549,6.122788144363776
182.0,4.0527337593078464e+26,4.0970474693329576e+25,0.7548539019277698,6.09053552975587
183.0,5.6905641180722054e+26,5.781518111436037e+25,0.7527122607073219,6.0584035322040215
184.0,7.995434026004829e+26,8.164728847511061e+25,0.7505517340213662,6.026401770118667
185.0,1.124084757356884e+27,1.1538809582105364e+26,0.7483728936682938,5.994539646059984
186.0,1.5813097403700432e+27,1.631885589013807e+26,0.7461763311321281,5.96282634619689
187.0,2.225799595436798e+27,2.3094987634772924e+26,0.7439626575401495,5.931270839995123
188.0,3.134704485742799e+27,3.270654298086227e+26,0.7417325035918608,5.899881880131941
189.0,4.417113810047975e+27,4.634786612146964e+26,0.7394865194590523,5.868668002630833
190.0,6.227329192831805e+27,6.571917567584926e+26,0.7372253746565053,5.8376375272099565
191.0,8.783668676076405e+27,9.324178348500497e+26,0.7349497578829022,5.80679855783942
192.0,1.2395110603962058e+28,1.3236518414928023e+27,0.7326603768316571,5.776158983501389
193.0,1.7499051402606308e+28,1.8800533452727656e+27,0.7303579579714629,5.745726479146414
194.0,2.4714821523138784e+28,2.6717022145860346e+27,0.7280432462960696,5.715508506842596
195.0,3.4919532961619205e+28,3.798529286678948e+27,0.7257170050435569,5.685512317109054
196.0,4.935558899947923e+28,5.40306717084481e+27,0.7233800153849685,5.655744950427047
197.0,6.978307505814087e+28,7.68865668132273e+27,0.7210330760823614,5.626213238922643
198.0,9.869575911151639e+28,1.0945445056689796e+28,0.7186770031164503,5.596923808213881
199.0,1.3962726338236396e+29,1.5587512085022237e+28,0.7163126292840414,5.567883079415231
200.0,1.9758502992144594e+29,2.2205883416637254e+28,0.7139408037653481,5.539097271295
201.0,2.7966532049523128e+29,3.1644230313514705e+28,0.711562391661918,5.51057240257592
202.0,3.9592472738551636e+29,4.510695638283275e+28,0.7091782735054941,5.482314294372249
203.0,5.6061501099779906e+29,6.431351322680953e+28,0.7067893447383723,5.454328572756499
204.0,7.939323901905757e+29,9.17186964757018e+28,0.7043965151659587,5.426620671448166
205.0,1.1244954568277387e+30,1.3082708591264492e+29,0.7020007083821128,5.3991958346174584
206.0,1.5928542968920235e+30,1.8664176375361207e+29,0.6996028611680425,5.372059119798731
207.0,2.2564587053744174e+30,2.6630454473215065e+29,0.6972039228658391,5.345215400903813
208.0,3.1966907366517303e+30,3.800092378878398e+29,0.6948048547274799,5.318669371328835
209.0,4.5288166009546464e+30,5.423040440334117e+29,0.6924066292403314,5.2924255471475705
210.0,6.41606509199532e+30,7.73948442361615e+29,0.6900102294303129,5.266488270383687
211.0,9.089540529685062e+30,1.1045597551030228e+30,0.687616648143688,5.240861712355807
212.0,1.2876375707474904e+31,1.5763839101277174e+30,0.6852268873088322,5.215549877089383
213.0,1.8239521604904553e+31,2.2496661534237114e+30,0.6828419571793195,5.190556604786603
214.0,2.583396476045393e+31,3.210297628511284e+30,0.68046287555958,5.165885575348474
215.0,3.658612370899139e+31,4.580697929838739e+30,0.6780906670145269,5.141540311942577
216.0,5.1805932852035495e+31,6.535297218006188e+30,0.6757263620646171,5.117524184609587
217.0,7.3345033404430795e+31,9.322551130467066e+30,0.6733709963676258,5.093840413903607
218.0,1.0381990772216333e+32,1.3296230984957466e+31,0.6710256098888472,5.070492074560194
219.0,1.4692649941652579e+32,1.8959876394609575e+31,0.6686912460611849,5.047482099184876
220.0,2.078836343104783e+32,2.7029915375797793e+31,0.666368950936647,5.0248132819571065
221.0,2.9405767436133794e+32,3.8525245961463596e+31,0.6640597723308275,5.002488282344088
222.0,4.158420481516127e+32,5.489431077683437e+31,0.6617647589619368,4.98050962881858
223.0,5.878952675422066e+32,7.819524760495397e+31,0.6594849595858618,4.958879722577074
224.0,8.308823823334866e+32,1.113511495216382e+32,0.6572214221290182,4.937600841252495
225.0,1.1739235941387682e+33,1.58511546021652e+32,0.6549751928204443,4.916675142616076
226.0,1.6580354746628477e+33,2.2556400851765717e+32,0.6527473153246948,4.896104668264282
227.0,2.340964610984385e+33,3.2085780880787837e+32,0.6505388298770739,4.875891347286298
228.0,3.3039737939611534e+33,4.5622694888686086e+32,0.6483507724226735,4.8560369999075395
229.0,4.661365906370583e+33,6.4843543472958906e+32,0.646184173760706,4.8365433411066725
230.0,6.573840787573185e+33,9.212179086387002e+32,0.6440400586956653,4.8174119842010255
231.0,9.267220017959439e+33,1.308159095904727e+33,0.6419194451965942,4.798644444396787
232.0,1.3058683424829888e+34,1.856754339350255e+33,0.63982334356584,4.780242142300824
233.0,1.839351074087683e+34,2.63413222413916e+33,0.6377527556185879,4.762206407390731
234.0,2.5896512781614436e+34,3.735114771812159e+33,0.6357086738743597,4.744538481439986
235.0,3.644399430227306e+34,5.293562217639437e+33,0.6336920807617991,4.7272395218964585
236.0,5.12643811709434e+34,7.498331715458959e+33,0.6317039478378011,4.710310605210242
237.0,7.207887527554743e+34,1.0615712233441193e+34,0.6297452350219918,4.69375273010859
238.0,1.012979644313247e+35,1.5020944292203525e+34,0.6278168898475687,4.677566820815742
