Time,J,A,S,tau
0.0,100.0,10.0,0.6697949336030063,38.58263154351515
1.0,99.68330892674398,9.056339027203146,0.6685981342861435,39.56741138280031
2.0,99.3778324570118,8.20610706259068,0.6674190734862232,40.55319298065531
3.0,99.08256212031252,7.440164722820681,0.6662572843279365,41.53976116379354
4.0,98.79676208131798,6.750016631544532,0.6651121701035827,42.5270502144381
5.0,98.51975297230759,6.128028377314389,0.6639831280420659,43.515000072700666
6.0,98.25090657535742,5.567352876148181,0.6628695516531165,44.503555789720245
7.0,97.98964120403737,5.061839019393053,0.6617708327353311,45.492667051374426
8.0,97.73541717485494,4.605963996868875,0.660686363078826,46.48228771297841
9.0,97.4877331513049,4.194769591394456,0.6596155359069724,47.47237542196095
10.0,97.24612235927164,3.8237987543946805,0.6585577470579828,48.46289122956398
11.0,97.0101495949711,3.489051993928479,0.6575123959864315,49.453799282479814
12.0,96.77940814976385,3.1869313252376745,0.656478886542362,50.44506650777316
13.0,96.55351727120996,2.914207990629096,0.6554566276165996,51.4366623522305
14.0,96.33211971374023,2.667976841745922,0.6544450336240403,52.42855853168081
15.0,96.11487953968282,2.4456294285659204,0.6534435248568159,53.42072880651446
16.0,95.90148017117568,2.244818970721242,0.6524515277520636,54.413148782507754
17.0,95.6916224933305,2.0634376847716256,0.6514684750170154,55.40579571833206
18.0,95.4850232656021,1.8995893982550065,0.6504938057300835,56.39864836343173
19.0,95.28141351161484,1.7515706797502237,0.6495269653017928,57.39168679541598
20.0,95.0805371587845,1.617847867952585,0.6485674054291923,58.38489228185304
21.0,94.88214972391489,1.4970442262243064,0.6476145839654459,59.37824714761676
22.0,94.68601709179595,1.3879196312995399,0.6466679647405956,60.37173465169772
23.0,94.49191443923827,1.289361055400545,0.6457270173770391,61.365338878243364
24.0,94.29962513517401,1.2003658627592786,0.6447912170099672,62.35904462631688
25.0,94.10893983432369,1.1200343468981284,0.6438600440657701,63.352837317448575
26.0,93.91965550205448,1.0475576685702672,0.6429329839282744,64.34670289795066
27.0,93.73157457236024,0.9822078955749692,0.6420095266476704,65.34062775316394
28.0,93.54450413734286,0.9233322281613109,0.6410891666325516,66.33459862456122
29.0,93.35825513056018,0.8703440655173095,0.6401714022902657,67.32860252699078
30.0,93.17264159130823,0.8227168515340926,0.6392557357122852,68.32262667222426
31.0,92.98747992776941,0.7799788116892831,0.6383416723372106,69.31665839223577
32.0,92.80258819269028,0.7417072946299075,0.6374287206025455,70.31068506359304
33.0,92.61778538403276,0.7075236303255855,0.6365163916144384,71.30469403319798
34.0,92.43289075012818,0.6770897527645913,0.6356041988330591,72.29867254301844
35.0,92.24772308901072,0.650104186402996,0.6346916577554166,73.29260765371335
36.0,92.06210005060119,0.6262985605074167,0.6337782856134816,74.28648616750554
37.0,91.87583742196776,0.605434951190774,0.6328636010961679,75.28029454734208
38.0,91.68874840815951,0.5873031262778101,0.6319471240860068,76.27401883479587
39.0,91.50064289095606,0.5717177776681295,0.6310283754252318,77.26764456364893
40.0,91.31132663322549,0.5585174573460171,0.6301068767094314,78.26115666514302
41.0,91.12060051021446,0.5475616684714126,0.6291821501099776,79.254539375987
42.0,90.92825960839309,0.5387304276442247,0.6282537182384015,80.2477761271403
43.0,90.73409240735785,0.5319217703669268,0.6273211040488839,81.24084944271176
44.0,90.53787972587743,0.5270513024835625,0.6263838307937132,82.23374080573444
45.0,90.33939389263212,0.5240501490038092,0.6254414220258594,83.22643055259894
46.0,90.13839769516035,0.5228667273471512,0.6244934016474302,84.21889773689706
47.0,89.93464243138828,0.5234649699702635,0.6235392940934856,85.21111987048191
48.0,89.72786920638234,0.5258109793837044,0.622578624420418,86.20307309374535
49.0,89.51780118077194,0.529914334840102,0.6216109189611893,87.19473114730286
50.0,89.30415226266813,0.5357781246695703,0.6206357049826425,88.18606652098849
51.0,89.08661635622991,0.5434182692386204,0.6196525119883949,89.17704900689876
52.0,88.86486998647455,0.5528660521118997,0.6186608719121287,90.16764604442376
53.0,88.63857043794559,0.5641689828777261,0.6176603197220486,91.15782246134637
54.0,88.40735110609447,0.5773929672612927,0.6166503948232501,92.1475398276511
55.0,88.1708223548962,0.5926135099646543,0.6156306415488444,93.13675655234213
56.0,87.9285672473631,0.6099235097421795,0.6146006106966782,94.12542728408187
57.0,87.68013942865248,0.6294331163893153,0.613559860826361,95.11350259742913
58.0,87.42505976066029,0.6512711171114359,0.6125079600254704,96.1009285017328
59.0,87.16281304269314,0.6755851241897572,0.6114444878484119,97.0876459544074
60.0,86.89284532380981,0.7025415457586794,0.6103690371703121,98.07359045264444
61.0,86.61455905685428,0.7323292538361055,0.6092812169530225,99.05869131614462
62.0,86.32730916194654,0.7651609078108141,0.6081806549140846,100.04287108835406
63.0,86.03039827679844,0.8012747514834591,0.6070670006880117,101.02604481423066
64.0,85.72307159028848,0.8409368384757917,0.6059399293673254,102.00811924912331
65.0,85.40451118064111,0.8844435096243098,0.6047991454739587,102.98899198606826
66.0,85.07382978057707,0.9321242248382444,0.6036443874178596,103.9685504887353
67.0,84.73006409434772,0.9843453531257875,0.6024754323854495,104.94667104784718
68.0,84.37216728651237,1.0415107222181534,0.6012921019169333,105.92321759784151
69.0,83.99900092986181,1.1040682554561152,0.6000942679596333,106.89804044507423
70.0,83.60932622176857,1.1725128930883109,0.5988818595902103,107.87097486637298
71.0,83.20179443508468,1.2473908999707426,0.5976548704049942,108.84183957578274
72.0,82.77493657568291,1.329304514721798,0.5964133666163614,109.81043505153083
73.0,82.32715221569937,1.418916939722053,0.595157495885888,110.77654171556814
74.0,81.85669748074938,1.5169576634822497,0.5938874969174849,111.73991795911597
75.0,81.36167218208027,1.6242280966667004,0.5926037098232442,112.70029800924054
76.0,80.84000610393242,1.7416074656496885,0.5913065872591066,113.65738963406939
77.0,80.28944447109141,1.870058696335827,0.5899967063148107,114.61087168591699
78.0,79.707532571622,2.010635189449207,0.5886747811693179,115.56039147443538
79.0,79.0915998415752,2.1644871199204356,0.5873416762964642,116.50556201158096
80.0,78.4387433877204,2.332867690937822,0.5859984202166533,117.44595911978585
81.0,77.74581115459301,2.5171392637771475,0.5846462196297167,118.38111842993305
82.0,77.00938499913512,2.718779082724017,0.5832864737143324,119.31053230446365
83.0,76.22576399467177,2.9393843522252134,0.5819207883269943,120.2336467302495
84.0,75.39094836862834,3.1806763726515253,0.5805509897631994,121.1498582390885
85.0,74.50062457128236,3.4445033860234906,0.5791791376644317,122.05851092877347
86.0,73.55015207477881,3.732841725269472,0.5778075365676905,122.95889367451834
87.0,72.53455261035705,4.0477948024284105,0.5764387455016506,123.85023763878834
88.0,71.44850266714663,4.391589354836926,0.5750755849358068,124.73171420729888
89.0,70.28633017089719,4.766567758787535,0.5737211403096875,125.60243349490067
90.0,69.04201626457348,5.1751784729521,0.5723787613404306,126.46144356906659
91.0,67.7092036617368,5.619960554507176,0.5710520559108778,127.30773063137696
92.0,66.28121242683905,6.10352308960189,0.5697448777832823,128.14022029632625
93.0,64.75106439984808,6.628519260082698,0.568461307112489,128.9577801712177
94.0,63.111517411115706,7.197614366557062,0.5672056227942696,129.7592239321783
95.0,61.35511028308736,7.813447529124735,0.5659822658090999,130.54331707023513
96.0,59.47937369291952,8.479842862823157,0.5647957929324983,131.30878437635698
97.0,61.35409560446587,10.062897312748134,0.5636508200722813,132.0543196926896
98.0,64.03334829859767,11.770217744721682,0.5625519562980621,132.77859693399466
99.0,67.59223247222975,13.597658515142054,0.5615037272489155,133.4802835988313
100.0,72.16318965506522,15.551257422445689,0.5605104901110222,134.15805577123518
101.0,77.89385001870899,17.63672885988444,0.559576341080537,134.810614649337
102.0,84.9480268430169,19.859355210249788,0.5587050173563788,135.4367042039499
103.0,93.50662658714064,22.22387633293549,0.5578997963207238,136.03512947555035
104.0,103.76844344875765,24.734380557867244,0.5571633948091576,136.6047749528145
105.0,115.95080638517483,27.3942009631479,0.5564978718171838,137.14462239548186
106.0,130.29004427455817,30.205820883132812,0.5559045381315626,137.65376743028511
107.0,147.04173700264096,33.17079246743903,0.55538387632812,138.13143425417624
108.0,166.48072292952855,36.28967174053619,0.5549354743069761,138.5769878296023
109.0,188.90083706420847,39.5619729665042,0.5545579750148009,138.98994305636785
110.0,214.61436078205716,42.986144278143676,0.5542490443310013,139.36997053721683
111.0,243.95116587438173,46.55956600471492,0.5540053587515763,139.7168986412665
112.0,277.2575470301384,50.27857028911398,0.553822611576566,140.03071206793766
113.0,314.89473270379955,54.13848392590339,0.5536955404336344,140.31154650544676
114.0,357.23708912200294,58.1336881592516,0.5536179698419222,140.55968044830803
115.0,404.67005792979955,62.25769426909317,0.5535828691020521,140.77552421971953
116.0,457.5877607849846,66.50323602193052,0.5535824268550894,140.95960614889526
117.0,516.3903618554874,70.86236530988064,0.5536081285172335,141.11255813144797
118.0,581.4812359928102,75.32655867441933,0.5536508477191108,141.23509909012657
119.0,653.2638308367762,79.88682054171791,0.5537009337525531,141.32801909884574
120.0,732.1384760356527,84.53378971833757,0.553748307516135,141.39216262818584
121.0,818.4989154226266,89.25783643216482,0.5537825484086055,141.42841337122985
122.0,912.7287557464425,94.04915668374629,0.5537929826026996,141.43767944300728
123.0,1015.1979010921124,98.89785645194321,0.5537687650067251,141.42088011043606
124.0,1126.2587915096628,103.79402670436957,0.5536989541584122,141.37893404589283
125.0,1246.2427549101405,108.72780771452425,0.553572581436659,141.31274916799137
126.0,1375.45615361421,113.68944588785266,0.5533787133683279,141.22321397510677
127.0,1514.1768607792026,118.66933637759743,0.5531065067503252,141.11119074109396
128.0,1662.650464610619,123.65806222390908,0.5527452583921624,140.97750984750382
129.0,1821.0866361748156,128.64642173933876,0.5522844494542061,140.82296559853367
130.0,1989.655503537408,133.62544899041808,0.5517137852943274,140.6483132603321
131.0,2168.48587561926,138.58641621407705,0.5510232192353135,140.4542688266937
132.0,2357.6600293139136,143.52087022843125,0.5502029989948266,140.2415053273197
133.0,2557.2098319846705,148.42061356105555,0.5492436978812435,140.0106536462249
134.0,2767.1215952703997,153.27769374161687,0.548136193072155,139.7623074074062
135.0,2987.32069005739,158.08445087275774,0.5468717768270834,139.49701496982541
136.0,3217.683910874783,162.8334317001621,0.5454420747563276,139.2152920570072
137.0,3458.025384879954,167.51748842182647,0.5438391684796076,138.91761245474603
138.0,3708.1036548825914,172.12966212637573,0.5420555363355638,138.60441939171304
139.0,3969.8634802723154,171.9507775221827,0.6045750720768187,68.56256267413998
140.0,4229.544013790836,167.8444360045335,0.6289213565948115,50.37280002452622
141.0,4479.632291125051,165.241567085847,0.6358968576294651,44.39777495653822
142.0,4723.949775626252,179.28884295221565,0.6380281828640563,40.933375409532545
143.0,4996.5246324427835,201.2558386121719,0.6377297376270608,38.54971476537431
144.0,5313.878301139868,230.29359113493453,0.6359315358094618,36.762412649648006
145.0,5691.1874682755315,266.03058194956463,0.6330997056811982,35.35003817705366
146.0,6143.095639365639,308.30537520104355,0.6295052668545731,34.19323921289199
147.0,6684.035387334979,357.0589836330561,0.6253219020235503,33.22054416820297
148.0,7328.3483329840865,412.2822522958307,0.6206690225541991,32.38586929704888
149.0,8090.298428348923,473.986634854553,0.6156332202761464,31.65784696713053
150.0,8984.022833778232,542.1860707700968,0.6102800043446336,31.014221496152548
151.0,10023.44681036156,616.8847608819906,0.6046606801206953,30.43867810966086
152.0,11222.170956008473,698.0684748226,0.598816608128379,29.91893895734596
153.0,12593.339522704819,785.6982448223786,0.5927819670348934,29.445561394791856
154.0,14149.481224098292,879.7057305630551,0.5865855931616493,29.011156565101388
155.0,15902.376746209751,979.989322876239,0.5802522595156709,28.60985510846061
156.0,17862.871515370713,1086.412104002111,0.5738035921258602,28.23693467132538
157.0,20040.744267798596,1198.7998581852723,0.5672587246806985,27.88855461598637
158.0,22444.53657175094,1316.9401743723668,0.5606347801668632,27.56156471484021
159.0,25081.397150073615,1440.5825633270229,0.5539472470926701,27.253358076814216
160.0,27956.952253183048,1569.438748868088,0.5472102544155067,26.96176313736812
161.0,31075.180026919814,1703.1838166224525,0.5404367887706931,26.684959547356307
162.0,34438.30922045254,1841.4580230819513,0.5336388662964437,26.421412208586776
163.0,38046.73480716874,1983.8687804105537,0.5268276617532507,26.169820872849968
164.0,41898.945406485,2129.993390528231,0.5200136158904712,25.92907908395339
165.0,45992.65391011865,2276.3078439412125,0.5132065198783717,25.698242183043366
166.0,50309.9752145817,2413.3361076451447,0.5064155835818696,25.476498013844964
167.0,54809.58906012624,2546.1125623712983,0.49964949253170293,25.26314809063858
168.0,59474.42366063518,2697.816582416064,0.4929164516917036,25.057588634314882
169.0,64345.918100508155,2881.8510625124577,0.48622422336000415,24.85929613233431
170.0,69496.73326150488,3108.86225320008,0.47958015711631946,24.667815114089606
171.0,75023.83634744726,3388.3766603860663,0.47299121540913086,24.48274798084415
172.0,81044.57340288833,3729.1219171655453,0.46646399449367515,24.303746522231243
173.0,87693.4387922411,4139.143514055952,0.4600047422005115,24.130504776869984
174.0,95119.11808756077,4625.830647535316,0.45361937306478023,23.962753006163542
175.0,103481.51057585167,5195.897462619387,0.4473134813588977,23.800252623146264
176.0,112948.90399293586,5855.341443385463,0.44109235234249755,23.642791857580068
177.0,123694.99093088396,6609.393096501578,0.43496097244504184,23.49018209349317
178.0,135895.93552804473,7462.463472153228,0.42892403828449155,23.34225474777794
179.0,149727.26281704637,8418.09678420847,0.42298596542359745,23.198858606508683
180.0,165361.1401767983,9478.927213870376,0.41715089551069007,23.059857556864273
181.0,182963.5061728722,10646.651147545876,0.41142270467594294,22.925128603456237
182.0,202691.14880906293,11922.00623680095,0.405805010377384,22.794560239001235
183.0,224689.7112273634,13304.76873525064,0.40030117908449536,22.66805094949895
184.0,249090.91118183293,14793.75809011502,0.3949143328231827,22.545508040921074
185.0,276010.8535169907,16386.863073249147,0.3896473574209316,22.426846522317927
186.0,305548.3189732319,18081.075650602615,0.3845029095948479,22.311988203201597
187.0,337783.0603216505,19872.327185416332,0.3794834248336283,22.200860920852314
188.0,372775.62796302437,21748.02921990554,0.3745911239251494,22.093397808775794
189.0,410538.98783406866,23688.60759124667,0.3698280218999956,21.989536748436333
190.0,451031.5422511814,25695.23499609528,0.3651959365614864,21.889219820276328
191.0,494225.39325190755,27794.504037919807,0.36069649547109045,21.79239288299227
192.0,540165.1205077487,30026.348849378384,0.3563311452513642,21.699005169238195
193.0,588996.8653956747,32440.360266601172,0.35210115943846026,21.60900895955684
194.0,640985.7203149328,35093.31092897496,0.34800764784711935,21.522359278267114
195.0,696526.831815228,38047.219955924535,0.34405156431330863,21.439013651075363
196.0,756150.0374219175,41367.62269530954,0.3402337161524545,21.358931868851148
197.0,820519.2450928716,45122.06744324978,0.33655477239728493,21.282075802513603
198.0,890429.7560475296,49378.69902741732,0.333015272537294,21.20840922829317
199.0,966799.3506219056,54204.99850898651,0.32961563539395977,21.137897677059588
200.0,1050659.8813383153,59666.606504306525,0.326356167112282,21.070508309043912
201.0,1143144.5914927183,65826.29920687337,0.3232370701497853,21.006209790620808
202.0,1245473.9685061034,72743.06393713281,0.3202584509490411,20.944972200619738
203.0,1358942.961730299,80471.32116990778,0.31742032835204553,20.886766935299498
204.0,1484903.36041528,89060.29001689938,0.31472264126627436,20.831566631030732
205.0,1624751.4082922342,98553.45450289885,0.3121652561565436,20.779345096276398
206.0,1779909.0756651594,108988.23683578726,0.30974797454493314,20.730077244260134
207.0,1951814.32299759,120395.71170643186,0.30747053985068434,20.683739043083207
208.0,2141902.637310361,132800.3409594048,0.30533264407968713,20.64030746227713
209.0,2351599.7298716316,146214.3393655202,0.3033339344234996,20.59976042842195
210.0,2582287.348369457,160631.8380167705,0.30147401888212033,20.56207678977244
211.0,2835266.993774551,176046.44302033668,0.29975247222601675,20.527236273894015
212.0,3111777.6773846205,192475.01219782757,0.29816884107049824,20.495219458468668
213.0,3413070.29569633,209968.9013140644,0.2967226489393751,20.466007741695158
214.0,3740500.4217273206,228620.09806944075,0.2954134005931014,20.439583315865224
215.0,4095631.4838894834,248564.30898881768,0.29424058616207166,20.41592914161388
216.0,4480337.776636892,269982.164032904,0.293203684718537,20.39502892565125
217.0,4896908.074721055,293098.617751295,0.29230216781954854,20.376867097818767
218.0,5348145.25549639,318181.7539544774,0.2915355023527742,20.36142879665089
219.0,5837445.229710401,345540.47059696814,0.2909031525878763,20.348699848904925
220.0,6368877.292596037,375521.25426686014,0.2904045825219032,20.338666750618582
221.0,6947260.408103863,408505.0042819375,0.29003925760025884,20.331316656555554
222.0,7578207.7374001285,444903.33826143184,0.28980664558524516,20.326637362505107
223.0,8268184.340756365,485154.5924421243,0.2897062177557631,20.324617291115455
224.0,9024549.060797406,529720.1859466746,0.2897374492666832,20.325245483396802
225.0,9855569.444580464,579080.7884206022,0.2898998189840011,20.328511582572517
226.0,10770463.922893355,633732.5808508251,0.29019280959461513,20.33440582448923
227.0,11779406.865287514,694184.0514234876,0.2906159066411861,20.342919029703374
228.0,12893530.26137221,760952.8028071363,0.29116859750493024,20.35404258975872
229.0,14124953.413259001,834562.0844337341,0.2918503703949426,20.36776846134285
230.0,15486756.581857216,915533.3434941547,0.2926607122601405,20.384089158496582
231.0,16992965.373373684,1004377.4321048118,0.2935991070081149,20.402997742120114
232.0,18658535.231582545,1101599.3546043735,0.294665033401443,20.424487817264787
233.0,20499301.833899643,1207717.969195556,0.2958579621054168,20.448553525800502
234.0,22532041.436484903,1323290.9688419576,0.29717735321028677,20.475189539906534
235.0,24774589.430613544,1448943.1914215286,0.29862265310543856,20.50439106215165
236.0,27245980.030273728,1585395.5953896826,0.30019329095480735,20.536153819613133
237.0,29966722.857083052,1733493.0933814172,0.3018886755663254,20.5704740621845
238.0,32959106.65637683,1894233.266983266,0.3037081913922988,20.60734856539033
239.0,36247533.66499214,2068791.8385497348,0.3056511947141702,20.646774627582438
240.0,39858987.933818914,2258546.562275193,0.30771700986571326,20.688750074007096
241.0,43823472.036290914,2465101.621648943,0.3099049246644888,20.733273262866536
242.0,48174491.73705062,2690306.606324938,0.31221418646367055,20.780343087685996
243.0,52949663.60146847,2936275.599740421,0.3146439977866339,20.829958988338397
244.0,58191213.626620896,3205405.7426493997,0.31719351157943415,20.88212096176448
245.0,63946567.89787923,3500390.0895140353,0.3198618271802728,20.93682957189947
246.0,70269035.1426969,3824232.4854134438,0.32264798552198515,20.994085969521855
247.0,77218298.39839196,4180260.333385103,0.3255509645637762,21.053891909888797
248.0,84861081.85600464,4572132.659616499,0.3285696751969335,21.116249773286587
249.0,93271818.22078781,5003851.661391605,0.3317029562582597,21.181162596403468
