Time,J,A,S,tau
0.0,100.0,10.0,0.9324705933003394,15.973598828230228
1.0,99.7608218024372,9.192164547436425,0.9323582150712226,16.92677212846433
2.0,99.53053348861965,8.458205131394681,0.9322476253908915,17.88184579010424
3.0,99.30855071354591,7.791375605785446,0.9321387896364366,18.838570279851286
4.0,99.0943620229598,7.185290643799711,0.9320316599769632,19.796843153033386
5.0,98.88748616296132,6.634196401897009,0.9319261865450249,20.756568045056053
6.0,98.68747006806096,6.132895208979151,0.9318223177633465,21.71765426707504
7.0,98.4938869929935,5.676705531042022,0.9317200006380859,22.68001643047507
8.0,98.30633451868336,5.261397540144961,0.9316191810315695,23.643574045408194
9.0,98.12443305282537,4.883154382841158,0.9315198038879231,24.608251218792272
10.0,97.94782407348077,4.538531165440392,0.9314218134463884,25.57397630034133
11.0,97.77616870152119,4.224414378832,0.9313251534201998,26.54068159457675
12.0,97.60914635063429,3.9379942824125385,0.931229767154629,27.50830308841892
13.0,97.44645331978332,3.6767320892679947,0.9311355977658272,28.476780167049295
14.0,97.28780159246739,3.438330491820199,0.9310425882574626,29.446055371329347
15.0,97.1329177530246,3.220714828930381,0.9309506816211075,30.416074178787696
16.0,96.98154182237494,3.022010091359228,0.9308598209204009,31.386784768350022
17.0,96.83342623765982,2.840518080750278,0.9307699493597833,32.358137813987256
18.0,96.6883349614139,2.6747045017732045,0.930681010341862,33.330086304455236
19.0,96.546042534636,2.523181520123656,0.9305929475113136,34.302585351734436
20.0,96.40633321564425,2.3846931394449693,0.9305057047879998,35.2755920167379
21.0,96.26900017720708,2.2581024519585746,0.9304192263906934,36.24906514674594
22.0,96.13384475326355,2.142379063860071,0.9303334568525402,37.22296522279615
23.0,96.00067572913466,2.0365923232139953,0.9302483410292421,38.19725421584123
24.0,95.86930862964925,1.9398990585392717,0.9301638240985588,39.17189544247141
25.0,95.73956506799033,1.8515359036687435,0.9300798515547973,40.14685343283622
26.0,95.61127211461238,1.7708113064413045,0.9299963691974379,41.122093802589276
27.0,95.48426171145816,1.6970999636229187,0.9299133231162011,42.09758313386465
28.0,95.35837007892017,1.6298356912613416,0.929830659670131,43.073288854821406
29.0,95.23343716550347,1.5685060046100365,0.9297483254644433,44.04917912766488
30.0,95.10930610385,1.5126466764006345,0.9296662673235984,45.02522273792687
31.0,94.9858226972458,1.4618391146718022,0.9295844322629148,46.001388989705475
32.0,94.86283489576451,1.415704398561013,0.9295027674564456,46.977647598855526
33.0,94.74019229858105,1.3738997916071436,0.929421220204326,47.95396859128526
34.0,94.61774566624662,1.3361170458693872,0.9293397378991374,48.93032220297929
35.0,94.49534642506583,1.3020777851740777,0.9292582679903865,49.90667877856178
36.0,94.3728461884082,1.2715311676773564,0.9291767579496388,50.88300867296144
37.0,94.2500962671259,1.2442520059148152,0.929095155234844,51.85928215047324
38.0,94.12694719670405,1.2200385011300816,0.9290134072561967,52.83546928760904
39.0,94.00324825766809,1.1987093281763457,0.9289314613426232,53.811539873887796
40.0,93.87884694567116,1.1801055292411489,0.9288492647064605,54.78746330172033
41.0,93.75358849155458,1.1640835409273769,0.9287667644137272,55.76320846711989
42.0,93.62731533765721,1.1505162379497624,0.928683907354443,56.73874366065326
43.0,93.49986677524765,1.1392927004114417,0.928600640225092,57.71403649267918
44.0,93.37107801112808,1.1303197228912005,0.9285169094820382,58.689053696167086
45.0,93.24077997337174,1.1235103475293347,0.9284326613440997,59.663761087629254
46.0,93.10879892673489,1.1187973524741552,0.9283478417816117,60.638123486913585
47.0,92.97495468616157,1.1161216589535359,0.9282623964534018,61.61210433769577
48.0,92.83906256003122,1.1154324655403447,0.9281762708088036,62.58566612268139
49.0,92.7009283699689,1.1166965039280214,0.9280894099206572,63.55876930412703
50.0,92.56035330732189,1.119894552069906,0.9280017586893787,64.53137335856212
51.0,92.41712789639959,1.1250010966444741,0.9279132616893985,65.50343549019175
52.0,92.27103592942824,1.1320137164340607,0.9278238633108429,66.47491147051188
53.0,92.12184881698693,1.140928591102088,0.9277335077031255,67.44575443241655
54.0,91.96932999945733,1.1517653644245047,0.9276421388853175,68.41591581156406
55.0,91.81322891888286,1.1645339227826992,0.9275497007665643,69.38534405643779
56.0,91.65328436271606,1.1792757568638121,0.9274561372150755,70.35398534413797
57.0,91.48922044163993,1.196018350715341,0.9273613921637808,71.32178271433227
58.0,91.3207482182179,1.214812147774833,0.927265409658329,72.28867641913692
59.0,91.1475605632189,1.2357109245614781,0.9271681340628665,73.25460281620016
60.0,90.96933686639044,1.2587774103764011,0.9270695100433012,74.21949537535076
61.0,90.78573438135687,1.2840905781927285,0.9269694829415037,75.18328281880484
62.0,90.59639444703265,1.3117293776004995,0.9268679986966365,76.14589044922317
63.0,90.40093548258841,1.3417903678235046,0.9267650042426365,77.1072386421245
64.0,90.19895320084714,1.374374762315534,0.9266604476990639,78.06724288127522
65.0,89.99002095878913,1.409595124984361,0.926554278478873,79.02581382969451
66.0,89.77368407154167,1.4475816690848897,0.9264464478315769,79.98285609489704
67.0,89.54946084075723,1.488467368534258,0.9263369089969989,80.93826843764752
68.0,89.31684127865124,1.5324023541346818,0.9262256174545624,81.8919434909781
69.0,89.07528070126479,1.579552455893506,0.9261125317169427,82.84376635719978
70.0,88.82420239506139,1.6300879862256594,0.9259976133380541,83.79361517125842
71.0,88.56299296030764,1.6842059745102498,0.9258808275692998,84.74136008123571
72.0,88.29099901282648,1.7421091235850352,0.9257621440084122,85.68686250646459
73.0,88.00752590251592,1.8040177857990136,0.9256415370242131,86.62997484307378
74.0,87.71183502672683,1.870169138959054,0.9255189863473945,87.57053985825165
75.0,87.40313950875824,1.9408225218659256,0.9253944779222651,88.508389723038
76.0,87.0806009662721,2.0162537501171522,0.9252680046792319,89.44334527557044
77.0,86.74332736053243,2.0967571653596724,0.9251395671677543,90.37521552216525
78.0,86.39036957199156,2.1826485191783562,0.9250091743719158,91.3037968561542
79.0,86.02071578745192,2.274271542392702,0.9248768449198427,92.22887178665889
80.0,85.6332878502474,2.3719901386106925,0.924742608047993,93.15020808927638
81.0,85.22693850687567,2.47619175550638,0.9246065044151013,94.06755815686442
82.0,84.80044708355446,2.587291150783997,0.9244685871726968,94.98065799810081
83.0,84.35251236212622,2.7057380746781634,0.9243289235791725,95.88922560045896
84.0,83.88174863894471,2.832006781134007,0.924187596094977,96.79295998673228
85.0,83.38668230150704,2.966601043050957,0.924044703353452,97.69154039045566
86.0,82.86574650519516,3.1100591496617627,0.9239003614654945,98.58462499865098
87.0,82.31727244098617,3.2629623093123694,0.9237547060003336,99.4718489073642
88.0,81.73948537339024,3.4259209114204467,0.9236078930522557,100.35282313056244
89.0,81.1305005579965,3.599581565071371,0.9234601002610959,101.22713358684543
90.0,80.48831618634455,3.784640438569442,0.9233115283668378,102.09433940155598
91.0,79.81080569691548,3.981827160320618,0.9231624028563546,102.95397101755727
92.0,79.09571254512691,4.191918493680311,0.9230129750132656,103.80552887194554
93.0,78.34064398602104,4.415735953575886,0.9228635230579597,104.64848181515939
94.0,77.54493808381211,4.664027823894988,0.9227143533427735,105.48226526170673
95.0,76.80353573607574,5.393769119043798,0.922565800556494,106.30628032349325
96.0,76.04380210008951,6.162287571512086,0.9224182291049329,107.11989119730907
97.0,75.26950525851932,6.97182429685519,0.922272033108579,107.9224238737998
98.0,74.48565773665693,7.824909371705206,0.9221276363305059,108.71316450966378
99.0,73.69873262379086,8.724206847163494,0.9219854916376582,109.49135786965407
100.0,72.9169492192691,9.672517982066704,0.9218460799430155,110.2562058238089
101.0,72.1506130142909,10.672784490356614,0.9217099086028615,111.00686576333983
102.0,71.41249331896088,11.728090107001847,0.9215775089071373,111.74244942407027
103.0,70.7182706876195,12.841662084201348,0.9214494328478382,112.46202161016762
104.0,70.08704288970026,14.016871507888743,0.9213262488438558,113.16459918736953
105.0,69.54190222891674,15.257232561481036,0.9212085363502938,113.849150265521
106.0,69.11058966453395,16.566400551002125,0.9210968791945771,114.51459362379548
107.0,68.82624383060613,17.94816895067513,0.9209918574345511,115.15979831291877
108.0,68.72818840083652,19.406463162098262,0.9208940377994663,115.78358403062029
109.0,68.8628901090541,20.945334953063917,0.9208039621832639,116.38472117090565
110.0,69.28498689588538,22.568953866203838,0.9207221341235051,116.96193163330756
111.0,70.05837982328846,24.28159602307071,0.9206490034614789,117.51389025529299
112.0,71.25744044427277,26.08763069526723,0.9205849488356284,118.03922663029819
113.0,72.96840557875562,27.99150551157219,0.9205302569678604,118.53652713240427
114.0,75.29073468458286,29.997728190086306,0.9204851003939135,119.00433801437802
115.0,78.33866394667727,32.11084510898134,0.9204495119386993,119.44116883416565
116.0,82.24277332585056,34.335418162028446,0.9204233567432326,119.84549659071013
117.0,87.15170938115611,36.67599784552781,0.9204063006547184,120.21577044204754
118.0,93.23383534462832,39.13709353765038,0.9203977771478083,120.55041725671454
119.0,100.67898460648178,41.72314119551569,0.9203969503535436,120.84784767570927
120.0,109.70022984107108,44.4384673086044,0.9204026751389647,121.10646290772503
121.0,120.5354764501505,47.28725111698705,0.9204134563071239,121.32466214673377
122.0,135.3968873049793,48.10022160660989,0.9217544435181887,108.92033460817963
123.0,152.92585489829347,47.4885027282336,0.9246318762345688,75.8020620424622
124.0,171.64223994024258,46.87457208921713,0.9271088597355949,52.134579451469776
125.0,191.57740738592028,46.25856509134897,0.928794687968225,40.423023872167455
126.0,212.75746997561757,45.640623602526645,0.9299677049156463,33.497402667983955
127.0,234.6939100063168,45.63565003345176,0.9307971698300117,28.804173435458175
128.0,257.4495760081869,46.73997981883337,0.9313734818459456,25.352729382733994
129.0,281.4900917006082,49.3298662175768,0.9317492286722389,22.678144597842554
130.0,307.6047930632156,53.91670338005872,0.9319574141985194,20.529955793959818
131.0,337.1333125377048,61.044518054009195,0.9320199373264394,18.759332925120248
132.0,372.0967944316033,71.28751856525285,0.9319519164093026,17.271226927440473
133.0,415.33769428809836,85.24796764940218,0.9317640815259887,16.001507233457293
134.0,470.666531636482,103.55364734381452,0.9314641909720827,14.904990916706867
135.0,543.0133606026164,126.85462863760587,0.9310579150044556,13.948717800776638
136.0,639.6367189816096,154.40704713787662,0.930549413065036,13.107948918946825
137.0,768.1657717132236,183.67989235491078,0.9299417255015774,12.363666708276819
138.0,933.0956820103413,214.47949339000644,0.9292370493006514,11.70095755531197
139.0,1138.4279109080155,247.3627839477532,0.928436936864293,11.10792067618889
140.0,1388.1987844708858,284.65117719509317,0.9275424437077218,10.574917217249286
141.0,1688.8068236771567,330.30916633033286,0.9265542416328997,10.09403906327149
142.0,2051.501588141239,390.2672492108275,0.9254727063429671,9.65872318640985
143.0,2495.745301925624,472.5747697526401,0.9242979877825369,9.263468077410279
144.0,3053.21129301929,587.5134776224688,0.9230300673710362,8.903620488084567
145.0,3773.1623410001625,746.4659265001222,0.9216688055465742,8.575213216078074
146.0,4727.078867112424,956.4535794501257,0.9202139821040376,8.274839550683309
147.0,6001.629281815354,1222.7440990483294,0.9186653311974592,7.999555283998904
148.0,7695.103192361917,1553.2316266810267,0.917022571841111,7.746801035675313
149.0,9920.271764274401,1964.0174539737109,0.9152854353795133,7.514340215855846
150.0,12816.921353801512,2485.619219687015,0.91345369011207,7.300208973956653
151.0,16576.253609156756,3169.788935117779,0.911527163947024,7.102675385049228
152.0,21479.495712179945,4095.9973761812716,0.9095057650643965,6.920205997331541
153.0,27953.26600876706,5368.962460841761,0.9073895014360257,6.751438153388262
154.0,36619.922354378396,7108.655481126529,0.905178498820729,6.595156929884744
155.0,48326.38585492555,9452.550380250093,0.9028730176759846,6.450275810488899
156.0,64172.78017093635,12574.816866835157,0.9004734690101812,6.315820385482879
157.0,85572.84306450778,16724.51442059896,0.8979804292470399,6.1909145256967415
158.0,114383.70558093418,22283.216243124367,0.8953946540995418,6.074768590439733
159.0,153146.66564138228,29833.82821882507,0.8927170914751381,5.966669322787314
160.0,205462.25226235337,40208.91641429977,0.8899488933992338,5.865971149292683
161.0,276443.9437436457,54519.60559950045,0.8870914269271546,5.772088655766784
162.0,373198.469138101,74210.16996479646,0.8841462840167259,5.684490053631705
163.0,505369.57915286743,101190.62941056133,0.8811152903100231,5.602691482981376
164.0,685884.7999210733,138096.4006938029,0.8780005127734182,5.526252027958034
165.0,932141.9037492985,188697.63035636937,0.8748042661584061,5.4547693405705
166.0,1267905.3400426824,258401.4680345126,0.8715291182297906,5.387875785896342
167.0,1726020.1108044302,354783.13381011225,0.8681778937159784,5.3252350363733925
168.0,2351884.604442006,488200.21342225175,0.8647536769418347,5.26653905389642
169.0,3207706.074652185,672677.2119939938,0.861259813091412,5.211505408076628
170.0,4377897.360639738,927341.8278737343,0.8576999080833441,5.159874887818507
171.0,5976476.89429494,1278666.4853219492,0.8540778270315118,5.111409368769395
172.0,8157713.636511198,1763562.620973673,0.8503976912744957,5.065889904958776
173.0,11131121.617017696,2433269.8536716057,0.8466638739733404,5.023115017539771
174.0,15181528.806614658,3358197.988028269,0.8428809942699423,4.982899156755054
175.0,20694970.308806553,4634347.5908771185,0.839053910028259,4.945071317470766
176.0,28192014.822562654,6392427.624134246,0.8351877091858031,4.9094737907071515
177.0,38371797.800004594,8810911.381270118,0.8312876997500237,4.8759610358926295
178.0,52171611.84314188,12133947.62348781,0.8273593984894086,4.844398660683777
179.0,70847445.28022468,16694869.93832476,0.8234085183752734,4.814662496559695
180.0,96080800.13891175,22946626.33090758,0.8194409548399886,4.78663776010085
181.0,130117751.09192915,31501886.610625234,0.8154627709371975,4.760218291215876
182.0,175949043.6101631,43187224.42110078,0.8114801814888187,4.735305860347594
183.0,237545093.75537658,59116649.0324157,0.8074995363143934,4.711809537741255
184.0,320165030.46125966,80789885.45054309,0.803527302646697,4.689645118627524
185.0,430763078.8744871,110221362.58725458,0.7995700468371978,4.668734598709044
186.0,578519033.4317117,150108324.64278948,0.7956344154696543,4.649005695320018
187.0,775525333.1525282,204050985.51608312,0.7917271159971578,4.630391409878926
188.0,1037674553.860136,276842786.40716994,0.7878548970201718,4.612829627765121
189.0,1385807704.248157,374853108.20081913,0.7840245283243852,4.596262752210421
190.0,1847202600.3453057,506528603.802953,0.7802427807957402,4.580637369003444
191.0,2457502560.2522993,683045336.9836336,0.7765164063289893,4.565903939311643
192.0,3263208314.2619143,919154670.8695091,0.7728521178424201,4.552016518169802
193.0,4324889184.064173,1234281323.9334955,0.7692565695055998,4.53893249635987
194.0,5721318127.862956,1653950337.978097,0.7657363372810589,4.526612363683045
195.0,7554796852.901588,2211639614.7500534,0.7622978998747895,4.515019491782975
196.0,9958020097.181183,2951178123.636673,0.7589476201852854,4.504119934835127
197.0,13102922687.61962,3929843290.2270374,0.7556917273276736,4.493882246703449
198.0,17212075561.51191,5222357345.685963,0.7525362993031834,4.484277313190943
199.0,22573363068.096622,6926043709.545843,0.7494872463745877,4.475278198169069
200.0,29558888320.949455,9167481085.35795,0.7465502951964684,4.466860002502424
201.0,38649340135.949715,12111085230.13818,0.7437309737482026,4.458999734712973
202.0,50465433256.53246,15970169709.719454,0.7410345970989143,4.451676192535614
203.0,65808496958.2979,21021196558.297443,0.7384662540264866,4.444869854548271
204.0,85712914498.1796,27622138154.343487,0.7360307945065082,4.438562781125171
205.0,111513940260.11015,36236147202.98646,0.7337328180756783,4.432738524055056
206.0,144935455656.22598,47462082853.713005,0.7315766630715298,4.427382044195982
207.0,188203718108.29483,62073891894.629944,0.7295663967457259,4.4224796366137
208.0,244195002527.01328,81071439618.78737,0.7277058062343111,4.418018862731223
209.0,316627352019.57196,105746179906.98022,0.7259983903551955,4.413988489076896
210.0,410310127800.10736,137766050342.72433,0.7244473522295177,4.410378432164103
211.0,531469320350.81177,179285318046.6654,0.7230555927034678,4.40717970915632
212.0,688171981085.1543,233086894912.49924,0.7218257045275647,4.404384394043433
213.0,890881135506.1405,302766902993.8958,0.7207599672793151,4.401985579008148
214.0,1153182446507.6077,392974332496.6422,0.7198603429997317,4.399977340741131
215.0,1492737449974.0764,509722633382.03455,0.7191284725181843,4.3983547114858395
216.0,1932536227717.5063,660795395223.2788,0.7185656724419135,4.3971136546234035
217.0,2502546527692.3457,856275309239.7714,0.718172932788441,4.3962510446370535
218.0,3241889103134.3164,1109234911343.4067,0.7179509152444471,4.395764651318221
219.0,4201712471154.072,1436639996953.2148,0.7178999520368756,4.395653128102913
220.0,5448999303463.325,1860533120982.019,0.718020045404678,4.3959160044561365
221.0,7071616457655.475,2409586596434.6777,0.7183108676666831,4.396553682239105
222.0,9185028269660.35,3121143852658.6855,0.7187717618844001,4.397567436018677
223.0,11941238870740.105,4043907427103.318,0.7194017431232967,4.398959417300174
224.0,15540727770618.764,5241484736708.575,0.7201995003205618,4.4007326626862
225.0,20248413068866.156,6797073819576.246,0.7211633987715549,4.402891105985079
226.0,26415044931027.36,8819666879359.72,0.7222914832509869,4.40543959431345
227.0,34505934923856.867,11452278443912.748,0.7235814817881913,4.408383908258255
228.0,45139613837146.96,14882879337470.002,0.7250308101179517,4.411730786185879
229.0,59139958881302.305,19358953045644.195,0.7266365768327467,4.415487952801745
230.0,77606618333905.14,25206910590214.47,0.7283955892609011,4.419664152088106
231.0,102010345225641.1,32858033851214.12,0.7303043600955584,4.424269184772471
232.0,134322303093190.75,42883206204067.81,0.7323591148004618,4.429313950495115
233.0,177189783167742.38,56039491526233.1,0.7345557998161072,4.434810494868077
234.0,234175435857002.94,73332715746971.31,0.7368900915874735,4.440772061640147
235.0,310083563594804.6,96101696802957.48,0.7393574064310668,4.447213150205003
236.0,411405937256410.94,126131806728768.12,0.7419529112545834,4.454149578712716
237.0,546931943158641.1,165808336506387.8,0.7446715351371471,4.461598553068439
238.0,728584973273021.4,218323949172761.28,0.7475079817718362,4.469578742126134
239.0,972570672343588.2,287959736910598.5,0.7504567427648837,4.4781103594126215
240.0,1300955684250639.5,380466551647788.0,0.7535121117797648,4.487215251731547
241.0,1743841020730252.5,503583109253752.7,0.7566681995040461,4.496916995031032
242.0,2342357697749118.0,667740848784291.0,0.7599189494088511,4.507240997945562
243.0,3152800245864997.0,887024016286058.5,0.7632581542623733,4.518214613440858
244.0,4252335730831177.0,1180478818894413.2,0.7666794733492758,4.529867259017932
245.0,5746895165756519.0,1573900299564577.8,0.770176450338715,4.542230545956238
246.0,7782088669583561.0,2102273301228351.8,0.7737425317347528,4.555338418098938
247.0,1.055831023136937e+16,2813109264387641.0,0.7773710858342759,4.569227300705074
248.0,1.435164642459185e+16,3771010074381530.0,0.781055422109416,4.583936259913468
249.0,1.954282210020114e+16,5063912485152585.0,0.7847888109240029,4.59950717338123
250.0,2.6657267682162844e+16,6811633686985869.0,0.7885645034870261,4.615984912680361
251.0,3.642056588108887e+16,9177565576962958.0,0.7923757519401344,4.633417538024179
