Time,J,A,S,tau
0.0,100.0,10.0,0.6697949336030063,38.58263154351515
1.0,99.69392190393559,9.050337493553357,0.6686138503498962,39.568304331411866
2.0,99.39786319388743,8.195223561609192,0.6674499814201924,40.55487251431091
3.0,99.11129631155691,7.425368204434051,0.666302817274154,41.54216156707658
4.0,98.83354038079612,6.732131950858762,0.6651717540648345,42.530111422520214
5.0,98.56396596142545,6.107763171301364,0.6640561842123346,43.51866714289937
6.0,98.30198999536036,5.545304040166466,0.6629554984278877,44.50777840150065
7.0,98.04707175728136,5.038516520552595,0.6618690874147022,45.49739906562634
8.0,97.7987087265224,4.581795579038384,0.6607963433059183,46.48748677314304
9.0,97.55643317203534,4.170116148703466,0.6597366608622774,47.47800258156613
10.0,97.3198089036376,3.7989624185032533,0.6586894384615999,48.46891063470838
11.0,97.08842830803309,3.4642826418319372,0.6576540788842218,49.46017785941188
12.0,96.86190980860628,3.1624378545776355,0.6566299899697929,50.45177370490585
13.0,96.63989531753317,2.890158803625729,0.6556165850740385,51.44366988330823
14.0,96.42204817950125,2.6445117355537207,0.6546132834643902,52.43584015910936
15.0,96.20805105517076,2.4228578711353967,0.653619510537899,53.428260134325974
16.0,95.99760417918918,2.2228304622953905,0.6526346979999751,54.420907071046
17.0,95.79042362258657,2.0422999630396275,0.6516582839107432,55.413759715550114
18.0,95.58623981173714,1.8793559582840977,0.6506897127010304,56.40679814808018
19.0,95.38479605296821,1.7322788881610092,0.6497284350753111,57.40000363421975
20.0,95.18584730259447,1.5995261589233591,0.6487739079246588,58.393358500213
21.0,94.98915888164987,1.4797095061054355,0.6478255941136029,59.3868460042219
22.0,94.79450543653203,1.3715831010052502,0.6468829623182946,60.380450230810624
23.0,94.60166981733664,1.274026270320672,0.6459454867338201,61.3741559790036
24.0,94.41044217435947,1.186032698490821,0.6450126468557625,62.367948670202914
25.0,94.2206189819324,1.1066991091110245,0.6440839271455104,63.36181425064231
26.0,94.03200219873544,1.0352128025053773,0.6431588167431718,64.35573910590188
27.0,93.84439844691784,0.9708453894278352,0.6422368091509627,65.34970997734428
28.0,93.65761819819478,0.9129424795798272,0.6413174018762047,66.34371387973697
29.0,93.47147504132042,0.8609165637215721,0.6404000961233833,67.33773802500302
30.0,93.28578493465817,0.8142421141763546,0.639484396444256,68.33176974501056
31.0,93.10036548511498,0.772447906173008,0.6385698103928527,69.32579641636714
32.0,92.91503525031217,0.7351117157133551,0.637655848201938,70.3198053861293
33.0,92.72961303621284,0.7018566634618929,0.6367420224640493,71.3137838959307
34.0,92.54391719762069,0.6723468570775919,0.6358278478071755,72.30771900634399
35.0,92.3577649388517,0.6462830079983481,0.6349128405984723,73.3015975193803
36.0,92.17097160591288,0.6233990202035853,0.6339965186630446,74.29540589893887
37.0,91.98334995091693,0.6034599686059429,0.6330784010254842,75.28913018636825
38.0,91.79470939150058,0.5862585560086295,0.6321580076710089,76.28275591461242
39.0,91.6048552307506,0.5716129336177282,0.6312348593387096,77.27626801576781
40.0,91.41358785279316,0.559365452089377,0.6303084773444233,78.26965072447582
41.0,91.22070187658662,0.5493795112891026,0.62937838344557,79.26288747423452
42.0,91.02598526327665,0.5415395684704247,0.6284440997419783,80.25596078667832
43.0,90.82921840262225,0.535747951548401,0.6275051486309339,81.2488521561912
44.0,90.63017303225297,0.531925960505702,0.6265610528079997,82.24154191143484
45.0,90.42861107019857,0.530011392024518,0.6256113353428032,83.2340090630977
46.0,90.22428381713829,0.5299553004563458,0.6246555198077243,84.22623119871088
47.0,90.01693121448139,0.5317268522988475,0.6236931303827953,85.21818438614272
48.0,89.80627716808958,0.53530675135496,0.6227236925416014,86.20984254175072
49.0,89.59203276203793,0.540712728628888,0.621746732821162,87.20117787045042
50.0,89.37389242530017,0.5479467726097751,0.6207617798148828,88.19216032301917
51.0,89.15153255677254,0.5570354002105036,0.6197683644849757,89.18275741989453
52.0,88.92460835199425,0.5680244865719196,0.6187660211888169,90.17293380864223
53.0,88.69275316278818,0.5809705165819398,0.6177542884160767,91.16265115853966
54.0,88.45557661932818,0.5959490047486534,0.6167327096177924,92.15186789615915
55.0,88.21266077659878,0.6130494670512083,0.6157008348050935,93.14053865477676
56.0,87.96355804577027,0.6323794978420018,0.6146582218302113,94.12861396963916
57.0,87.70778827750249,0.6540645704767768,0.613604438028679,95.1160398491502
58.0,87.44483550677141,0.6782493710993585,0.6125390621064761,96.10275729432445
59.0,87.17414450669277,0.7051000282563036,0.6114616862352227,97.08870178656073
60.0,86.89511649646315,0.7348032330351435,0.610371918679599,98.07380264535546
61.0,86.60710507988394,0.767570307953078,0.6092693864861451,99.05798241537514
62.0,86.3094114826306,0.8036383835013086,0.6081537386558517,100.04115614313102
63.0,86.00127936538001,0.843272673535078,0.6070246496966183,101.02323058430981
64.0,85.68188884443353,0.8867713084770461,0.6058818237441826,102.00410328743747
65.0,85.44002842527493,1.0153648458533897,0.6047249985972183,102.98366176122732
66.0,85.2143525748493,1.1620425333416229,0.6035539510517428,103.96178229602373
67.0,84.99627632835761,1.3179341014521933,0.6023685023754465,104.93832881193849
68.0,84.7874370076092,1.4839332025478003,0.6011685241872441,105.91315164164452
69.0,84.58975872585081,1.661020480598645,0.5999539455722429,106.88608602674
70.0,84.40549578910348,1.8502713251753018,0.5987247600084497,107.85695070831122
71.0,84.23728796502414,2.0528654978804197,0.5974810338067443,108.82554616928479
72.0,84.08822112028386,2.2700972486291318,0.5962229150472699,109.79165279400225
73.0,83.96189622989179,2.5033851633440922,0.5949506426469103,110.75502902492215
74.0,83.86251597341513,2.7542845634617983,0.5936645574754766,111.71540905377529
75.0,83.79497611413778,3.024499177784036,0.5923651131003786,112.67250062547011
76.0,83.76497548524812,3.3158934777925047,0.5910528873917492,113.62598265073679
77.0,83.77914783221638,3.630507509367481,0.5897285961214115,114.57550236749744
78.0,83.84520049943502,3.9705696149019905,0.5883931051753863,115.52067281881847
79.0,83.97208779923066,4.338511200552052,0.5870474447005777,116.46106987521932
80.0,84.17020605865513,4.7369824229393735,0.5856928239433393,117.39622908074406
81.0,84.45160529806779,5.168865072889709,0.5843306441948907,118.32564288574535
82.0,84.830254834805,5.637288172608039,0.5829625141610677,119.24875728214438
83.0,85.32232757451698,6.1456419001541205,0.5815902638097945,120.16496871150727
84.0,85.94651833948869,6.697588511544374,0.5802159561277372,121.07362134863087
85.0,86.72442967780796,7.297073921865309,0.5788418996162163,121.97400410506394
86.0,87.68099237996363,7.948336755427543,0.5774706583824464,122.86534803045132
87.0,88.8449247576753,8.655912026568897,0.5761050579815086,123.74682450107375
88.0,90.2492611120632,9.424631993740917,0.5747481889314914,124.61754373464996
89.0,91.93196148812505,10.259623465997288,0.5734034071292919,125.4765537550319
90.0,93.93654638917101,11.166297242994688,0.572074327171256,126.32284069921164
91.0,96.31279851626422,12.150330061112372,0.5707648094225373,127.1553302515575
92.0,99.11755922467704,13.217639613188968,0.5694789410555999,127.97289009798301
93.0,102.41559109155531,14.374351034866665,0.5682210089656026,128.77433382292074
94.0,106.28044841602753,15.626751358829294,0.5669954620739744,129.5584269102429
95.0,110.7954298929948,16.981234470113595,0.5658068651440252,130.32389428300706
96.0,116.05462950026447,18.44423522230462,0.5646598427178775,131.06942962036115
97.0,122.16395849290994,20.022152428565782,0.5635590119750583,131.79370685364518
98.0,129.24216446412157,21.721261691485363,0.5625089065654647,132.49539350595037
99.0,137.42190564337105,23.547619228392605,0.5615138918460383,133.17316562672858
100.0,146.85082719490444,25.50695678233258,0.5605780707570647,133.82572447747984
101.0,157.6924580403203,27.604574768561214,0.5597051874863191,134.45181399596288
102.0,170.12716920561914,29.845230081008395,0.5588985254026387,135.05023920770668
103.0,184.35290670332145,32.23302732990377,0.5581608058395873,135.61988465245142
104.0,200.58584321768623,34.771315668310834,0.5574940922329176,136.1597319782693
105.0,219.06083401181374,37.46259175957362,0.5568996965790377,136.66887698440664
106.0,240.03161389544456,40.308422226109414,0.5563781037989036,137.14654363863818
107.0,263.77085546129314,43.30937277311469,0.5559288991332357,137.59209720525217
108.0,290.56979915559157,46.46496981762635,0.5555507251570264,138.0050522592596
109.0,320.7378010598632,49.77366763058406,0.5552412413707418,138.38507975291833
110.0,354.6013347603649,53.232855561080086,0.5549971203862771,138.73200772700898
111.0,392.5029466491279,56.838869111993816,0.5548140461716834,139.0458211383496
112.0,434.79962730812684,60.58704023997248,0.554686748318506,139.32665545781592
113.0,481.8611385652926,64.47175026466763,0.5546090385660323,139.57478944666155
114.0,534.0678036901346,68.48651326435595,0.5545738756490342,139.7906331206856
115.0,591.8082335905366,72.62406077916874,0.5545734327150482,139.97471503569
116.0,655.4765952011367,76.876443460542,0.5545991803646376,140.12766702132095
117.0,725.4698273908191,81.23513549708828,0.5546419762801347,140.2502079488698
118.0,802.1845043265754,85.69113758559705,0.5546921524800686,140.34312789814163
119.0,886.0136019845413,90.23508378015892,0.5547396109379691,140.4072714416815
120.0,977.343082500525,94.85734035550126,0.5547739129073822,140.443522199886
121.0,1076.5484099640807,99.54809822995179,0.5547843659462639,140.45278825703733
122.0,1183.990865613573,104.29745796402474,0.5547601050882123,140.4359889235219
123.0,1300.013905448254,109.09550466658406,0.5546901692914256,140.39404287720026
124.0,1424.9394490413163,113.93237396766577,0.5545635703127574,140.32785800558898
125.0,1559.0641712227039,118.79830582239066,0.5543693551802144,140.23832282867278
126.0,1702.6559152899167,123.68369047539763,0.5540966612122195,140.12629962297788
127.0,1855.950010752852,128.57910548320143,0.553734765708287,139.99261882665988
128.0,2019.1454852161698,133.47534459442656,0.5532731313784746,139.8380746575922
129.0,2192.401521556877,138.36343721279593,0.552701446192913,139.663422257693
130.0,2375.8366227581223,143.2346468873546,0.5520096413077596,139.4693782036874
131.0,2569.520569415012,148.08052586416227,0.5511879565545014,139.2566142078582
132.0,2773.4758627139277,152.89285982276914,0.5502269360382658,139.02576276926257
133.0,2987.676674081051,157.66369681506276,0.5491174467070775,138.7774167080521
134.0,3212.0363428394276,162.3853739183961,0.5478507708976599,138.51212399273706
135.0,3446.4225852028258,167.05043248246918,0.5464185067237388,138.23040121808933
136.0,3690.636399404544,171.65172058767865,0.5448127349018734,137.9327213385032
137.0,3944.4275340390086,176.1822708795448,0.5430259064751657,137.6195284550252
138.0,4209.29273041066,176.4976141331708,0.6045709371252888,68.56583571030656
139.0,4471.334115115459,185.3011282142481,0.6289202946208008,50.37346338875269
140.0,4751.231762234263,202.7026121340287,0.6358963216760548,44.39812979103692
141.0,5065.814736957965,226.68227934048318,0.6380278588448891,40.93361915783881
142.0,5428.717799094563,256.7216792414872,0.6377295084594972,38.549911585867406
143.0,5852.86406622298,292.6593780256227,0.6359313618797878,36.76258184428319
144.0,6351.055370350078,334.47482277215084,0.6330995901854436,35.35017692771825
145.0,6936.172277553525,382.21139564452193,0.6295051790592938,34.19336184917561
146.0,7621.227371632724,435.9402258060032,0.6253218284282163,33.22065641997797
147.0,8419.352531385448,495.73966303613054,0.6206689574921882,32.38597330286525
148.0,9343.733056576843,561.68247616527,0.6156331586765563,31.65794464466952
149.0,10407.513570544248,633.8268472767312,0.6102799462043871,31.0143127486736
150.0,11623.680622154341,712.2095609475427,0.6046606194246557,30.438765409733655
151.0,13004.940253357136,796.8406696214179,0.5988165442945388,29.919022147598394
152.0,14563.55206038665,887.6997747412313,0.5927819007058921,29.44564071753
153.0,16311.199200474615,984.732251581714,0.5865855186786759,29.01123356417753
154.0,18258.80112897673,1087.8474338239155,0.5802521778024511,28.609929907020252
155.0,20416.379188377898,1196.9164820829214,0.5738035052211221,28.237006382938077
156.0,22792.882218204457,1311.7713402002141,0.5672586285343906,27.88862439216005
157.0,25396.02220739093,1432.2046155459575,0.5606346746869258,27.561632780437854
158.0,28232.14085064907,1557.9695764380033,0.5539471321064694,27.25342453164468
159.0,31306.061505116286,1688.7808703329763,0.5472101275284684,26.961828705291794
160.0,34620.97828363691,1824.3162230145786,0.5404366516580187,26.685023909558268
161.0,38178.358620781575,1964.217933808585,0.5336387195043172,26.421475236897034
162.0,41977.846248194845,2108.0953262097473,0.5268275059108755,26.16988258437336
163.0,46017.204730634665,2255.527434759368,0.5200134504289761,25.929139806344505
164.0,50293.0485024539,2403.5967408723563,0.5132063425290899,25.698302301697186
165.0,54788.59236598154,2556.9313625649665,0.5064153961057326,25.476557396712042
166.0,59510.021883379675,2731.945696900596,0.49964929460729757,25.263206732925514
167.0,64502.50283343192,2939.487460061959,0.4929162434530113,25.057646573481826
168.0,69836.6261492812,3188.8383778610755,0.4862240047976586,24.85935340991451
169.0,75603.79981672391,3488.521886002976,0.47957992836460583,24.667871759505182
170.0,81913.39934379754,3846.5358719480196,0.47299097659083655,24.482804023463224
171.0,88890.38030494109,4270.416157442432,0.4664637457177258,24.303801991746276
172.0,96672.9943376954,4767.22858690944,0.4600044835951092,24.13055969808534
173.0,105410.44694426251,5343.526692487601,0.45361910472283773,23.962807411701892
174.0,115260.472722883,6005.293011544561,0.44731320350603976,23.800306524195012
175.0,126386.78998006655,6757.872235356394,0.4410920652333167,23.642845271213748
176.0,138956.55020195988,7605.90411554635,0.43496067620256007,23.49023504026314
177.0,153137.58732239032,8553.261333198952,0.42892373313298293,23.34230724412257
178.0,169095.66132460602,9602.993841266752,0.4229856515634545,23.19891066701209
179.0,186991.90706888607,10757.280719098213,0.41715057302236397,23.05990920034682
180.0,206980.14105841174,12017.400677564932,0.4114223739849495,22.92517984118658
181.0,229204.50511467352,13383.705989647315,0.40580467161653877,22.794611076074005
182.0,253796.8908023281,14855.618478433898,0.4003008321266741,22.668101419526824
183.0,280875.30406094436,16431.638760246264,0.39491397823597013,22.545558143741168
184.0,310541.79479714134,18109.36308670498,0.38964699548981435,22.426896263619778
185.0,342880.91355085844,19885.522236944806,0.3845025402533352,22.312037598782272
186.0,377958.3176931554,21755.75080630917,0.37948304852553916,22.200909977480567
187.0,415818.9508557124,23712.128810087346,0.3745907405525686,22.09344654458661
188.0,456479.4172667116,25761.431114404222,0.36982763205273983,21.989585173305773
189.0,499977.3156171265,27929.136344438266,0.3651955403807727,21.889267945454915
190.0,546414.8993764924,30252.380355766494,0.36069609315629936,21.79244071755902
191.0,595984.072665147,32776.95411022649,0.35633073700122203,21.699052722193706
192.0,648983.0389352782,35555.359862322046,0.3521007454657223,21.609056240030927
193.0,705826.2223095578,38645.18570559222,0.34800722826029384,21.522406295908155
194.0,767049.4258328559,42107.694797249955,0.3440511393964362,21.43906041316227
195.0,833311.7956960975,46006.4753760005,0.340233285970396,21.35897838568192
196.0,905392.5483041086,50406.195924762724,0.3365543371828881,21.282122081019214
197.0,984185.9885248557,55371.42095012841,0.3330148324642327,21.208455276889595
198.0,1070694.059321688,60965.500369801965,0.3296151905176778,21.137943504848927
199.0,1166015.1464675001,67249.56281872887,0.32635571772632654,21.070553921830662
200.0,1271333.3378317356,74281.57833931039,0.323236616249604,21.006255198262
201.0,1387904.2649768316,82115.57343402626,0.32025799278241457,20.945017409123984
202.0,1517043.2015827834,90800.89991400801,0.3174198659738971,20.886811953249058
203.0,1660109.086331975,100381.70716267588,0.3147221748433564,20.831611465174095
204.0,1818492.3800993713,110896.4484712746,0.31216478578755524,20.779389754154998
205.0,1993598.1624254528,122377.62031189128,0.30974750032510834,20.73012173318578
206.0,2186838.0197119103,134851.53107889945,0.3074700619209306,20.68378336945813
207.0,2399612.77311588,148337.9834699881,0.3053321625253217,20.640351633947173
208.0,2633302.9614802506,162848.5421161566,0.3033334492667392,20.599804452236977
209.0,2889255.0325904647,178397.71770281025,0.3014735303037884,20.562120671271707
210.0,3168797.8485170775,195021.0088932587,0.29975198026198646,20.527280020124877
211.0,3473309.74840198,212784.68567736275,0.298168345783454,20.495263076882683
212.0,3804299.5345703177,231791.4109182906,0.296722150325859,20.466051239267987
213.0,4163498.113824819,252183.41037829765,0.2954128986866846,20.439626698155823
214.0,4552952.9718272,274143.9961907567,0.29424008105816457,20.415972414414878
215.0,4975116.947136933,297897.6828220273,0.2932031765436135,20.395072095297373
216.0,5432936.159815723,323709.03223829553,0.2923016565961657,20.37691017140399
217.0,5929937.033605966,351880.8931467124,0.2915349880785564,20.36147177963001
218.0,6470295.1676323,382752.23460295453,0.2909026353512514,20.348742747355804
219.0,7058894.599440118,416694.9979620051,0.2904040623389396,20.33870957096968
220.0,7701398.302706619,454110.9108153879,0.2900387345022998,20.33135940429758
221.0,8404281.305881875,495428.23307868943,0.2898061196260643,20.326680043682916
222.0,9174876.041440893,541098.000050281,0.2897056889497846,20.324659911559003
223.0,10021411.685870975,591590.6805272918,0.2897369176480571,20.325288048816667
224.0,10953018.1821148,647392.7628017844,0.2898992845789246,20.328554098575946
225.0,11979768.297657846,709003.3418140528,0.29019227244707824,20.334448296859055
226.0,13112671.781777527,776931.2938074744,0.29061536675625055,20.34296146405495
227.0,14363682.435361302,851692.3893977115,0.29116805492551917,20.35408499127986
228.0,15745722.263142683,933806.2836542353,0.29184982515875424,20.36781083601891
229.0,17272645.516652532,1023793.885829802,0.29266016434697667,20.38413151145532
230.0,18959261.246745806,1122183.5379167802,0.2935985565213063,20.403040078605976
231.0,20821341.15144058,1229528.692470336,0.29466448032947073,20.424530143227106
232.0,22875669.91606386,1346430.4709763092,0.2958574064561076,20.448595845732594
233.0,25140206.664230198,1473562.7304862116,0.2971767951009389,20.47523185958321
234.0,27634231.094267685,1611698.9956875187,0.29862209248583116,20.504433387038898
235.0,30378609.13395886,1761737.5741631985,0.30019272792212115,20.536196153900622
236.0,33396116.605080828,1924728.1446620575,0.3018881101657246,20.57051641209879
237.0,36711750.717203535,2101895.822591079,0.30370762360014664,20.607390935587112
238.0,40353196.05875123,2294663.485792997,0.3056506247025076,20.646817022616894
239.0,44351242.43471747,2504675.1620045393,0.30771643758708395,20.688792500073085
240.0,48740264.37945137,2733813.9845053405,0.30990435020563983,20.733315723835695
241.0,53558812.94214217,2984221.5594843286,0.3122136099574079,20.780385588865563
242.0,58850075.20723187,3258315.203212073,0.31464341916939537,20.8300015353695
243.0,64662514.68875149,3558800.914719295,0.31719293106295565,20.882163558168973
244.0,71050460.10672402,3888689.742368522,0.31986124478328404,20.936872223679643
245.0,78074622.12119602,4251307.993172723,0.32264740128141617,20.994128681355512
246.0,85802835.2348129,4650307.8977185665,0.3255503787136303,21.053934685614237
247.0,94310524.24798228,5089679.432599975,0.32856908767277565,21.11629261920752
248.0,103681338.24168919,5573755.429085123,0.3317023672602849,21.18120551617476
249.0,114007821.25379351,6107221.257814614,0.3349489800887897,21.248677098342657
