Time,J,A,S,tau
0.0,100.0,10.0,0.813705064549316,2.375296912114014
1.0,154.31880102662547,42.95898185330777,0.8097099861142432,2.375296912114014
2.0,317.0536051988579,73.37769669180577,0.8057075034820045,2.375296912114014
3.0,564.7935819679293,118.2357920360273,0.80418321877525,2.375296912114014
4.0,1007.4436081836086,245.95236532579014,0.8041230348816503,2.375296912114014
5.0,1922.9565720653172,451.77665349729324,0.8040657259611879,2.375296912114014
6.0,3538.7692739786416,805.9702778601581,0.804011310398238,2.375296912114014
7.0,6479.188181946391,1532.6515546885016,0.8039598056561876,2.375296912114014
8.0,12082.42840101861,2840.202498170926,0.803911228270696,2.375296912114014
9.0,22345.154579379436,5203.338043091331,0.8038655938433202,2.375296912114014
10.0,41201.1953310717,9688.60331071871,0.8038229170354952,2.375296912114014
11.0,76323.39842351929,17945.4115115674,0.8037832115628673,2.375296912114014
12.0,141130.4271308724,33101.540737591415,0.8037464901899908,2.375296912114014
13.0,260641.01884241644,61297.74892591338,0.8037127647253887,2.375296912114014
14.0,481861.1213969036,113393.70735998168,0.8036820460169788,2.375296912114014
15.0,890460.482860632,209463.14893342217,0.8036543439478702,2.375296912114014
16.0,1644750.547507972,387240.1883001748,0.80362966743253,2.375296912114014
17.0,3038541.1497034244,715721.6613243613,0.8036080244133262,2.375296912114014
18.0,5612743.563683258,1322164.2947381826,0.8035894218574433,2.375296912114014
19.0,10365967.417193512,2442710.6769839553,0.803573865754177,2.375296912114014
20.0,19144909.36783292,4512502.402496592,0.8035613611126068,2.375296912114014
21.0,35357809.6484933,8334546.986826888,0.8035519119596509,2.375296912114014
22.0,65298417.17643728,15393647.225748988,0.8035455213384993,2.375296912114014
23.0,120596370.73895717,28430742.5862858,0.8035421913074317,2.375296912114014
24.0,222732786.24669778,52506743.92236745,0.8035419229390157,2.375296912114014
25.0,411393601.14356166,96972423.84422933,0.8035447163196914,2.375296912114014
26.0,759921742.2115437,179099694.93736345,0.8035505705497366,2.375296912114014
27.0,1403870013.4306145,330795395.36437416,0.8035594837436171,2.375296912114014
28.0,2593819636.0226893,611020321.7034298,0.8035714530307194,2.375296912114014
29.0,4793118802.329341,1128737480.8625817,0.8035864745564686,2.375296912114014
30.0,8858731704.635757,2085352463.8851876,0.803604543483824,2.375296912114014
31.0,16376037608.697824,3853236673.533267,0.8036256539951617,2.375296912114014
32.0,30278867346.093388,7121003552.808796,0.8036497992945332,2.375296912114014
33.0,55998088563.05268,13162399614.256136,0.8036769716103054,2.375296912114014
34.0,103590181359.29376,24334188882.937183,0.8037071621981773,2.375296912114014
35.0,191683577246.71786,44998286312.31799,0.8037403613445735,2.375296912114014
36.0,354797946433.12103,83230305279.29747,0.8037765583704106,2.375296912114014
37.0,656925257859.815,153986477199.10492,0.8038157416352372,2.375296912114014
38.0,1216741169687.1172,284976017074.90436,0.8038578985417407,2.375296912114014
39.0,2254428133026.0854,527554781369.1166,0.8039030155406259,2.375296912114014
40.0,4178678433177.9165,976942813884.0409,0.8039510781358516,2.375296912114014
41.0,7748437757044.018,1809763098898.2305,0.8040020708902359,2.375296912114014
42.0,14373750674264.719,3353774450962.7383,0.8040559774314131,2.375296912114014
43.0,26675635942463.8,6217473010032.496,0.8041127804581505,2.375296912114014
44.0,49528589343227.91,11531084290653.271,0.8041724617470143,2.375296912114014
45.0,92002843277183.2,21394919342840.883,0.8042350021593845,2.375296912114014
46.0,170985026264528.84,39713974634916.13,0.8043003816488122,2.375296912114014
47.0,317931593987239.2,73752373797791.06,0.8043685792687184,2.375296912114014
48.0,591473260003793.8,137030163729708.11,0.8044395731804281,2.375296912114014
49.0,1100954075154008.0,254724821615338.2,0.8045133406615343,2.375296912114014
50.0,2050418843012233.8,473749184096611.1,0.8045898581145909,2.375296912114014
51.0,3820864892859900.5,881565945171968.5,0.8046691010761243,2.375296912114014
52.0,7124144193144750.0,1641334351097325.0,0.8047510442259649,2.375296912114014
53.0,1.3291121372379826e+16,3057608177655691.0,0.8048356613968878,2.375296912114014
54.0,2.4811567447349856e+16,5699221060491743.0,0.8049229255845619,2.375296912114014
55.0,4.634639420220468e+16,1.062928944690824e+16,0.8050128089577988,2.375296912114014
56.0,8.662677653692427e+16,1.9835993590107596e+16,0.8051052828690981,2.375296912114014
57.0,1.6201970932341075e+17,3.703994945194411e+16,0.8052003178654805,2.375296912114014
58.0,3.0322697071107046e+17,6.920842761280489e+16,0.8052978836996071,2.375296912114014
59.0,5.6788007756667757e+17,1.2939723070231477e+17,0.8053979493411753,2.375296912114014
60.0,1.0642374948684257e+18,2.4208806100214675e+17,0.8055004829885863,2.375296912114014
61.0,1.9958028083853898e+18,4.532198194393801e+17,0.8056054520808783,2.375296912114014
62.0,3.7453950179964186e+18,8.490554146871809e+17,0.8057128233099183,2.375296912114014
63.0,7.033671250451864e+18,1.5916920046072512e+18,0.8058225626328471,2.375296912114014
64.0,1.3218256955605934e+19,2.985945435794517e+18,0.8059346352847689,2.375296912114014
65.0,2.485861817589291e+19,5.605421185852247e+18,0.8060490057916817,2.375296912114014
66.0,4.678354865754499e+19,1.0530321685210352e+19,0.8061656379836388,2.375296912114014
67.0,8.810999394345732e+19,1.9796354312105497e+19,0.8062844950081345,2.375296912114014
68.0,1.6606388499854885e+20,3.724276455865405e+19,0.8064055393437116,2.375296912114014
69.0,3.1321686127599426e+20,7.011555438914137e+19,0.806528732813776,2.375296912114014
70.0,5.91202989842112e+20,1.3210065870909216e+20,0.8066540366006179,2.375296912114014
71.0,1.1167372911494405e+21,2.4906680802491148e+20,0.8067814112596275,2.375296912114014
72.0,2.11100572347483e+21,4.699469390923219e+20,0.806910816733703,2.375296912114014
73.0,3.9934900946158155e+21,8.873714625832022e+20,0.8070422123678375,2.375296912114014
74.0,7.560337139428057e+21,1.6768223071102472e+21,0.8071755569238813,2.375296912114014
75.0,1.4323703865139849e+22,3.170987980534863e+21,0.8073108085954721,2.375296912114014
76.0,2.715783369392729e+22,6.00107229707794e+21,0.8074479250231222,2.375296912114014
77.0,5.15300146178746e+22,1.1365545910739115e+22,0.8075868633094593,2.375296912114014
78.0,9.7847609556217e+22,2.1541657532286284e+22,0.8077275800346105,2.375296912114014
79.0,1.8593630049657587e+23,4.085970563654855e+22,0.8078700312717226,2.375296912114014
80.0,3.5359091390911816e+23,7.756009002283875e+22,0.8080141726026112,2.375296912114014
81.0,6.72914096757936e+23,1.4733560702842503e+23,0.8081599591335296,2.375296912114014
82.0,1.2815577777836656e+24,2.800932164145878e+23,0.8083073455110522,2.375296912114014
83.0,2.442502155278997e+24,5.3287062772915464e+23,0.8084562859380623,2.375296912114014
84.0,4.65851861189991e+24,1.0145276504576788e+24,0.8086067341898375,2.375296912114014
85.0,8.891488933683817e+24,1.9329794970761418e+24,0.8087586436302259,2.375296912114014
86.0,1.6982919347796951e+25,3.6856148134603213e+24,0.8089119672279013,2.375296912114014
87.0,3.2460752159755084e+25,7.032501149000784e+24,0.809066657572698,2.375296912114014
88.0,6.208835176382433e+25,1.3428405035089216e+25,0.8092226668920068,2.375296912114014
89.0,1.1884029361910814e+26,2.5659674640181774e+25,0.8093799470672339,2.375296912114014
90.0,2.2762283115247895e+26,4.906672257666967e+25,0.8095384496503081,2.375296912114014
91.0,4.362773937101362e+26,9.389209079558723e+25,0.8096981258802345,2.375296912114014
92.0,8.367590794046312e+26,1.79793363604594e+26,0.8098589266996828,2.375296912114014
93.0,1.605923414871389e+27,3.445223478516428e+26,0.8100208027716043,2.375296912114014
94.0,3.0841219017973147e+27,6.6062714974109e+26,0.8101837044958704,2.375296912114014
95.0,5.926741498888741e+27,1.2676130053849037e+27,0.8103475820259252,2.375296912114014
96.0,1.1396550636566796e+28,2.4339069084988252e+27,0.8105123852854447,2.375296912114014
97.0,2.19279943729012e+28,4.676315511234888e+27,0.8106780639849939,2.375296912114014
98.0,4.221699576608876e+28,8.990452900825795e+27,0.8108445676386781,2.375296912114014
99.0,8.132674286685633e+28,1.7295472211134914e+28,0.8110118455807789,2.375296912114014
100.0,1.5675868789178383e+29,3.329287883270043e+28,0.8111798469823663,2.375296912114014
101.0,3.0232665041285477e+29,6.4125853025271875e+28,0.8113485208678841,2.375296912114014
102.0,5.83394126175803e+29,1.2358690998366876e+29,0.8115178161316986,2.375296912114014
103.0,1.1263738784518733e+30,2.3832180296836397e+29,0.8116876815546061,2.375296912114014
104.0,2.175864977018308e+30,4.5983431151347034e+29,0.811858065820289,2.375296912114014
105.0,4.2053678814597226e+30,8.87727004146962e+29,0.8120289175317195,2.375296912114014
106.0,8.1319075278233e+30,1.7147150805282308e+30,0.8122001852274997,2.375296912114014
107.0,1.5732250360987193e+31,3.313850167166812e+30,0.8123718173981338,2.375296912114014
108.0,3.045038130651867e+31,6.407607366514444e+30,0.812543762502226,2.375296912114014
109.0,5.896461705555163e+31,1.239580334067564e+31,0.8127159689825995,2.375296912114014
110.0,1.1423005715274663e+32,2.3991795593256537e+31,0.8128883852823273,2.375296912114014
111.0,2.213872951786544e+32,4.645725463139164e+31,0.8130609598606734,2.375296912114014
112.0,4.2924133300229804e+32,8.99995575726874e+31,0.8132336412089345,2.375296912114014
113.0,8.325685557212831e+32,1.7442811736040434e+32,0.8134063778661801,2.375296912114014
114.0,1.6154783323944886e+33,3.382011362436772e+32,0.8135791184348845,2.375296912114014
115.0,3.135724702825686e+33,6.560080592163062e+32,0.8137518115964443,2.375296912114014
116.0,6.088682485631982e+33,1.2729515247167785e+33,0.8139244061265782,2.375296912114014
117.0,1.182633721107755e+34,2.471019180993843e+33,0.8140968509106034,2.375296912114014
118.0,2.297796806182701e+34,4.7983825021939003e+33,0.8142690949585836,2.375296912114014
119.0,4.465810644617496e+34,9.320967860571159e+33,0.8144410874203446,2.375296912114014
120.0,8.681788277604876e+34,1.8112042406833182e+34,0.8146127776003533,2.375296912114014
121.0,1.6882282615872967e+35,3.5205212099325967e+34,0.8147841149724533,2.375296912114014
122.0,3.283667169191822e+35,6.844984492415313e+34,0.814955049194458,2.375296912114014
123.0,6.388310308959728e+35,1.3312412785011828e+35,0.8151255301225917,2.375296912114014
124.0,1.2430961820912287e+36,2.589719522105687e+35,0.8152955078257783,2.375296912114014
125.0,2.4194034878932087e+36,5.039102498306493e+35,0.8154649325997739,2.375296912114014
126.0,4.70966202346147e+36,9.807335692754487e+35,0.815633754981138,2.375296912114014
127.0,9.169425661115882e+36,1.909146200245965e+36,0.8158019257610412,2.375296912114014
128.0,1.7854949228650614e+37,3.717154230797959e+36,0.815969395998906,2.375296912114014
129.0,3.477221925837214e+37,7.238660650097101e+36,0.8161361170358785,2.375296912114014
130.0,6.7726212745772555e+37,1.4098572617510332e+37,0.8163020405081263,2.375296912114014
131.0,1.3192440332630155e+38,2.7463411076898544e+37,0.8164671183599618,2.375296912114014
132.0,2.5699869393548923e+38,5.350438759253485e+37,0.8166313028567883,2.375296912114014
133.0,5.006885763453146e+38,1.0424930473603439e+38,0.8167945465978629,2.375296912114014
134.0,9.75504105261978e+38,2.0314172356295145e+38,0.8169568025288814,2.375296912114014
135.0,1.9006774877650112e+39,3.958800989462046e+38,0.8171186730408038,2.375287581922358
136.0,3.70360316398129e+39,7.714594174037086e+38,0.817269609379132,2.375419984348648
137.0,7.214849440802762e+39,1.501400711615834e+39,0.8172913683052669,2.377396299286959
138.0,1.4042649656664966e+40,2.917851974592567e+39,0.8171729804922276,2.3813791882442703
139.0,2.7302233625615143e+40,5.667467127227971e+39,0.8170210558707347,2.3858359325488685
140.0,5.303893532312437e+40,1.0999578642608747e+40,0.8168695197698216,2.390277258366661
141.0,1.029445793833787e+41,2.132577423167483e+40,0.8167184226784981,2.394701654253366
142.0,1.9961359252169617e+41,4.13123025598379e+40,0.8165678158444433,2.3991075943923534
143.0,3.867086195738952e+41,7.996285801337934e+40,0.8164177512699651,2.4034935389484624
144.0,7.4847656519075e+41,1.5462878140985616e+41,0.8162682817062947,2.407857934455947
145.0,1.4473092673217887e+42,2.9875046063133784e+41,0.8161194606459851,2.4121992142440023
146.0,2.796016985603682e+42,5.766921890481895e+41,0.8159713423133257,2.4165157989013286
147.0,5.396506429375156e+42,1.1122023051222759e+42,0.8158239816526818,2.420806096781167
148.0,1.040581591891702e+43,2.1430493101338473e+42,0.8156774343146778,2.425068504548146
149.0,2.0046179636816169e+43,4.125632675895622e+42,0.8155317566401415,2.429301407768263
150.0,3.858154014743372e+43,7.93515249325206e+42,0.8153870056417319,2.433503181543185
151.0,7.418554694839068e+43,1.524850341381919e+43,0.8152432389831812,2.4376721911900225
152.0,1.4251212771000435e+44,2.9275717710169335e+43,0.8151005149560815,2.4418067929676135
153.0,2.7351320293854027e+44,5.615597014458264e+43,0.8149588924541602,2.445905334850217
154.0,5.244446938646169e+44,1.0762007997090234e+44,0.8148184309449865,2.449966157349465
155.0,1.0046565719551665e+45,2.060635486752031e+44,0.8146791904390641,2.4539875943852136
156.0,1.9227997664679663e+45,3.9420377950768345e+44,0.8145412314562721,2.4579679742058564
157.0,3.676639960655781e+45,7.534490195176484e+44,0.8144046149896221,2.4619056203584835
158.0,7.023785497028916e+45,1.438807256552593e+45,0.8142694024663104,2.465798852709123
159.0,1.3405940835310614e+46,2.745170747995051e+45,0.8141356557060523,2.4696459885131237
160.0,2.55642093990251e+46,5.23307251783712e+45,0.8140034368766956,2.473445343535572
161.0,4.870570586291501e+46,9.967076696832923e+45,0.8138728084471208,2.4771952332214373
162.0,9.2713599553658e+46,1.8967311543700803e+46,0.8137438331374452,2.480893973914961
163.0,1.7633039414449855e+47,3.6064029611252706e+46,0.8136165738665597,2.484539884127585
164.0,3.3506984848680397e+47,6.851364942466285e+46,0.8134910936970366,2.488131285853532
165.0,6.361690766078518e+47,1.3005243755481475e+47,0.8133674557774632,2.491666505931916
166.0,1.206823286757781e+48,2.4666236485713857e+47,0.8132457232822582,2.4951438774540398
167.0,2.2874620723399192e+48,4.674498562698511e+47,0.8131259593490517,2.498561741214363
168.0,4.332201727688993e+48,8.851562612620258e+47,0.8130082270137104,2.5019184472033076
169.0,8.198109668417551e+48,1.674799974471126e+48,0.8128925891431087,2.505212356139956
170.0,1.550154790931376e+49,3.166428002371994e+48,0.8127791083657567,2.508441841042368
171.0,2.9288624633642144e+49,5.98199192820155e+48,0.8126678470004051,2.5116052888330893
172.0,5.529578139023252e+49,1.1292697386222236e+49,0.8125588669827629,2.5147011019771606
173.0,1.0431840367343755e+50,2.130255105539488e+49,0.8124522297904738,2.517727700149733
174.0,1.966585504187318e+50,4.015635179763313e+49,0.8123479963665051,2.520683521930189
175.0,3.7047167361478245e+50,7.564365508641446e+49,0.8122462270411202,2.5235670265194265
176.0,6.97420970092256e+50,1.4239460648121262e+50,0.8121469814526103,2.526376695476808
177.0,1.3120204424671324e+51,2.678704180110816e+50,0.8120503184669748,2.529111034473042
178.0,2.466606247355179e+51,5.035861690546558e+50,0.8119562960967471,2.53176857505512
179.0,4.6342656295901856e+51,9.461250260297657e+50,0.8118649714191701,2.5343478764192207
180.0,8.701464475813953e+51,1.77646668956485e+51,0.8117764004939405,2.5368475271873816
181.0,1.6328368165309604e+52,3.3335558274216065e+51,0.811690638280737,2.5392661471835534
182.0,3.0622532056109537e+52,6.251857363087354e+51,0.8116077385567658,2.541602389204551
183.0,5.739794807198495e+52,1.1718439945370193e+52,0.811527753834554,2.543854940781301
184.0,1.0752708075656144e+53,2.1953253467080343e+52,0.8114507352802287,2.5460225259256752
185.0,2.013330206648624e+53,4.1106024734164485e+52,0.811376732632527,2.548103906858152
186.0,3.7678833656788555e+53,7.69305587590359e+52,0.8113057941227768,2.550097885711463
187.0,7.04814723828715e+53,1.4390921983457525e+53,0.8112379663960999,2.5520033062053824
188.0,1.317824293140437e+54,2.690818165315964e+53,0.8111732944340793,2.553819055287767
189.0,2.4629476069977158e+54,5.0291654402718355e+53,0.811111821479139,2.555544064736988
190.0,4.601275137713847e+54,9.395790590185262e+53,0.8110535889608832,2.5571773127209214
191.0,8.592844950725356e+54,1.7547155026880078e+54,0.8109986364246312,2.558717825307718
192.0,1.604138987395628e+55,3.2758677311864705e+54,0.8109470014623894,2.560164677923639
193.0,2.993669694181049e+55,6.1136796491356774e+54,0.810898719646494,2.561516996753357
194.0,5.585131083607678e+55,1.140633732689865e+55,0.8108538244661446,2.562773960078243
195.0,1.0416967252409908e+56,2.1274904055545346e+55,0.8108123472670561,2.5639347995482904
196.0,1.9423996532423777e+56,3.9671410044702425e+55,0.8107743171944283,2.564998801383511
197.0,3.6210644802937395e+56,7.395833919338639e+55,0.8107397611394458,2.5659653075008078
198.0,6.749092515644981e+56,1.3785010378448498e+56,0.8107087036894873,2.5668337165625537
199.0,1.2577001400094625e+57,2.5689077363805646e+56,0.8106811670822299,2.5676034849433287
200.0,2.3433796070094193e+57,4.786548642477892e+56,0.8106571711638088,2.568274127611512
201.0,4.3656935152659125e+57,8.917439443746827e+56,0.8106367333511894,2.5688452189226854
202.0,8.132427327290339e+57,1.6611650967182257e+57,0.8106198685988857,2.5693163933221004
203.0,1.514798291170815e+58,3.094223079702025e+57,0.8106065893701511,2.569687345953753
204.0,2.8214244658633506e+58,5.763256302866577e+57,0.8105969056127433,2.5699578331739055
205.0,5.254996169578953e+58,1.0734283358249549e+58,0.8105908247393633,2.57012767296724
206.0,9.787642174598546e+58,1.9993016404809142e+58,0.8105883516128322,2.570196745264144
207.0,1.823042567084651e+59,3.723874868312046e+58,0.8105894885360707,2.5701649921579715
208.0,3.3957828106111665e+59,6.936408612194217e+58,0.8105942352469159,2.570032418021481
209.0,6.325846819709481e+59,1.2921365861887318e+59,0.8106025889177982,2.569799089521995
210.0,1.1785401271719078e+60,2.4072858061938063e+59,0.810614544160283,2.569465135535175
211.0,2.1959792719284908e+60,4.485425514107196e+59,0.810630093034461,2.56903074695768
212.0,4.092431568415589e+60,8.3588715813411e+59,0.8106492250631561,2.568496176419311
213.0,7.628076645886086e+60,1.5580122499606037e+60,0.8106719272508998,2.5678617378956075
214.0,1.4221327448476043e+61,2.9045873265469832e+60,0.8106981841076059,2.5671278062222145
215.0,2.6519641188968137e+61,5.416259234328933e+60,0.8107279776768601,2.5662948165126567
216.0,4.94661869893293e+61,1.0102454102663231e+61,0.8107612875687232,2.5653632634815122
217.0,9.229395902014435e+61,1.8848538908756584e+61,0.8107980909969307,2.5643337006752747
218.0,1.7225539239531673e+62,3.517731480590479e+61,0.8108383628203552,2.5632067396135336
219.0,3.216011779351892e+62,6.567386859185496e+61,0.8108820755885844,2.561983048843347
220.0,6.006453377728326e+62,1.226529654278865e+62,0.8109291995914537,2.5606633529100153
221.0,1.1222369249776643e+63,2.291551099832186e+62,0.8109797029123561,2.5592484312476804
222.0,2.0976214288000834e+63,4.283092507441471e+62,0.8110335514851427,2.557739116993447
223.0,3.9224352347795424e+63,8.008884265660125e+62,0.811090709154418,2.5561362957289275
224.0,7.338045662310187e+63,1.4982467101173233e+63,0.8111511377390159,2.554440904153338
225.0,1.3734431162389438e+64,2.8041506657505987e+63,0.8112147970984418,2.552653928692426
226.0,2.5719119499342401e+64,5.250925275928244e+63,0.8112816452020541,2.550776404047698
227.0,4.81865685288005e+64,9.837764777470979e+63,0.8113516382007507,2.5488094116905304
228.0,9.032948492458976e+64,1.844134442314145e+64,0.8114247305009206,2.546754078305889
229.0,1.694242795439542e+65,3.458864394140178e+64,0.8115008748404197,2.5446115741904367
230.0,3.179604414410697e+65,6.491250621867379e+64,0.8115800223663212,2.542383111609923
231.0,5.970770891365961e+65,1.21895024587596e+65,0.8116621227141918,2.5400699431207414
232.0,1.1219045818214939e+66,2.290419397570574e+65,0.8117471240886415,2.537673359860618
233.0,2.109394172275227e+66,4.306494908587378e+65,0.8118349733449001,2.535194689813346
