Time,J,A,S,tau
0.0,100.0,10.0,0.7135333341777482,27.332762538596228
1.0,99.8194627770339,9.001240285884602,0.7122450677869047,28.332600420024207
2.0,99.64286145508035,8.102442047744729,0.7109849996206911,29.332597686747956
3.0,99.47000052712293,7.293798635182733,0.709751620267461,30.332594953471705
4.0,99.3006951330477,6.566213710547233,0.7085436106932045,31.33259222019545
5.0,99.13476771138514,5.911513715932399,0.7073597039418754,32.3325894869192
6.0,98.97204758738023,5.322354138156651,0.7061986821961478,33.33258675364294
7.0,98.81237060186558,4.79213861403876,0.7050593741293155,34.33258402036668
8.0,98.65557875362974,4.314938804555511,0.7039406523534842,35.33258128709043
9.0,98.50151984065464,3.885425283352319,0.702841430859692,36.332578553814166
10.0,98.35004713481372,3.498809346208679,0.701760662696783,37.332575820537905
11.0,98.201019074492,3.1507867597017247,0.7006973377781603,38.33257308726165
12.0,98.05429895171415,2.837486479071126,0.6996504806493486,39.33257035398539
13.0,97.90975462528111,2.5554287048300943,0.6986191484411381,40.33256762070913
14.0,97.76725825321934,2.301485356403994,0.697602428960528,41.332564887432866
15.0,97.62668601967347,2.0728421480570485,0.6965994387420233,42.33256215415661
16.0,97.48791788011356,1.866968235600119,0.6956093212296093,43.33255942088035
17.0,97.35083732519637,1.6815882239355247,0.69463124509183,44.33255668760409
18.0,97.21533114151373,1.5146544340814985,0.6936644025146537,45.332553954327835
19.0,97.081289183484,1.36432474307482,0.6927080075738478,46.332551221051574
20.0,96.9486041615634,1.2289423802380053,0.6917612947238005,47.33254848777531
21.0,96.81717143304974,1.1070165115325816,0.6908235173048406,48.33254575449905
22.0,96.68688879147261,0.997205569093544,0.6898939460404698,49.33254302122279
23.0,96.55765628371053,0.8983027058817242,0.6889718677324357,50.33254028794653
24.0,96.42937600755025,0.8092210143495521,0.6880565838162537,51.33253755467027
25.0,96.3019519383425,0.7289832662704712,0.6871474091243394,52.332534821394006
26.0,96.17528974422599,0.6567089691654928,0.6862436705675735,53.332532088117745
27.0,96.0492966140179,0.5916062677743219,0.6853447059072448,54.33252935484148
28.0,95.92388109031626,0.5329619731166473,0.6844498625641796,55.33252662156522
29.0,95.79895289902234,0.4801340709250494,0.683558496402331,56.33252388828896
30.0,95.6744227937745,0.43254484297689605,0.6826699706187608,57.3325211550127
31.0,95.55020239178765,0.38967370414279295,0.6817836545723008,58.33251842173644
32.0,95.42620402218682,0.35105241870969767,0.680898922701362,59.33251568846018
33.0,95.30234057082887,0.3162589411804016,0.6800151534166847,60.332512955183915
34.0,95.1785253297944,0.284913531363407,0.6791317280274135,61.332510221907654
35.0,95.05467184874733,0.2566740872545735,0.6782480296804961,62.33250748863139
36.0,94.93069378686555,0.2312324918072628,0.6773634423041581,63.332504755355124
37.0,94.80650476657304,0.20831142433144245,0.6764773495642313,64.33250202207887
38.0,94.68201822875267,0.1876608849649214,0.6755891338310461,65.33249928880261
39.0,94.55714728728739,0.16905594465461943,0.6746981751415323,66.33249655552635
40.0,94.43180458506659,0.15229380938445594,0.6738038501717731,67.33249382225009
41.0,94.30590215083762,0.13719194119455702,0.6729055312155906,68.33249108897382
42.0,94.17935125206014,0.12358587015955659,0.6720025851346076,69.33248835569756
43.0,94.05206225500766,0.11132740445212765,0.671094372360023,70.3324856224213
44.0,93.92394447346354,0.10028314517597342,0.6701802458130021,71.33248288914504
45.0,93.7949060285685,0.0903327984917478,0.6692595499046375,72.33248015586878
46.0,93.66485369742651,0.08136810879638094,0.6683316194556959,73.33247742259252
47.0,93.5336927656767,0.07329145819863796,0.6673957786446649,74.33247468931626
48.0,93.40132688078171,0.06601495128901952,0.6664513399609108,75.33247195604
49.0,93.26765789290904,0.05945938863372597,0.6654976030693064,76.33246922276373
50.0,93.13258571241366,0.053553386490844145,0.6645338537933169,77.33246648948747
51.0,92.99600814223797,0.048232682211816945,0.6635593629191094,78.33246375621121
52.0,92.85782073109331,0.043439314338103226,0.6625733851479473,79.33246102293495
53.0,92.71791660717368,0.03912111309028539,0.6615751579096735,80.33245828965869
54.0,92.57618631605366,0.035231032151094986,0.6605639002060507,81.33245555638243
55.0,92.43251766303199,0.03172670018663141,0.6595388114858206,82.33245282310617
56.0,92.28679553201674,0.028569939308845327,0.6584990703523798,83.3324500898299
57.0,92.13890173349169,0.025726330902976158,0.6574438334789605,84.33244735655363
58.0,91.98871481325202,0.023164889631576088,0.6563722342438845,85.33244462327738
59.0,91.83610989181098,0.020857665285975567,0.6552833815846659,86.3324418900011
60.0,91.68095847885017,0.018779497848467653,0.6541763586740412,87.33243915672485
61.0,91.52312828989452,0.016907698833729997,0.6530502216118714,88.33243642344858
62.0,91.36248307568664,0.015221830421504453,0.65190399820766,89.33243369017232
63.0,91.19888241461415,0.013703479756572209,0.6507366864994389,90.33243095689606
64.0,91.03218155037312,0.012336044343848473,0.6495472535954308,91.3324282236198
65.0,90.86223117649511,0.011104578596984545,0.6483346341365626,92.33242549034355
66.0,90.68887726193051,0.009995600652053224,0.6470977290519314,93.3324227570673
67.0,90.51196085003528,0.008996973930653508,0.6458354041244924,94.33242002379106
68.0,90.33131785601893,0.008097755332701885,0.6445464885457667,95.3324172905148
69.0,90.14677889078006,0.007288086068742942,0.643229773658835,96.33241455723855
70.0,89.95816903303393,0.006559085931017641,0.6418840113323733,97.3324118239623
71.0,89.76530766678174,0.00590274716328596,0.6405079128009268,98.33240909068606
72.0,89.5680082539126,0.005311861998827387,0.639100147042331,99.3324063574098
73.0,89.36607815899079,0.004779929051543404,0.6376593395274928,100.33240362413355
74.0,89.15931845142573,0.004301095753592296,0.6361840708087895,101.3324008908573
75.0,88.94752370180858,0.003870086135378077,0.6346728750668423,102.33239815758105
76.0,88.73048182438801,0.003482146780164099,0.6331242389865128,103.3323954243048
77.0,88.50797385486044,0.0031329972219757366,0.6315366001713382,104.33239269102855
78.0,88.27977381702563,0.002818777590742534,0.6299083461920596,105.3323899577523
79.0,88.0456485186569,0.0025360142349541114,0.6282378131300653,106.33238722447605
80.0,87.80535741192446,0.00228157445657981,0.6265232845814458,107.3323844911998
81.0,87.55865244278463,0.0020526384111970346,0.6247629905823159,108.33238175792354
82.0,87.30527789283732,0.0018466648162592122,0.622955106480394,109.3323790246473
83.0,87.04497029265441,0.0016613641693525763,0.6210977523165538,110.33237629137105
84.0,86.77745826258325,0.0014946756252348062,0.6191889916888812,111.3323735580948
85.0,86.50246390480024,0.001409777557152997,0.6172268314481014,112.33237082481855
86.0,86.21970043243559,0.0014015917599738462,0.6152092221180405,113.3323680915423
87.0,85.92887242546244,0.001393280908055711,0.6131340662326019,114.33236535826606
88.0,85.62967656541443,0.001384842732407787,0.6109991991354067,115.3323626249898
89.0,85.32179616422378,0.0013762750244488116,0.608802360709396,116.33235989171355
90.0,85.00491460836882,0.0013675755786770227,0.6065412913703571,117.33235715843729
91.0,84.6787109709172,0.0013587422842078116,0.6042137007257908,118.33235442516104
92.0,84.34284156802367,0.0013497731786725814,0.6018171358624081,119.33235169188478
93.0,83.99695929184014,0.0013406663124359017,0.5993491194145821,120.33234895860853
94.0,83.6407167858499,0.00133141974208712,0.5968071722396683,121.33234622533227
95.0,83.2737580984225,0.0013220316897780324,0.5941887537825218,122.33234349205604
96.0,82.89571735583493,0.001312500491650614,0.5914912526063576,123.3323407587798
97.0,82.50622271861617,0.0013028244814622752,0.5887120146475466,124.33233802561215
98.0,82.10221868932555,0.003972232834182606,0.5858753271973671,125.32860520337026
99.0,81.37444320731262,0.319127928460256,0.5861026693521275,125.88826950442957
100.0,80.50538736635224,0.7668506698306711,0.5875924878531604,126.25913267190873
101.0,79.6233840219159,1.2200575601573098,0.5890636643001549,126.61782830879193
102.0,78.72975902784106,1.6787290340078989,0.5905132190609237,126.96410780444415
103.0,77.82617245820279,2.1428738581517064,0.5919383493920527,127.29766385441124
104.0,76.91449253316722,2.612495360833054,0.5933361397586966,127.61818625524471
105.0,75.99704978871557,3.087583730782301,0.5947034497917141,127.92535947479075
106.0,75.07649491317866,3.568122364527073,0.5960369852501287,128.21886445431628
107.0,74.15593155630259,4.054081594121691,0.5973332567630276,128.4983779711196
108.0,73.23895782816665,4.545421566658075,0.5985885620870457,128.76357244859437
109.0,72.32958588270863,5.0420905123901685,0.5997990363148139,129.01411719500155
110.0,71.43240749948757,5.544023501467083,0.6009605857161221,129.2496773081976
111.0,70.55256379643896,6.051141260084453,0.6020689112990467,129.46991439507372
112.0,69.69571590737488,6.563352194818851,0.6031195200084772,129.67448689316387
113.0,68.86819709186847,7.080547021637786,0.6041076743125332,129.86304955388977
114.0,68.07684398663055,7.602603045893269,0.6050284536472602,130.035254523448
115.0,67.32914576533982,8.129379388733966,0.6058766990538665,130.19075078088903
116.0,66.63316999071206,8.660717518295938,0.6066470359396047,130.3291846796926
117.0,65.9975281141455,9.196441224375102,0.6073338803499856,130.45020020251192
118.0,65.43138396861585,9.73635485347007,0.6079314240660514,130.5534390199135
119.0,64.94439121193273,10.28024192072177,0.608433642785423,130.63854081354185
120.0,64.54661097274966,10.827865724909566,0.608834311393434,130.7051436149447
121.0,64.24846592893623,11.378967951279929,0.6091269959563019,130.75288396778765
122.0,64.06063958851257,11.933266588338519,0.6093050600173077,130.78139724296332
123.0,63.99395572495258,12.490456826652277,0.6093616868982831,130.79031800417593
124.0,64.05927694296437,13.050210218221133,0.6092898804048459,130.77928026044177
125.0,64.26734597107696,13.612172066911809,0.6090824720254692,130.74791783112147
126.0,64.6286418683479,14.17596238392918,0.608732149161859,130.6958647059277
127.0,65.15323956196238,14.741175727900792,0.6082314650230862,130.62275535691674
128.0,65.85058095269896,15.307378520675613,0.6075728510332076,130.5282252117996
129.0,66.72932566331605,15.874109628442483,0.6067486497741997,130.411910995654
130.0,67.79719459131587,16.44088143412301,0.6057511312382705,130.27345108939357
131.0,69.6624279977124,16.35729444108448,0.7346963465965201,31.29344763928532
132.0,71.74817918903534,16.086366565850373,0.729674531880272,30.452054309903552
133.0,73.832898744223,15.838915113368275,0.7246069956610466,29.639364393234036
134.0,75.90362289311408,15.623122378282908,0.7194971333390121,28.854653918167337
135.0,77.9479469284276,15.448644313478114,0.7143483406093217,28.097166501246626
136.0,79.95468264944192,15.326635316493581,0.7091640138874055,27.36612349205785
137.0,81.91459938934406,15.269716222066014,0.7039475487981876,26.660732716061247
138.0,83.82124486564835,15.291869447908143,0.6987023352361822,25.980195484469068
139.0,85.671705098874,15.40826473375948,0.6934317595512355,25.32371326115192
140.0,87.46743779693855,15.635012953215695,0.6881391981483991,24.690492240447462
141.0,89.21490976326544,15.988851777793123,0.6828280201064475,24.07974808394574
142.0,90.92616279222071,16.486758250424387,0.677501581277702,23.490708815364147
143.0,92.61920004687217,17.145514138223685,0.6721632230504679,22.922617754818283
144.0,94.3180090764985,17.981235651364408,0.6668162726492375,22.374735767181463
145.0,96.05247767149307,19.008872684927123,0.6614640366677783,21.84634250181631
146.0,97.85784551356116,20.24170559833227,0.6561098027998912,21.336738053214575
147.0,99.77392245763906,21.690874120585264,0.6507568353979063,20.84524344585717
148.0,101.84401509695753,23.36492027698396,0.6454083731760841,20.371201312709683
149.0,104.1134515222234,25.269399802456622,0.6400676299577435,19.913976407853443
150.0,106.63257400489556,27.401892288549316,0.6347377904339543,19.472955537374833
151.0,109.56938891463825,29.61693771038998,0.6294220055478759,19.047547218088813
152.0,112.97284895789943,31.835769954339156,0.624123388821286,18.637181544576652
153.0,116.80637744656839,34.051666358766305,0.6188450210797407,18.241310289452432
154.0,121.02249826576947,36.263822318298985,0.6135899454162754,17.85940628809171
155.0,125.56432644786341,38.47866524440549,0.6083611620455436,17.49096278920593
156.0,130.36769052275088,40.710888880236254,0.6031616278772,17.135493060181954
157.0,135.36384499839556,42.98399054270653,0.5979942552825227,16.792529835836273
158.0,140.48267428532694,45.33021732381958,0.5928619054909691,16.461624564476388
159.0,145.65602658165838,47.789816177255766,0.5877673916796299,16.142346982546105
160.0,150.82115520737392,50.409613580834574,0.58271347367125,15.834284410143251
161.0,155.92374353639516,53.24094175193658,0.5777028579852368,15.53704124575775
162.0,160.92038059119676,56.337024624657474,0.5727381953703223,15.250238243411326
163.0,165.78033634144109,59.75006125721817,0.5678220782995607,14.97351187944224
164.0,170.4864649778972,63.52815042278633,0.5629570389492925,14.706513814572121
165.0,175.03759000294605,67.70946529754607,0.5581455492119621,14.44891033067329
166.0,179.48038765529984,72.28088844948846,0.5533900184258647,14.200381681675571
167.0,183.88192448786327,77.18945115457535,0.5486927912113535,13.960621533344002
168.0,188.29040398842065,82.37803800064482,0.5440561470208964,13.72933650547117
169.0,192.73220776536317,87.79069360322552,0.5394822995273514,13.506245601334713
170.0,197.21126461208306,93.37695935924881,0.5349733951309402,13.291079671328381
171.0,201.70987650874838,99.09570190320575,0.5305315109918267,13.083580931347363
172.0,206.19101992550443,104.91799169525555,0.5261586563554737,12.883502574780465
173.0,210.60231376122186,110.82852239513429,0.5218567714537979,12.690608268119655
174.0,214.88092311376928,116.8255138531222,0.5176277273623491,12.504671716724548
175.0,218.95910392400472,122.9191508443764,0.5134733246142934,12.325476247160381
176.0,222.76980460275655,129.1287185049567,0.5093952937480957,12.152814422402235
177.0,226.25190314977866,135.47879531734677,0.5053952953373778,11.986487663950198
178.0,229.3584846760526,141.99077201259158,0.5014749201690758,11.826305891183322
179.0,232.06802595089928,148.66874094112137,0.4976356875440156,11.672087055253382
180.0,234.38096846766396,155.49702593000436,0.4938790528216714,11.523657289380713
181.0,236.31275106348326,162.44507362643284,0.490206398845621,11.380849879144487
182.0,237.8869643191079,169.47135872253244,0.4866190407226127,11.243505437517282
183.0,239.12937539444354,176.52870891772406,0.48311822698982587,11.111471491908723
184.0,240.06369426075403,183.56905679022995,0.47970513992303104,10.98460221753377
185.0,240.70887929645627,190.54745578752178,0.4763808965080609,10.86275817878689
186.0,241.07806315488045,197.4249768149752,0.4731465494890745,10.745806091742303
187.0,241.17881991362728,204.17031237302368,0.470003088047459,10.633618555270616
188.0,241.01453209575936,210.76022890614158,0.46695143951398854,10.526073877144887
189.0,240.58704224996382,217.17822231809612,0.4639924695525276,10.423055866525164
190.0,239.89974748027126,223.41153603800694,0.4611269864590413,10.324453365252287
191.0,238.962057316119,229.44800959106072,0.45835573998864415,10.23016066949889
192.0,237.7876218728347,235.27485675345432,0.45567941995270306,10.140076702997655
193.0,236.39750491699672,240.87752519822604,0.45309866748207217,10.054105172291337
194.0,234.78681847486942,246.2710008571506,0.45068047450445087,9.970163178137456
195.0,233.07923207474644,251.34114052326893,0.44820460727599737,9.894772044864993
196.0,231.3164771036175,256.04347748193317,0.4456087534697609,9.829519396070445
197.0,229.5080786294979,260.3683553278943,0.442901925018614,9.773876920587478
198.0,227.66541788380178,264.30949156073785,0.44009380888291677,9.727339236351384
199.0,225.79839817658217,267.8652906974614,0.4371947742584442,9.68942520538196
200.0,223.91624219432632,271.03774055634693,0.43421568024400536,9.659671767530357
201.0,222.030017821316,273.8325519853814,0.43116792075348664,9.637636730064306
202.0,220.14863842903995,276.25856010920427,0.42806327120264015,9.62289477754274
203.0,218.28628607167917,278.3247794599065,0.4249091641812623,9.615166297129793
204.0,216.464746075644,280.0296165123443,0.42167957018847696,9.615117705690878
205.0,214.5987460876428,281.49173795338714,0.41864976995224934,9.615117705690878
206.0,212.72120480823506,282.7188139534919,0.4158230279793988,9.615117705690878
207.0,210.86264327927753,283.71949258023517,0.41320070590653746,9.615117705690878
208.0,209.05072148712807,284.50395328358155,0.4107840215444122,9.615117705690878
209.0,207.31044143965218,285.08380001603246,0.4085740571994265,9.615117705690878
210.0,205.66437779254716,285.47192305494366,0.40657176848453747,9.615117705690878
211.0,204.13310266556002,285.682348203455,0.40477799017651406,9.615117705690878
212.0,202.73493806747808,285.73012904690603,0.4031934492332088,9.615117705690878
213.0,201.48667907834385,285.6308886551562,0.40181877114108916,9.615117705690878
214.0,200.40452716984885,285.4006433028394,0.40065448041941376,9.615117705690878
215.0,199.4994036470289,285.0597645117826,0.39970101156434734,9.615117705690878
216.0,198.78145448578925,284.62905308186083,0.3989587173049599,9.615117705690878
217.0,198.26241870183173,284.12878256847813,0.39842786318148454,9.615117705690878
218.0,197.9535167065328,283.5788998534758,0.398108635191201,9.615117705690878
219.0,197.86607329890512,282.9990114682938,0.39800115205626246,9.615117705690878
220.0,198.01290453071016,282.40826612894654,0.3981054462603944,9.615117705690878
221.0,198.40625139443893,281.82556562346184,0.3984214817304931,9.615117705690878
222.0,199.05919816156927,281.2695006084988,0.39894915167486594,9.615117705690878
223.0,199.986076202098,280.75835566688136,0.3996882618275989,9.615117705690878
224.0,201.20109390363382,280.31026278992334,0.40063854920520625,9.615117705690878
225.0,202.719897354764,279.94327393251814,0.40179966746724305,9.615117705690878
226.0,204.55905395767192,279.67552909921466,0.40317117696517807,9.615117705690878
227.0,206.73580680798548,279.5252501642023,0.40475255794932,9.615117705690878
228.0,209.26943967987597,279.51080590310454,0.4065431872751524,9.615117705690878
229.0,212.18048324032074,279.65080933967255,0.4085423365921229,9.615117705690878
230.0,215.49118195744705,279.9641207575527,0.4107491771727794,9.615117705690878
231.0,219.22634052311813,280.4700568132895,0.41316275127810226,9.615117705690878
232.0,223.4127530700274,281.1884198347924,0.41578197753307844,9.615117705690878
233.0,228.07996742567988,282.1396142073624,0.418605644667939,9.615117705690878
234.0,233.26048358462663,283.34483790760936,0.42163239149983006,9.615117705690876
235.0,239.00270471581433,284.8132580782232,0.4248248678372057,9.616028283187708
236.0,245.42240749496926,286.4816912897854,0.42795360841504737,9.623630860342937
237.0,252.55508550581445,288.36361444182,0.43101529613275175,9.637953318309316
238.0,260.443087129665,290.47073784745834,0.4340013492227743,9.659171073166254
239.0,269.13375005159287,292.8138049618824,0.4369012561240691,9.687522774805574
240.0,278.6786679308381,295.4036095234145,0.4397054188011645,9.72323952329558
241.0,289.13392206762177,298.2510050579454,0.4424051994777944,9.766544708958763
242.0,300.56029122787515,301.36693191922853,0.4449929548685643,9.817653874686016
243.0,313.02346005938836,304.762443418795,0.4474620628303131,9.876774568159787
244.0,326.5944086501052,308.448540384305,0.4498065303552785,9.944116855503946
245.0,341.3490243678502,312.4367680637212,0.4520224237423037,10.019856025088485
246.0,357.2612658207317,316.85603387815024,0.454346497779189,10.097867480691237
247.0,374.4426893754015,321.7222393601532,0.4567595397809001,10.17863988464414
248.0,393.0072128323475,327.05179190186624,0.45924427196126544,10.262621000543914
