Time,J,A,S,tau
0.0,100.0,10.0,0.9939737793601185,13.92999201202418
1.0,99.9183621926506,10.05861982750631,0.9939676616257954,14.908078834722431
2.0,99.84214702631087,10.111775712977344,0.993961512451365,15.888010229691796
3.0,99.77064102372007,10.160284012132092,0.9939553670328238,16.86921791062667
4.0,99.70344745903284,10.204567267724958,0.9939492381265055,17.851591988519438
5.0,99.64020330827758,10.24500975258785,0.9939431364158537,18.835032132302857
6.0,99.5805770998925,10.281960070477535,0.9939370706797996,19.81944695961419
7.0,99.52426750430199,10.315732850544459,0.9939310479546003,20.804753601618405
8.0,99.47099774038632,10.346615199045255,0.9939250738838341,21.790876124221683
9.0,99.42051541864421,10.374866934471763,0.9939191527932635,22.777745451678527
10.0,99.3725907220015,10.40047275734276,0.9939132878031713,23.765298950157838
11.0,99.32575360451436,9.5097307581579,0.9939074812385157,24.753478418710966
12.0,99.2810585933612,8.628139529654163,0.9939017344548335,25.742231212746688
13.0,99.23842973315054,7.830389502636239,0.9938960480926602,26.731508991817318
14.0,99.19769292569313,7.108456844697824,0.9938904221573588,27.72126739213612
15.0,99.15868819849476,6.455096219276055,0.9938848561021687,28.711465662683707
16.0,99.12126824535565,5.863754388816825,0.9938793489077354,29.702066291416788
17.0,99.08529723943684,5.328515789195022,0.9938738991466525,30.69303470126336
18.0,99.05064966979847,4.844028612934727,0.9938685050430007,31.6843389522132
19.0,99.01720932027301,4.405460164262543,0.9938631645229368,32.675949479891784
20.0,98.98486835408902,4.008440062921662,0.9938578752584105,33.66783886124203
21.0,98.95352643100436,3.64901834598561,0.9938526347064705,34.65998158859539
22.0,98.92308997408044,3.323625873861725,0.993847440141327,35.652353882045254
23.0,98.89347141953387,3.0290330282336284,0.9938422886841213,36.644933497562384
24.0,98.8645886100383,2.7623249783568258,0.9938371773265724,37.637699571809364
25.0,98.8363641572885,2.5208627078529626,0.9938321029531406,38.63063245915702
26.0,98.80872493210688,2.302262902130451,0.9938270623583255,39.6237136013156
27.0,98.78160152010642,2.104369490172683,0.9938220522629281,40.61692538821424
28.0,98.75492777997525,1.9252339025727738,0.9938170693266976,41.61025104511297
29.0,98.72864037708192,1.7630948073211952,0.9938121101600773,42.60367451344898
30.0,98.70267838703384,1.6163592487503402,0.9938071713335159,43.597180349561356
31.0,98.6769828914479,1.4835885156096762,0.9938022493858982,44.59075362145343
32.0,98.65149661163385,1.363480839795697,0.9937973408315165,45.5843798152457
33.0,98.62616354816929,1.2548613348684445,0.993792442166261,46.57804474314786
34.0,98.60092863494029,1.1566668457143015,0.9937875498730535,47.571734455130894
35.0,98.57573740358693,1.0679384286955478,0.9937826604267384,48.565435153259045
36.0,98.55053565048004,0.9878086498883292,0.993777770298685,49.55913310667189
37.0,98.52526910798251,0.9154953133438254,0.9937728759612201,50.55281456765278
38.0,98.49988311678011,0.8502920669571544,0.9937679738920725,51.546465687970525
39.0,98.47432228806595,0.791561878445298,0.9937630605791284,52.54007243261316
40.0,98.44853016740129,0.7387308920696798,0.9937581325254738,53.53362049394326
41.0,98.42244888710817,0.6912814350438073,0.9937531862550485,54.52709520290461
42.0,98.39601879169025,0.6487483043294721,0.9937482183193176,55.5204814333168
43.0,98.36917807294004,0.6107132369009954,0.9937432253045448,56.51376350862557
44.0,98.34186236247847,0.5768007406856869,0.9937382038406525,57.50692509774542
45.0,98.31400429838422,0.5466747688108962,0.9937331506116539,58.499949104249275
46.0,98.28553308412539,0.5200350783265354,0.9937280623674782,59.49281755355614
47.0,98.25637400894288,0.4966138528995096,0.9937229359379267,60.48551147022505
48.0,98.22644790756475,0.47617357479585853,0.9937177682495403,61.47801073969213
49.0,98.1956705989939,0.4585043931215261,0.993712556344828,62.470293964605176
50.0,98.16395226800849,0.44342206867940986,0.9937072974048967,63.46233830645126
51.0,98.13119681294879,0.4307660875348103,0.9937019887751436,64.45411931850046
52.0,98.09730108356237,0.42039811080306144,0.9936966279964692,65.44561075055293
53.0,98.06215412206592,0.41220033447999105,0.9936912128391455,66.4367843544343
54.0,98.02563623149025,0.4060746276300659,0.9936857413449596,67.4276096452062
55.0,97.98761802357532,0.4019414445051235,0.9936802118735978,68.41805365704444
56.0,97.9479593504544,0.39973870406326434,0.9936746231566059,69.4080806692643
57.0,97.90650842134636,0.39942051242804144,0.9936689743473464,70.39765197964617
58.0,97.86309940460907,0.4009636574387388,0.9936632651347989,71.38672528967415
59.0,97.81755279088938,0.40435386781082067,0.9936574957535642,72.37525479686627
60.0,97.76970029110717,0.4291641857402149,0.9936516671314213,73.36319042448521
61.0,97.71933932409839,0.4774900774450756,0.9936457809715993,74.35047751527185
62.0,97.66621073584358,0.5284396040962555,0.9936398398802214,75.33705628329956
63.0,97.6100613290533,0.582256364615586,0.9936338474920078,76.322861313529
64.0,97.55061414161075,0.6392070699054685,0.9936278086241896,77.30782094227193
65.0,97.48756591242214,0.6995840714436247,0.9936217294510736,78.29185657087214
66.0,97.42058438284484,0.7637080716326156,0.9936156176965826,79.27488192924926
67.0,97.34930537694633,0.8319310745109597,0.9936094828483248,80.25680227264704
68.0,97.27332956585823,0.9046396786798727,0.9936033363997946,81.2375134842419
69.0,97.19221891200154,0.9822587253717256,0.9935971921228022,82.21690107923794
70.0,97.10549269180527,1.0652554187505705,0.9935910663785452,83.19483907916552
71.0,97.01262340215148,1.1541436275933488,0.993584978450294,84.1711888337496
72.0,96.91303229025574,1.2494886447323685,0.993578950914955,85.14579771483405
73.0,96.80608452297547,1.3519124149169497,0.9935730100552879,86.11849767888864
74.0,96.69108392030725,1.4620993409787268,0.9935671863212315,87.08910366661195
75.0,96.56726735160315,1.5808026192298865,0.9935615148377277,88.0574118536208
76.0,96.43379912902756,1.7088508017699138,0.993556035938425,89.0231978305812
77.0,96.28976505454781,1.8471550070168563,0.993550795753319,89.98621459779827
78.0,96.1341663099331,1.9967166709047277,0.9935458468430719,90.94619040085007
79.0,95.9659130846533,2.158636081178502,0.9935412488969063,91.90282633855925
80.0,95.78381859532509,2.3341211446965198,0.9935370694524961,92.85579389276589
81.0,95.5865936264729,2.524496402716162,0.9935333846364259,93.80473236877101
82.0,95.37284155619162,2.7312125813388937,0.9935302799423785,94.74924616638562
83.0,95.14105433630607,2.95585647578668,0.9935278510289786,95.68890192916572
84.0,94.88960969152303,3.2001613550026016,0.9935262045444341,96.62322551781267
85.0,94.61677099539615,3.4660165937286798,0.9935254588743578,97.55169915610554
86.0,94.32068985563947,3.7554771382540286,0.9935257448492588,98.47375857279454
87.0,93.99941235725855,4.070772512945138,0.9935272063782845,99.38879021309185
88.0,93.650890107857,4.414315164793311,0.9935300009809773,100.29612855959881
89.0,93.27299770788325,4.788707554984353,0.9935343001511949,101.19505372432636
90.0,92.86355857778771,5.196746566976237,0.9935402894339724,102.08478969134991
91.0,92.42038046131799,5.641425929143734,0.9935481682433779,102.96450300200179
92.0,91.94130316353221,6.1259357081341586,0.9935581493270813,103.83330212914906
93.0,91.42426180895735,6.6536585544031395,0.993570457818601,104.69023760228988
94.0,90.8673685601287,7.228161019965804,0.9935853297253254,105.53430336526898
95.0,90.26901563811417,7.853179505851658,0.993603009807658,106.3644394619821
96.0,89.62800417607352,8.53260093304283,0.9936237488117164,107.17953600994693
97.0,88.94370372041266,9.270437221323565,0.9936477999643712,107.97843870013611
98.0,88.21624947264847,10.070793098861314,0.9936754146401153,108.75995594525625
99.0,87.44677914740238,10.937826474413153,0.9937068371729608,109.52286794055479
100.0,86.63771353550386,11.87570223188895,0.9937422988843673,110.26593740534464
101.0,85.79309134689804,12.888539654724946,0.9937820113095339,110.98792189576177
102.0,84.9189701551313,13.980353577267735,0.9938261585482681,111.68758770991036
103.0,84.02387602404757,15.15499178485023,0.9938748892599099,112.36372485343301
104.0,83.11935054970321,16.416067448559996,0.9939283077533901,113.01516317864558
105.0,82.2205360412581,17.766893378336466,0.9939864654614897,113.64078825916064
106.0,81.34691190357604,19.21041135459392,0.994049351261053,114.2395583306896
107.0,80.52305629513386,20.749130465245344,0.9941168830762346,114.81051924933743
108.0,79.77946316567197,22.385073577004892,0.9941889002723938,115.35281749819907
109.0,79.15361233537412,24.119719157128763,0.9942651547561394,115.86571392695598
110.0,78.69100923246828,25.953963808989762,0.994345304655525,116.34859287083835
111.0,78.44631146326961,27.888096263743396,0.9944289092149867,116.80096824576229
112.0,78.4846823789796,29.921775708170443,0.9945154234699866,117.22248839033116
113.0,78.88318226867649,32.05402826595357,0.9946041949492279,117.61293659337258
114.0,79.73214846049514,34.283260324637645,0.9946944624369681,117.97222748859687
115.0,81.13688505707331,36.60727395701312,0.9947853540834651,118.30040259989322
116.0,83.21923447842696,39.02330127100862,0.9948758879413064,118.59762156678916
117.0,86.11937758586791,41.52804226299157,0.9949649723328201,118.86415219414695
118.0,89.99751506991497,44.11771393036392,0.9950514076815451,119.10035800028339
119.0,95.03576216512243,46.78809982398969,0.9951338877343712,119.30668544813393
120.0,103.29652825454154,47.557951508477416,0.9955077826405406,64.50916374435253
121.0,113.76030717874343,47.14040548115382,0.9957303274373105,36.13024350219655
122.0,125.1619988520023,46.85509631059109,0.9957462263606592,28.940602240418702
123.0,137.5471640557833,46.78877409754117,0.995695198083053,25.06092828050211
124.0,151.00197125090077,47.031850096695955,0.9956043750238867,22.495774360123757
125.0,165.66060161883945,47.687168967672115,0.9954839638807939,20.62727996388541
126.0,181.72333768836583,48.874055469757536,0.9953387947478192,19.186069483287792
127.0,199.48255925142303,50.73130872679722,0.9951713896927454,18.031255469604996
128.0,219.35716406608194,53.41988850771117,0.9949830928797543,17.080189989839372
129.0,241.93683277331886,57.12542287017322,0.9947745732500686,16.280380189790403
130.0,268.0378202706319,62.060631931394575,0.994546077925937,15.596495370316694
131.0,298.77165130426414,68.46757841435063,0.9942975725859636,15.00367212177259
132.0,335.62924911848353,76.61974680007064,0.994028824366886,14.483797417113374
133.0,380.58133270173556,86.82389823962654,0.993739454279195,14.023302146759875
134.0,436.4775447093802,99.07988766195913,0.9934289714452335,13.61178454237011
135.0,506.9427480312958,112.69384621943674,0.9930967966670456,13.241120740357257
136.0,594.9754861195318,127.78697901433041,0.992742279645626,12.904865305375704
137.0,704.0035390998257,144.6408999054586,0.9923647114288984,12.597835709659632
138.0,838.1073353581912,163.68165565803847,0.9919633342912116,12.315817677778677
139.0,1002.2658601928338,185.5350145384267,0.9915373496934424,12.05535110875931
140.0,1202.7275847656604,211.09902791833227,0.9910859250019134,11.813571460392392
141.0,1447.5611506614002,241.63577031821967,0.9906081993941471,11.588090179555497
142.0,1747.454697623648,278.8844606340718,0.9901032892400969,11.376903096315983
143.0,2116.848389212097,325.1980760707371,0.9895702931857865,11.178319311933016
144.0,2575.502310852512,383.70512712364274,0.9890082970767368,10.990905317802156
145.0,3150.7072559344037,458.37207980110975,0.9884163788261956,10.813440573526906
146.0,3880.1613206771613,553.137466607456,0.9877936133125743,10.644881836455284
147.0,4813.015475473675,672.1784335910032,0.9871390773889133,10.484334265658847
148.0,6011.735819799353,820.5690648173149,0.9864518550063186,10.331027831244535
149.0,7555.319521115513,1004.6951631256914,0.9857310425068123,10.184297917438663
150.0,9543.727290772531,1232.891047367878,0.9849757541046756,10.043569270234162
151.0,12104.237389762133,1516.4011929041872,0.9841851275582577,9.908342631801391
152.0,15400.799825393953,1870.788416455867,0.9833583300412911,9.778183565687657
153.0,19647.946533527855,2317.9337036292063,0.9824945642115104,9.652713069033464
154.0,25131.418313480444,2888.7941651653855,0.9815930744691874,9.531599655594434
155.0,32238.528328110686,3626.7173143638674,0.9806531534000704,9.414552655692887
156.0,41500.4455416179,4589.2937943856905,0.9796741483466658,9.30131651905627
157.0,53642.726698836945,5850.504618827046,0.978655468151517,9.191665980086992
158.0,69646.4436975083,7504.869622360584,0.9775965899805678,9.085401920672702
159.0,90825.71957729613,9673.546068482017,0.9764970662354345,8.982347838632974
160.0,118928.54990215959,12513.553743458056,0.9753565315043318,8.882346821323129
161.0,156272.11669810495,16231.98414747151,0.9741747095034813,8.785258946801669
162.0,205931.01781615627,21107.85987357427,0.9729514199885301,8.690959053024738
163.0,272007.13756084436,27525.24006422103,0.9716865855829725,8.599334818535677
164.0,360023.5914012285,36020.92439341252,0.9703802384532698,8.510285107344288
165.0,477496.1185801704,47343.78574310251,0.969032526809888,8.423718543223602
166.0,634723.5817795009,62524.8894238077,0.9676437211799983,8.339552279711892
167.0,845841.4994160788,82965.78333291206,0.9662142203642685,8.257710936295467
168.0,1130206.4510450498,110554.27562806859,0.9647445570554182,8.178125679578372
169.0,1514213.4417625745,147823.19946957155,0.9632354030688408,8.100733429014372
170.0,2033704.1804671066,198177.77110108212,0.9616875740904033,8.02547616852913
171.0,2737219.4422653536,266232.15974761476,0.9601020339163581,7.952300350643166
172.0,3690506.249049225,358314.1385412652,0.958479898141216,7.8811563804968365
173.0,4982902.254380498,483198.46103025856,0.9568224371982338,7.811998167869577
174.0,6736397.853369543,653111.3166746168,0.955131078761975,7.7447827391234405
175.0,9118317.780701466,885060.0530389489,0.9534074094142972,7.679469900037326
176.0,12358726.452472962,1202578.907520829,0.9516531755609666,7.6160219431509395
177.0,16773963.139887825,1638038.9606788561,0.9498702835564725,7.5544033935270996
178.0,22798205.518489048,2235773.296028283,0.948060799000371,7.494580787716538
179.0,31025850.3049976,3056435.897229018,0.9462269451740789,7.436522481467154
180.0,42268985.6320947,4183253.984391759,0.9443711006048944,7.380198482421043
181.0,57636527.54287017,5731058.064563602,0.9424957957400191,7.325580304438796
182.0,78644423.95524628,7859087.10761687,0.9406037087227692,7.272640840670167
183.0,107369346.694395,10788695.641142104,0.9386976602608089,7.221354252820296
184.0,146661627.67272845,14827376.44900422,0.9367806076016288,7.171695874543206
185.0,200437353.33404362,20401058.897466104,0.9348556376260461,7.12364212707276
186.0,274075483.2662507,28097676.549370665,0.9329259590813116,7.077170445482716
187.0,374955219.3232145,38726761.262321874,0.9309948939735746,7.03225921411771
188.0,513184542.56952107,53402474.048620194,0.9290658681595224,6.988887710030623
189.0,702594602.3625597,73660526.43871737,0.9271424011790753,6.947036053374617
190.0,962107225.184725,101622414.5539368,0.925228095376047,6.906685163838142
191.0,1317622061.8527462,140223549.50495392,0.9233266243572154,6.867816722297857
192.0,1804618693.9966588,193526073.82125026,0.9214417208491014,6.830413137012003
193.0,2471728381.004788,267143979.09557632,0.9195771640196718,6.794457513780734
194.0,3385611392.247868,368819787.3949371,0.9177367663314098,6.759933629549797
195.0,4637591303.864273,509211397.5058436,0.9159243599972645,6.726825908995742
196.0,6352677880.313591,702975369.8281441,0.914143783114151,6.695119403685633
197.0,8701873426.597116,970268134.7762545,0.9123988655536498,6.664799773505866
198.0,11919022414.928822,1338827044.652707,0.9106934146878362,6.635853270057357
199.0,16323937689.265635,1846841763.5446935,0.9090312010291502,6.608266721761972
200.0,22354144212.912624,2546888159.5569677,0.9074159438673833,6.58202752042873
201.0,30608383353.93432,3511289338.5024276,0.9058512969832051,6.5571236091190865
202.0,41906088457.82381,4839411098.643799,0.9043408345165792,6.533543471139331
203.0,57368567014.828026,6667616301.159448,0.9028880370653267,6.51127612001869
204.0,78529767280.00993,9182903281.772379,0.9014962780932125,6.490311090318633
205.0,107487663017.22911,12641646623.703253,0.9001688107205547,6.470638429182783
206.0,147111536160.72202,17395357990.35914,0.8989087549634266,6.452248688537628
207.0,201326256711.79608,23926018219.057755,0.8977190854863848,6.435132917862609
208.0,275502184721.8534,32894383411.72223,0.8966026199321699,6.419282657439488
209.0,376989779453.55676,45205858538.58835,0.8955620078927988,6.404689932019125
210.0,515852074001.8695,62100301069.21605,0.8945997205670972,6.391347244868714
211.0,705868020283.7454,85274605725.32971,0.8937180411548074,6.3792475721491
212.0,965907073705.9192,117050380397.31374,0.8929190560286586,6.368384357575597
213.0,1321814021989.2224,160603533064.9012,0.8922046467366412,6.358751507310455
214.0,1808996672780.5615,220278682663.4908,0.8915764828584039,6.350343385081393
215.0,2475981683980.013,302019330285.7353,0.8910360157462374,6.343154807494412
216.0,3389303201715.089,413955776477.2152,0.8905844731722438,6.337181039520874
217.0,4640222545155.206,567207919249.8389,0.8902228549137411,6.332417790114627
218.0,6353967492937.961,776981510477.0609,0.8899519292881022,6.328861207965627
219.0,8702437534734.428,1064066331574.1741,0.8897722306428921,6.3265078773748655
220.0,11921686084639.22,1456885545510.3057,0.8896840578075897,6.325354814242611
221.0,16335982089239.617,1994300611531.3933,0.889687473514223,6.325399462139808
222.0,22390955881622.848,2729449864684.8555,0.8897823047908695,6.326639688464637
223.0,30699281767274.906,3735000907953.6675,0.8899681443095161,6.329073780687611
224.0,42103670565513.27,5110335069011.013,0.8902443526806754,6.33270044268082
225.0,57763727869617.55,6991374484652.49,0.8906100616788035,6.337518791119264
226.0,79275738825040.94,9564022003224.156,0.8910641783932673,6.343528351945994
227.0,108837903254235.42,13082550258673.035,0.8916053902679161,6.350729056921532
228.0,149478325938407.6,17894770428112.11,0.8922321710051775,6.3591212402559645
229.0,205369663816857.38,24476491422033.457,0.8929427873014634,6.368705635329166
230.0,282263335891516.1,33478688408128.77,0.8937353063915894,6.379483371485572
231.0,388088901685972.94,45792057092671.59,0.8946076043559587,6.391455970935088
232.0,533781354866271.3,62635346597721.805,0.8955573751463493,6.404625345767687
233.0,734422970625046.9,85676216082400.05,0.8965821402849418,6.418993795099555
234.0,1010818365413340.9,117196558816359.38,0.8976792591934217,6.434564002347171
235.0,1391666881005919.0,160318588234200.7,0.8988459401006228,6.451339032662211
236.0,1916557547898993.0,219313996466987.16,0.9000792514662401,6.469322330555166
237.0,2640096812556990.0,300026592338306.9,0.9013761338648566,6.4885177177358795
238.0,3637592782413336.5,410449885606794.1,0.9027334122703079,6.508929391191277
239.0,5012877859798607.0,561515802645351.5,0.9041478086820508,6.530561921533656
240.0,6909065823270260.0,768171188769059.0,0.9056159550205657,6.553420251676446
241.0,9523330831286582.0,1050846080968846.0,0.9071344062270932,6.577509695882259
242.0,1.312718839303353e+16,1437455143766701.5,0.908699653499419,6.602835939237708
243.0,1.8094286928100532e+16,1966123000223019.5,0.9103081375980856,6.629405037601136
244.0,2.4938445074315332e+16,2688892102931385.0,0.9119562621492138,6.657223418115062
245.0,3.4365631181919496e+16,3676762343836063.0,0.913640406875089,6.6862978803616615
246.0,4.734488310622536e+16,5026533559356955.0,0.9153569406847484,6.716635598258391
247.0,6.5204858451040136e+16,6870083034158955.0,0.917102234557522,6.748244122780601
248.0,8.976503560272478e+16,9386925499246668.0,0.9188726741517323,6.781131385643214
249.0,1.235135956379432e+17,1.28211926789802e+16,0.9206646720751442,6.8153057040816565
250.0,1.6984804407310218e+17,1.7504550222009066e+16,0.9224746797571787,6.850775786887721
