Time,J,A,S,tau
0.0,100.0,10.0,0.5480388118100188,70.14376843701949
1.0,99.8604361366107,8.950046293078486,0.5472834679543191,71.14321475247411
2.0,99.72260216811854,8.010537186963571,0.546538597516555,72.14283622164393
3.0,99.58668580181129,7.170058187742155,0.5458036030247699,73.14247947962791
4.0,99.45257537782084,6.418119149747929,0.5450779362960791,74.14214233384048
5.0,99.32016306449098,5.745349649283054,0.5443610636205676,75.14182281145952
6.0,99.18934457277055,5.143376745930759,0.5436524649831058,76.14151913299864
7.0,99.06001888814048,4.604717476011036,0.5429516332883252,77.14122968894861
8.0,98.93208802291035,4.122684364844761,0.5422580736093066,78.14095301933186
9.0,98.80545678480293,3.691300572320912,0.5415713024527827,79.1406877956681
10.0,98.68003256076064,3.3052245169298766,0.5408908470440517,80.14043280505382
11.0,98.55572511081132,2.9596801931015815,0.5402162446162239,81.14018693592519
12.0,98.43244637368822,2.6503975593778897,0.5395470417160197,82.13994916541179
13.0,98.31011028336428,2.3735587237657407,0.5388827935277852,83.13971854807177
14.0,98.188632594908,2.125750295144404,0.5382230632134157,84.13949420579426
15.0,98.0679307178537,1.9039196039331914,0.537567421264082,85.13927531867353
16.0,97.94792355597794,1.705336245590972,0.5369154448620226,86.13906111671022
17.0,97.8285313521402,1.527558129038937,0.5362667172490769,87.13885087220545
18.0,97.70967554278486,1.3684018441901546,0.5356208271259004,88.138643892883
19.0,97.59127861351506,1.225913262513409,0.5349773680453013,89.13843951538823
20.0,97.47326395857424,1.098344102473408,0.5343359378140309,90.13823709920632
21.0,97.35555574757669,0.9841311833640466,0.5336961379213844,91.13803602098245
22.0,97.23807879193343,0.8818751760088795,0.5330575729610437,92.13783566898911
23.0,97.12075841436685,0.7903239778178481,0.532419850063173,93.13763543779167
24.0,97.0035203222443,0.70835785904569,0.531782578343143,94.1374347230087
25.0,96.8862904804967,0.6349742915915162,0.5311453683474192,95.1372329160573
26.0,96.76899498654134,0.5692761422685704,0.5305078315094818,96.13702939888844
27.0,96.65155994588443,0.5104610259353641,0.5298695796129814,97.13682353852835
28.0,96.53391134744386,0.45781047132053954,0.5292302242569279,98.1366146814508
29.0,96.4159749395749,0.41068152862171375,0.5285893763297057,99.13640214771472
30.0,96.29767610373456,0.3684991311896051,0.5279466454818823,100.13618522459356
31.0,96.17893972812139,0.33074835863074276,0.527301639606942,101.13596315986017
32.0,96.05969008035714,0.2969684679894919,0.52665396432888,102.13573515455795
33.0,95.9398506746684,0.2667474111099378,0.5260032224813035,103.13550035487368
34.0,95.81934413928659,0.23971631195882548,0.5253490136014788,104.1352578434367
35.0,95.69809208068568,0.2155452217848529,0.5246909334287676,105.13500662972066
36.0,95.5760149388481,0.1939391848224219,0.5240285733887375,106.13474563901651
37.0,95.45303184281319,0.17463430103532612,0.5233615201005284,107.1344737005059
38.0,95.32906046005326,0.15739471140679762,0.5226893548859716,108.13418953387418
39.0,95.20401683275333,0.14200977978561594,0.5220116532604556,109.13389173373456
40.0,95.07781521402084,0.12829129401337566,0.5213279844568792,110.13357875266304
41.0,94.95036789370863,0.11607133358026903,0.5206379109490703,111.13324888192005
42.0,94.82158500589622,0.10520026103692245,0.5199409879555915,112.13290022885583
43.0,94.69137433516865,0.09554474507531562,0.5192367629883718,113.13253069217303
44.0,94.55964110646852,0.08698626736007561,0.5185247753996304,114.13213793355547
45.0,94.42628774952796,0.07941970796634557,0.5178045559114193,115.13171934427649
46.0,94.29121366015065,0.07275194931188739,0.5170756262058105,116.13127200853843
47.0,94.15431493494799,0.06690091884850015,0.5163374985103963,117.13079266099952
48.0,94.01548406778501,0.0617945442499658,0.5155896751679204,118.13027763626158
49.0,93.87460965650902,0.0573698583001295,0.5148316483285608,119.12972281548419
50.0,93.7315760255852,0.05357236650480908,0.5140628995350125,120.12912355840555
51.0,93.5862628727566,0.0503553349464543,0.5132828994904812,121.128474632992
52.0,93.4385448074455,0.04767935254997115,0.5124911077127589,122.12777012522733
53.0,93.28829091294088,0.04551189582973165,0.5116869723933954,123.12700334546479
54.0,93.13536420261552,0.04382688828492451,0.510869930205167,124.12616671261954
55.0,92.97962101272414,0.04260466878853401,0.5100394061845367,125.12525162056609
56.0,92.8209103684249,0.04183171088033808,0.5091948137726758,126.12424829123252
57.0,92.65907313762423,0.04150074333256266,0.5083355547804451,127.12314558217214
58.0,92.4939413681647,0.04161078541824662,0.5074610197976448,128.12193081645827
59.0,92.32533714153286,0.04216691615974537,0.5065705883173861,129.1205895131492
60.0,92.1530715495249,0.04318107459491749,0.50566362928481,130.1191051273542
61.0,91.97694343459729,0.04467231552204508,0.504739501737774,131.1174587306321
62.0,91.7989903715867,0.04946226880666535,0.5037975557037268,132.11562865226242
63.0,91.61874613992529,0.056719312239111266,0.5028371332447555,133.11359003720014
64.0,91.43476627491154,0.06477865175247158,0.5018575698334702,134.11131434781015
65.0,91.24692412501494,0.07375068861879307,0.5008581960735793,135.10876878858895
66.0,91.0550969930662,0.08376214450897185,0.49983833977534853,136.1059156296146
67.0,90.85916829865509,0.09495860347281168,0.4987973284758152,137.10271142096065
68.0,90.65903032486504,0.10750745945879941,0.497734492469121,138.0991060781344
69.0,90.45458769263863,0.1216013335560292,0.4966491684280122,139.0950418173348
70.0,90.24576174037193,0.13746203490906359,0.49554070370946973,140.0904519159114
71.0,90.0324960284366,0.1553451501002237,0.4944084614508854,141.08525926956608
72.0,89.81476324008416,0.17554535789003806,0.49325182657822364,142.07937471348902
73.0,89.59257381369983,0.19840257956547655,0.4920702128642173,143.07269506973702
74.0,89.3659867191487,0.22430908971226415,0.49086307119280304,144.06510087772688
75.0,89.1351228858091,0.25371772801687603,0.4896298992056571,145.05645375870003
76.0,88.90018190575918,0.28715137072807667,0.48837025252872357,146.04659335807597
77.0,88.66146278137212,0.32521383057751835,0.4870837577930333,147.0353338045486
78.0,88.41938964324632,0.3686023783699937,0.4857701276898422,148.02245961564952
79.0,88.17454358353004,0.41812209040785536,0.4844291783182295,149.00772097331446
80.0,87.92770199071963,0.474702236747178,0.48306084909804575,149.99082828688944
81.0,87.67988706586209,0.5394149321490095,0.48166522553166047,150.97144595556787
82.0,87.43242554879497,0.613496268946358,0.4802425650983013,151.9491852392194
83.0,87.1870220924944,0.6983701361098403,0.4787933265511218,152.92359614686495
84.0,86.94584920017856,0.7956748961597633,0.477318202853336,153.8941582573882
85.0,86.71165718785898,0.9072930346053871,0.47581815792809823,154.8602703996216
86.0,86.48790825578168,1.035383807097138,0.47429446729771785,155.82123914147732
87.0,86.27893944177218,1.1824187776523625,0.47274876253980197,156.7762660736953
88.0,86.09015997615026,1.3512199559154632,0.4711830792777534,157.72443392708692
89.0,85.92828933835249,1.5449999902666314,0.46959990813626046,158.66469163739953
90.0,85.80164308438611,1.7674035525478322,0.46800224772228377,159.59583857159808
91.0,85.72047429056994,2.0225486121979253,0.46639365819152145,160.516508267996
92.0,85.6973788668435,2.3150657916480495,0.4647783133657311,161.42515221102417
93.0,85.74777336030597,2.650133427321965,0.4631610487027825,162.32002435328903
94.0,85.89045372826503,3.0335052486999565,0.46154740158994867,163.19916734391492
95.0,86.14824269347355,3.4715268984313656,0.45994363960564877,164.0604016741439
96.0,86.54873160992292,3.9711368391555815,0.45835677157703514,164.9013192103251
97.0,87.12511991721763,4.539846648796841,0.4567945355809042,165.71928281417667
98.0,87.91715075716697,5.185695401905262,0.4552653576161134,166.51143391688066
99.0,88.97213931772293,5.917173098534878,0.4537782749420328,167.27470987559443
100.0,90.34606460809252,6.743108654101668,0.4523428182850555,168.00587298758316
101.0,92.10472592833526,7.672519817676217,0.450968849923619,168.70155218689175
102.0,94.32491915762057,8.714424003994242,0.4496663554123255,169.35829830337238
103.0,97.09556364172514,9.87761357319425,0.448445192644535,169.97265234369667
104.0,100.51875172767961,11.17040205178411,0.4473148039149464,170.54122495268123
105.0,104.71069531314433,12.60035102177668,0.4462839040996142,171.06078402715326
106.0,109.80237143573578,14.173995714934339,0.44536016059216116,171.52834570240887
107.0,115.94001492842706,15.896580215396767,0.444549882098053,171.94126395572533
108.0,123.28511679033123,17.771832852876887,0.4438577457084794,172.2973103450097
109.0,132.01423066081824,19.801780828992165,0.4432865666755665,172.59474206027497
110.0,142.31816532246094,21.986645300765996,0.4428371533771976,172.8323463142814
111.0,154.40098509184216,24.32479122798699,0.4425082234641784,173.0094669441316
112.0,168.4784142683056,26.812776304350983,0.4422964296096619,173.1259999002417
113.0,184.7760826132281,29.445448067774283,0.44219644010211195,173.18237217595245
114.0,203.52733573661237,32.21612698399471,0.44220111859348915,173.17949242530867
115.0,224.9709320532809,35.11681379570832,0.44230173254188326,173.11869240669256
116.0,249.34854636111928,38.13844573015292,0.44248822268911153,173.00165118989446
117.0,276.90220223607224,41.2711490379732,0.4427494701644605,172.83031939507666
118.0,307.8717436547595,44.50449849964121,0.44307357940848224,172.60683944444537
119.0,342.49225349909,47.827752768804295,0.4434481352902923,172.33347295434248
120.0,380.9916973299731,51.230066909648826,0.44386044318583645,172.0125338503351
121.0,423.5885097981351,54.700671956486055,0.44429773255698546,171.64633188038994
122.0,470.48943098123175,58.22902061893063,0.4447473289335004,171.23712603385647
123.0,521.8874937098093,61.804896966819925,0.445196788528287,170.78708902558284
124.0,577.9600343960055,65.41849864390508,0.4456340031792793,170.29828061363017
125.0,638.866958066371,69.06048743459748,0.44604727413530165,169.77263038454748
126.0,704.7490685445193,72.72201991108729,0.44642536313999576,169.21192732945866
127.0,775.7266250708498,76.3947558136842,0.4467575213600774,168.6178160824258
128.0,851.8979193215488,80.07085512540411,0.4470335056749855,167.99179700968259
129.0,933.3377962849794,83.74296621639192,0.4472435863615949,167.33522919653245
130.0,1020.0969056626094,87.40419078748069,0.4473785312933191,166.64934014118722
131.0,1112.2014132321365,91.04805826316985,0.44742959148354183,165.93523436424667
132.0,1209.650031183418,94.66851610474818,0.4473885200931813,165.19389547737697
133.0,1312.4152696747512,98.25986253174774,0.4472475178999232,164.4262058982382
134.0,1420.4434992763975,101.81673653882437,0.4469992291057365,163.63295256425988
135.0,1533.650791213146,105.3340979698769,0.4466367667576226,162.814831073391
136.0,1651.9284913383317,108.80715269939526,0.44615362014325055,161.97246883850556
137.0,1775.1376816705513,112.23138995906439,0.44554373860042135,161.1064174084267
138.0,1903.112165193716,115.60250361689783,0.44480145916126507,160.2171729431423
139.0,2035.6599968633323,118.91639529623588,0.4439215093032798,159.30517970569124
140.0,2172.55933349418,122.16916536959667,0.4428990565042694,158.37083300821735
141.0,2313.5648866867396,125.35706247045219,0.44172962219410417,157.41449365541823
142.0,2458.4046292548546,128.47651343034045,0.4404091674536879,156.43648518792142
143.0,2606.782317888025,131.5240754185975,0.43893404318897666,155.43710467879205
144.0,2758.3792845711077,134.49644185681365,0.4373010039791854,154.41662521558374
145.0,2912.855018401228,137.3904410620432,0.4355072335376903,153.37529923136253
146.0,3069.84865159907,140.20302258040726,0.4335503417406329,152.3133630493009
147.0,3228.9817068339407,142.93125219956343,0.4314283548825203,151.23104020821057
148.0,3389.8596716546463,145.5723177963259,0.4291397418960395,150.12854359137998
149.0,3552.0733137714356,148.12352823905437,0.4266834344566608,149.0060781266783
150.0,3713.8768981676512,152.2260883770152,0.5137626927093729,50.00526891048496
151.0,3878.8529103746614,161.36829964948288,0.5177782900187923,45.58351778382998
152.0,4055.151258597209,174.1463360379573,0.5170958216635926,43.095328843929444
153.0,4248.734929234019,190.3193428126836,0.5143575600525827,41.37442451222124
154.0,4465.097204896777,209.8206490839685,0.5104651515627903,40.06308294412305
155.0,4709.533050452297,232.6354677698,0.5058465326817199,39.00406210099553
156.0,4987.205227080976,258.7607129434065,0.5007424362968838,38.11451521189467
157.0,5303.1357093533725,288.1874008621765,0.4953035196292776,37.345645100155366
158.0,5662.179248650502,320.8910937839217,0.4896311980399291,36.666474173645916
159.0,6068.963215186699,356.8273532378816,0.4837975471184069,36.056230485978446
160.0,6527.852469986425,395.9283930248181,0.47785585732008756,35.500425573885366
161.0,7042.867009977431,438.1025238749475,0.4718468133008171,34.98863348654447
162.0,7617.637701870063,483.23381399454684,0.4658022983697131,34.51315491704107
163.0,8255.360948183308,531.1826436651934,0.4597478070521864,34.06819161891588
164.0,8958.7330359956,581.7872101808916,0.4537040742289888,33.649304886064
165.0,9729.915826716198,634.8652930781774,0.4476882230140611,33.25304277878315
166.0,10570.5110140477,690.2162445577424,0.44171456254918057,32.876686722030925
167.0,11481.531603377993,747.6234436131444,0.4357951760873094,32.51807071643854
168.0,12463.38717708812,806.8568414117474,0.4299403580712316,32.17545023394524
169.0,13515.878475273335,867.6756125906301,0.42415894499446816,31.84740575186849
170.0,14638.201203298115,929.8308443464215,0.4184585696795242,31.532770781230674
171.0,15828.958747429308,993.0682052855567,0.41284585933319773,31.230577527497193
172.0,17086.183559334615,1057.130547054112,0.40732659195910254,30.94001537312494
173.0,18407.364733427326,1121.7604080562162,0.40190581919846424,30.660399232072937
174.0,19789.485544899107,1186.7023639811757,0.396587969717367,30.39114444355924
175.0,21229.064269574937,1251.705231330685,0.3913769281442734,30.13174766202146
176.0,22722.19894770485,1316.5241230893673,0.3862761018808047,29.881771641548305
177.0,24264.623826797982,1380.922162423686,0.3812884793366416,29.64083318136728
178.0,25851.759924517024,1444.6721804791694,0.37641667342501145,29.408593704112437
179.0,27478.72740903737,1507.5095358498083,0.37166296179856595,29.184751745784272
180.0,29139.418065588532,1572.6476424454684,0.3670293207481863,28.96903614893292
181.0,30835.12901134904,1644.5344772999579,0.3625174531047271,28.761201966516417
182.0,32575.292059711923,1726.4596578143726,0.35812881476850167,28.561026144045798
183.0,34375.06688910597,1821.2668358647468,0.35386463633894866,28.368304314446114
184.0,36254.26075105911,1931.4948830665235,0.34972594261684875,28.18284816301093
185.0,38236.523504880264,2059.4111367224964,0.34571357018982257,28.004483272543386
186.0,40348.623278671104,2207.01352372758,0.34182818379734276,27.833047319950456
187.0,42619.77339826593,2376.0200714279495,0.3380702898999568,27.668388667282432
188.0,45080.94814097021,2567.8605764530494,0.33444025120635545,27.510365064998247
189.0,47764.28649112918,2783.665565951441,0.330938297554165,27.358842707031247
190.0,50702.37746119336,3024.2643271773277,0.32756453834121374,27.213695341015047
191.0,53927.76115999978,3290.1852292976455,0.32431897271082594,27.074803547032232
192.0,57472.32377214282,3581.660669610521,0.3212014991057983,26.94205416624602
193.0,61366.77741584784,3898.639617685552,0.31821192500955026,26.815339756240846
194.0,65640.25122768854,4240.8030724668,0.315349975565769,26.694558145167832
195.0,70319.9501124342,4607.582126549065,0.31261530139827937,26.57961206734147
196.0,75430.72262929799,4998.181299150174,0.3100074865161239,26.47040883302734
197.0,80994.92106590112,5411.602545849548,0.30752605538827976,26.3668600353652
198.0,87032.1525833074,5846.6718675684715,0.30517047976916195,26.268881298742887
199.0,93559.18556825318,6302.066154194919,0.3029401850171568,26.1763920506676
200.0,100589.92067386364,6776.3396130758865,0.30083455589809754,26.089315331675554
201.0,108135.37379569293,7267.950540975368,0.29885294212697205,26.00757761572775
202.0,116203.72876259898,7775.286920943901,0.29699466347100356,25.93110865081309
203.0,124800.43495504468,8296.690680633494,0.2952590144615215,25.85984131496411
204.0,133928.344012913,8830.482388157214,0.2936452687734001,25.793711484174533
205.0,143587.87787857713,9374.931519633288,0.2921526832115854,25.73265791139903
206.0,153776.60228342668,9929.87762262535,0.2907805011919243,25.67662211930795
207.0,164492.79255568684,10498.193616869485,0.2895279564602067,25.625548283303882
208.0,175741.15574337193,11084.903303832443,0.28839427561526043,25.579383151809417
209.0,187536.456937233,11696.571675142904,0.2873786806374955,25.53807594848971
210.0,199906.07699260736,12340.929070335485,0.2864803918115434,25.501578287698162
211.0,212891.55240527604,13026.584860253606,0.28569862901444204,25.46984410094597
212.0,226549.58763397683,13762.764518647713,0.2850326135928227,25.44282955286466
213.0,240952.60084478298,14559.080629200713,0.28448156974784333,25.420492970013285
214.0,256188.95733307494,15425.325983339937,0.2840447257109893,25.40279477818144
215.0,272362.59442007134,16371.28998950713,0.2837213143187982,25.38969743748642
216.0,289592.4529412514,17406.59612046247,0.283510573576078,25.38116537383513
217.0,308011.7165292601,18540.562910229106,0.2834117469404215,25.377164919053183
218.0,327766.9841626283,19782.084978204533,0.2834240834438751,25.377664257833143
219.0,349016.9411547586,21139.538582783876,0.2835468372376318,25.38263337359966
220.0,371931.1200807766,22620.709009188828,0.2837792671459801,25.39204398943657
221.0,396688.6557636985,24232.73639645098,0.28412063601701437,25.4058695165177
222.0,423477.20687763405,25982.076921466596,0.2845702100013089,25.424085008627163
223.0,452491.13804008847,27874.48662059778,0.28512725704998737,25.44666711419984
224.0,483930.51516461547,29915.015742725074,0.2857910458718357,25.473594027907662
225.0,517999.77772438905,32108.017374661686,0.2865608444183706,25.504845446296617
226.0,554906.5277098668,34457.16585688952,0.28743591825272813,25.540402525148902
227.0,594860.5349344206,36965.4829602661,0.28841552887051064,25.58024783891316
228.0,638072.2462552513,39635.374735337165,0.28949893148822986,25.624365342185577
229.0,684752.1763487937,42468.66851415254,0.29068537325553795,25.67274033153104
230.0,735109.980206352,45466.655648393964,0.2919740910723417,25.72535941157242
231.0,789353.083314595,48630.11917117044,0.2933643090033817,25.782210458021456
232.0,847686.2143551798,51959.82754214434,0.2948552362308266,25.843282589282573
233.0,910311.4896340312,55457.730991156546,0.29644606461669554,25.90856613800324
234.0,977429.9045867684,59127.89852509014,0.2981359657374674,25.978052619959545
235.0,1049245.9705401894,62977.07728735925,0.299924088700017,26.051734715815524
236.0,1125972.1611311412,67015.06771441519,0.3018095573695372,26.129606248479895
237.0,1207833.9834920582,71254.96309079682,0.30379146764916143,26.211662165667406
238.0,1295075.2416840298,75713.28109862738,0.30586888473905205,26.297898526469737
239.0,1387963.2460922475,80410.00794218536,0.3080408403642412,26.388312492175697
240.0,1486793.7976670587,85368.5710761657,0.3103063299770162,26.482902321872796
241.0,1591895.8105695632,90615.75308020631,0.3126643099382896,26.581667373446624
242.0,1703635.4624400132,96181.55747889343,0.3151136946808252,26.684608110690345
243.0,1822419.783776421,102099.035730623,0.3176533538553733,26.79172611734679
244.0,1948699.6161579508,108404.08376719184,0.3202821094586792,26.903024119031553
245.0,2082971.885787225,115135.21515109098,0.32299873293992926,27.018506014129965
246.0,2225781.1518647866,122333.31719426681,0.3258019422794472,27.138176914926444
247.0,2377720.268617887,130041.39722286549,0.3286903990180774,27.262043200643244
248.0,2539430.5422056615,138304.31739059422,0.3316627052376505,27.390112584189993
