Time,J,A,S,tau
0.0,100.0,10.0,0.7108369379683082,12.96858209386321
1.0,99.305512586287,9.043090391678774,0.707072110145605,13.94537002932716
2.0,98.62596354546095,8.183027875028488,0.7033503072131455,14.923261418370291
3.0,97.96038033418083,7.410101859515325,0.6996707751264075,15.902045955172412
4.0,97.30791306987427,6.715324660365683,0.6960322071941423,16.88164821780353
5.0,96.66776123325093,6.090656847610808,0.6924332608619933,17.861998279786782
6.0,96.03916935473468,5.52890079151965,0.6888725658244006,18.843031168394315
7.0,95.42142349514347,5.0236211512826285,0.6853487308984192,19.824686414503525
8.0,94.81384770702353,4.569051120872727,0.6818603502427406,20.80690760384143
9.0,94.21580089185221,4.160030885937417,0.6784060087287141,21.78964197587385
10.0,93.62667400578006,3.791938314602273,0.6749842866508567,22.772840062657004
11.0,93.0458872502741,3.4606313994861506,0.6715937638479486,23.756455331110903
12.0,92.47288776448464,3.162402458634326,0.6682330232935747,24.74044387984818
13.0,91.90714725970342,2.8939254943519392,0.6649006542099968,25.72476413396512
14.0,91.34815994879203,2.652221706421199,0.6615952547737254,26.709376572654516
15.0,90.79544065340475,2.434620473613094,0.6583154345164989,27.69424347563038
16.0,90.2485229076881,2.238728729297568,0.6550598163173891,28.67932867353142
17.0,89.70695736388505,2.062399220752508,0.6518270382717873,29.664597326084497
18.0,89.17031014915202,1.9037086530658698,0.6486157551983017,30.65001569959204
19.0,88.63816144685717,1.7609308390616552,0.6454246401025914,31.63555096271168
20.0,88.1101040680096,1.6325200199113534,0.642252385366657,32.62117098403587
21.0,87.58574216843762,1.5170884838778875,0.639097703928708,33.60684413933819
22.0,87.06468999960475,1.413394749567773,0.6359593303265022,34.592539121477074
23.0,86.54657070634892,1.3203244281830586,0.6328360216367501,35.578224753415334
24.0,86.03101523504138,1.236880841255322,0.6297265585704411,36.563869801919175
25.0,85.51766118677848,1.1621710115753598,0.626629746237808,37.5494427927559
26.0,85.00615180735805,1.0953953052497314,0.6235444152964293,38.53491182053933
27.0,84.4961349393407,1.0358401648123128,0.6204694229268422,39.52024435613431
28.0,83.98726200399052,0.9828677797291243,0.6174036537982782,40.505407053373496
29.0,83.4791870272754,0.9359088616316301,0.6143460213999103,41.49036553958396
30.0,82.97156564121055,0.8944570279339007,0.6112954692632114,42.4750842033173
31.0,82.4640540977139,0.8580625758819563,0.6082509723447597,43.45952597160805
32.0,81.95630828406944,0.8263267918674723,0.6052115385556811,44.44365207603787
33.0,81.44798272227767,0.7988969939637933,0.6021762105799312,45.42742179783485
34.0,80.93872953830349,0.7754640277099499,0.5991440678402999,46.41079219739684
35.0,80.42819743253915,0.7557570274081267,0.5961142285600373,47.3937178345404
36.0,79.91603058907589,0.7395408436447873,0.5930858523153687,48.37615045075382
37.0,79.40186759042291,0.7266133713323053,0.5900581425316901,49.35803865116031
38.0,78.88534022757874,0.7168025977613639,0.587030349746962,50.33932752564916
39.0,78.36607231723566,0.7099649022791024,0.5840017747584827,51.31995827298756
40.0,77.84367851296344,0.7059824562571534,0.5809717719845721,52.2998678077384
41.0,77.31776291115143,0.704763885839327,0.5779397538380776,53.27898827873277
42.0,76.7879173653056,0.7062414045376527,0.5749051966851136,54.25724644436179
43.0,76.25372075619443,0.7103623118080246,0.5718676424579344,55.234563419027985
44.0,75.7147362929834,0.7171159822967691,0.5688267080686294,56.210853731137654
45.0,75.17051081686647,0.7264920169901309,0.565782089049942,57.18602489367183
46.0,74.62057365185122,0.7385062580360156,0.5627335619508537,58.15997708405364
47.0,74.0644324698762,0.7532003641969456,0.5596810016790441,59.132601443308275
48.0,73.50157316865499,0.7706290397102952,0.5566243815659431,60.10377994906753
49.0,72.93145816361924,0.7908719608315948,0.5535637791948786,61.07338477111655
50.0,72.35352264337207,0.8140269620197752,0.550499392748674,62.041276607836224
51.0,71.76717304536041,0.8402128479150891,0.5474315468030523,63.00730400119206
52.0,71.1717848384623,0.869569026065298,0.5443607016337979,63.971302309430726
53.0,70.56670011361861,0.9022560814789569,0.541287463446909,64.93309257508808
54.0,69.95122435150036,0.9384604009586529,0.5382125979972898,65.89248003439211
55.0,69.32462431503865,0.9783863485743798,0.5351370405728991,66.84925294867095
56.0,68.68612509215541,1.022263465263195,0.5320619085298208,67.80318116362241
57.0,68.03490741332975,1.0703452692995812,0.5289885135547989,68.75401465408372
58.0,67.3701049188309,1.1229098883832105,0.5259183741947966,69.70148200190565
59.0,66.6908014826242,1.180260631670056,0.5228532283635718,70.64528882903971
60.0,65.99602864862173,1.2427264574015902,0.5197950456041747,71.58511620209579
61.0,65.28476324681205,1.3106622870073559,0.5167460388373599,72.52061902952394
62.0,64.55592526941723,1.384449109877738,0.5137086752740603,73.45142447795993
63.0,63.8083761006258,1.4644938167975101,0.510685686114914,74.37713044023502
64.0,63.04091716188276,1.5512291051453875,0.5076800747786175,75.29730407382922
65.0,62.252289181520155,1.6451122133699778,0.504695122879782,76.21148048434756
66.0,61.44117226830709,1.7466231254078637,0.501734393121128,77.11916164450959
67.0,60.606186778875035,1.856262846655087,0.49880172916872834,78.01981553332801
68.0,59.74589522431291,1.9745507171429761,0.4959012515519498,78.91287559630484
69.0,58.85880536534797,2.1020209777776744,0.49303734895866264,79.79774059518147
70.0,57.94337465722803,2.239218518427059,0.4902146642685993,80.67377492172979
71.0,56.998016198307916,2.3866937504064296,0.4874380746963326,81.54030945077008
72.0,56.02110632097047,2.5449965659550964,0.484712665477811,82.39664300507751
73.0,55.010993938549504,2.714669374193859,0.4820436966361969,83.24204449835977
74.0,53.96601172682333,2.8962396710305316,0.4794365625012108,84.07575580669727
75.0,52.89936614638858,3.134350115901369,0.4768967437838645,84.89699532228555
76.0,51.898223729703254,3.6568164678567414,0.4744297516120499,85.70496278806733
77.0,50.88695808862847,4.20790264119166,0.4720410666505842,86.49884407427653
78.0,49.869410329219676,4.788812267495867,0.46973607029463416,87.27781733496694
79.0,48.85035314376556,5.400676638922325,0.46751997159928566,88.04105961557839
80.0,47.83562923870572,6.044535337475979,0.4653977299621302,88.78775401620577
81.0,46.832301633305306,6.721316483288866,0.46337397550575404,89.51709729197579
82.0,45.848801182084486,7.43181862253398,0.46145293390176967,90.22830735066715
83.0,44.895104770354855,8.176691273445222,0.4596383469416773,90.92063109349583
84.0,43.98293072716539,8.956416094222398,0.4579333936015762,91.59335236977633
85.0,43.12589344952075,9.771294465060315,0.45634063828955396,92.24579800905049
86.0,42.33972001001,10.621432362187422,0.45486196298457227,92.87734477899798
87.0,41.64244674075324,11.506730261220422,0.45349852165549426,93.48742465684816
88.0,41.05460325394404,12.426877270727358,0.4522507118466387,94.07552855169804
89.0,40.59943037632547,13.381345815412,0.45111814619450924,94.64120976007443
90.0,40.303073738279515,14.36939161950122,0.45009964541791836,95.18408547861738
91.0,40.1947732249308,15.39005687468582,0.4491932434500158,95.70383703267395
92.0,40.30704401987093,16.4421764549083,0.44839620571521976,96.20020875309982
93.0,40.675835553479324,17.524387553399503,0.44770505934083576,96.67300556394153
94.0,41.34069927830905,18.635140410629443,0.44711562918771064,97.12208983330196
95.0,42.34491201665307,19.77271264458608,0.44662308688663066,97.54737688750336
96.0,43.73556255216766,20.935225225357065,0.4462220075951982,97.94882970243032
97.0,45.563637677529094,22.12065834537838,0.44590642630092747,98.32645344559644
98.0,47.88404989885792,23.32686892818305,0.44566990035048765,98.68028938658284
99.0,50.75562095847135,24.551608185879147,0.4455055726023585,99.01040869504287
100.0,55.9260764970201,23.87495390142492,0.5469611819582677,59.30180213197862
101.0,61.28877263872785,23.174557239076996,0.6100058350059266,40.73326501531025
102.0,66.80746159895435,22.48037080455093,0.6411695049793249,33.2552799699804
103.0,72.47400172423218,21.792757057449247,0.6606399654894627,28.933655920659874
104.0,78.00402094069595,21.426237780530435,0.6741733443727335,25.998705295389573
105.0,83.5377750933542,21.361852919483013,0.6841014923224441,23.824566914327058
106.0,89.19709224713318,21.588458254981937,0.6915995793865057,22.124404223952304
107.0,95.08583626050729,22.146334949803414,0.6973456037917487,20.74457782582665
108.0,101.34545603821957,23.080313354907513,0.7017681364413367,19.593812754545315
109.0,108.16358193062996,24.439605264857708,0.7051565375326058,18.61373098451785
110.0,115.78358255701728,26.27762349114169,0.7077161080318298,17.7648880169503
111.0,124.51511967057456,28.651737152155782,0.7095982791586389,17.01947266489736
112.0,134.7454175374559,31.62298187114586,0.7109182478969859,16.35720828778662
113.0,146.9512784972313,35.25566962170648,0.7117658845259153,15.762904934579563
114.0,161.71159719343783,39.616896791336934,0.7122127760195919,15.224927295447385
115.0,179.94650331340497,44.495018723592985,0.7123169483685097,14.73419635727912
116.0,202.58450228126335,49.40884069169217,0.7121261307001653,14.283516300094274
117.0,229.9653444381299,54.333956518139146,0.7116800715851798,13.867109711081843
118.0,262.33961991907273,59.34248106642065,0.7110122346958513,13.48028375473605
119.0,299.9541229107276,64.64178797418678,0.7101510490798046,13.119189422981485
120.0,343.24037799432887,70.45178188615321,0.7091208585595572,12.780643378324303
121.0,392.83057471565746,77.061024769471,0.7079426559442367,12.461992396918614
122.0,449.6550335913854,84.84037814859256,0.7066346543649075,12.161010278385042
123.0,515.0687565087948,94.25695207423205,0.7052127395888041,11.875817929362453
124.0,591.0095926652654,105.8879835132496,0.7036908351737079,11.604820288826376
125.0,680.1919106387211,120.4342981202286,0.7020811972640065,11.3466564798346
126.0,786.3562266254837,138.70646698132902,0.7003946571685017,11.100159823144889
127.0,914.7006844518368,161.22994835813978,0.698640821306253,10.864325581265254
128.0,1071.4930686491798,188.2274374101432,0.6968282391827118,10.638284578205367
129.0,1263.5981590071387,219.9478884273668,0.6949645437791264,10.421281712469359
130.0,1498.4468454270739,256.86384374453525,0.6930565705685408,10.2126581938974
131.0,1784.3264270925758,299.76649492464986,0.6911104592799082,10.011836800912816
132.0,2130.8307991405477,349.9087631809798,0.6891317403871527,9.818309681871199
133.0,2549.5813613019513,409.19363812634305,0.6871254098757554,9.631628099895119
134.0,3055.310085079458,480.40229567195195,0.6850959938059769,9.451393853584753
135.0,3667.406869405995,567.461426516345,0.6830476039210015,9.27725208710816
136.0,4412.103885053781,675.6084652407768,0.6809839863666708,9.108885169706964
137.0,5325.160549496731,810.9178412221688,0.6789085638697819,8.946007572207748
138.0,6453.565278236816,979.9282408700066,0.6768244726933045,8.788361497262548
139.0,7856.466345605551,1189.8231926352607,0.674734594936324,8.63571317451004
140.0,9606.333640062152,1448.9485745028055,0.6726415868472259,8.487849708024504
141.0,11790.981009370276,1767.6431585761716,0.6705479036725113,8.344576389319085
142.0,14517.119318443336,2159.5138792568496,0.6684558214908122,8.20571440348468
143.0,17916.403648074633,2643.260929643422,0.6663674564167502,8.07109886796992
144.0,22155.200375360364,3245.089158216162,0.6642847815052197,7.940577153311268
145.0,27449.52799945204,4000.961709142959,0.662209641641349,7.814007443220773
146.0,34084.48547370631,4957.638839899989,0.6601437666631622,7.691257498157147
147.0,42435.14471055013,6173.400651456434,0.6580887829314992,7.572203592098199
148.0,52988.04026782658,7719.585490252636,0.6560462235341643,7.456729596914687
149.0,66364.72816455447,9683.791044603528,0.6540175372875956,7.3447261926551155
150.0,83350.78199033815,12175.821932927742,0.6520040966786438,7.236090185331907
151.0,104936.0615734426,15337.69448782021,0.6500072048718277,7.130723916598114
152.0,132375.10233741172,19358.648829928887,0.6480281018919143,7.028534752043808
153.0,167278.10286014446,24493.49083981391,0.6460679700842128,6.929434637015979
154.0,211738.16689471362,31081.25160828309,0.644127938909569,6.833339709043481
155.0,268490.77730251715,39564.214179773866,0.6422090892038268,6.740169961003144
156.0,341103.6034453735,50510.14661432948,0.6403124569160046,6.6498489467428055
157.0,434200.76773054677,64643.009691704036,0.63843903640542,6.562303521638687
158.0,553735.7896544258,82890.55706785402,0.6365897833477417,6.4774636164663715
159.0,707349.4305999867,106458.36616055679,0.6347656172967042,6.395262036325728
160.0,904864.9785642737,136935.60037346263,0.6329674239348309,6.3156342846500815
161.0,1158981.284755255,176428.60409822778,0.6311960570609364,6.238518405504664
162.0,1486203.2853950849,227719.15481528136,0.6294523403290349,6.163854844837541
163.0,1908036.1108982982,294450.4289996156,0.6277370687876572,6.091586325171366
164.0,2452473.517068738,381359.7305995926,0.6260510102194866,6.0216577346452125
165.0,3155843.2079638457,494593.6647695119,0.6243949063310168,5.954016026042771
166.0,4065164.762721185,642158.3062383509,0.6227694737814281,5.88861012669291
167.0,5241249.954681073,834546.9826936366,0.6211754050994936,5.825390855903352
168.0,6762883.644034562,1085571.3741065024,0.6196133694714494,5.764310850636662
169.0,8732356.684706802,1413409.5158345306,0.6180840134452293,5.705324496970258
170.0,11282710.32081684,1841909.0903547606,0.61658796153213,5.648387867811611
171.0,14586929.313912768,2402239.8341814307,0.6151258167455017,5.593458665150546
172.0,18869711.147531215,3135075.3632135037,0.613698161059128,5.540496167059113
173.0,24422468.589782745,4093546.2847295366,0.612305555817365,5.489461178343213
174.0,31623066.09677655,5347206.794008208,0.6109485420837862,5.440315984792007
175.0,40961563.25567295,6987241.498395383,0.6096276409518078,5.393024310453287
176.0,53074229.97958457,9133137.813181605,0.6083433538097527,5.347551277625333
177.0,68787312.46350254,11941214.334090592,0.607096162574755,5.303863369433666
178.0,89173842.95783755,15615614.604674572,0.6058865298945453,5.261928394446249
179.0,115626134.51918939,20422773.708935052,0.604714899322525,5.221715453562197
180.0,149950329.8832174,26710488.295707457,0.603581695471946,5.183194908416457
181.0,194488524.02982005,34933023.200937465,0.6024873241462049,5.146338351835562
182.0,252279106.51710746,45683616.38838138,0.6014321724574188,5.11111857940793
183.0,327263870.3191797,59736515.092643715,0.6004166089229835,5.077509562941227
184.0,424557757.7181909,78101089.54769062,0.5994409835576463,5.045486424729089
185.0,550795864.4598483,102092385.3154016,0.5985056279450266,5.0150254135763745
186.0,714584470.8290027,133422945.51475056,0.5976108553099899,4.986103881407042
187.0,927084738.624571,174322965.93411213,0.5967569605720068,4.9587002615201285
188.0,1202772884.30878,227695913.0393621,0.5959442204028302,4.932794047267522
189.0,1560427553.0141106,297320480.86589426,0.5951728932671547,4.9083657722740694
190.0,2024410347.1833217,388111195.03746897,0.5944432194691979,4.885396990975888
191.0,2626330359.9366746,506456986.5114023,0.593755421184997,4.8638702605898105
192.0,3407196527.1320186,660660126.8374317,0.5931097025005223,4.843769123347352
193.0,4420227106.572489,861507232.4082525,0.5925062494389064,4.825078090038464
194.0,5734481516.067039,1123009104.9941936,0.5919452299921425,4.807782623806549
195.0,7439616473.273456,1463359667.7337503,0.5914267941456782,4.791869125122187
196.0,9652024366.66335,1906177265.088297,0.5909510739053356,4.777324917025516
197.0,12522883038.412346,2482112845.147717,0.5905181833210593,4.764138231408508
198.0,16248536488.090584,3230936138.616906,0.5901282185103978,4.752298195605616
199.0,21084134904.682552,4204238661.9646277,0.5897812576827172,4.741794819880157
200.0,27361234578.778866,5468941738.662184,0.5894773611603956,4.73261898527401
201.0,35510955793.235725,7111834782.137174,0.5892165714044578,4.724762432206278
202.0,46093879694.76796,9245466294.49096,0.5889989130345277,4.718217749499219
203.0,59839402269.71033,12015761523.39433,0.5888243928565828,4.712978364006668
204.0,77696593510.2919,15611921644.569603,0.5886929998826699,4.70903853073729
205.0,100901158007.82825,20279222424.734886,0.5886047053612948,4.7063933234371556
206.0,131062120867.91167,26335654159.204838,0.5885594627979046,4.705038625733367
207.0,170275920696.59924,34193423713.70594,0.5885572079883113,4.704971122600395
208.0,221274395168.41373,44386916252.044014,0.58859785904097,4.706188292447721
209.0,287619368818.9946,57608822445.697174,0.5886813164137533,4.708688399403534
210.0,373955599567.2289,74757132420.62138,0.5888074629390977,4.71247048626963
211.0,486342931743.9363,96995856434.37328,0.5889761638643936,4.717534367559314
212.0,632689128120.944,125833998938.37737,0.5891872668811104,4.723880623241731
213.0,823317204314.9597,163227604157.0508,0.5894406021690322,4.731510592473635
214.0,1071706597461.0657,211712411773.10132,0.5897359824304966,4.740426368053897
215.0,1395462418453.6736,274575305037.50363,0.5900732029386728,4.750630790791623
216.0,1817584869743.2578,356077010545.61395,0.59045204157803,4.762127444590007
217.0,2368125060978.128,461740008233.1578,0.5908722588969028,4.774920651396287
218.0,3086358215557.2896,598722073687.683,0.5913335981550745,4.789015466833212
219.0,4023611395009.3325,776299286099.2559,0.5918357853810531,4.804417675678604
220.0,5246979758079.234,1006491799265.5299,0.5923785294273521,4.821133787964825
221.0,6844151285532.655,1304872998224.058,0.5929615220329518,4.8391710349362675
222.0,8929750448355.955,1691616080585.0146,0.59358443788663,4.858537365542251
223.0,11653557266394.035,2192847008722.4548,0.5942469346949819,4.879241442821766
224.0,15211309458233.01,2842391092799.1724,0.5949486532539046,4.901292640722111
225.0,19858671028611.004,3684029550381.893,0.5956892175223609,4.9247010408630985
226.0,25929567240812.26,4774406295963.379,0.5964682347018082,4.9494774296228226
227.0,33859848828804.555,6186779752596.691,0.5972852953156108,4.975633295238869
228.0,44218286019481.45,8015844147568.582,0.5981399732958075,5.003180825114707
229.0,57746492312992.03,10383943457184.703,0.5990318260676835,5.032132903224089
230.0,75411055457866.5,13449035241410.826,0.5999603946427824,5.062503107607568
231.0,98470545485994.53,17414935351565.936,0.6009252037076268,5.094305708059248
232.0,128562668822626.83,22544407885867.793,0.6019257617212762,5.127555663804054
233.0,167816030309161.84,29175963679888.746,0.6029615610065163,5.162268621464489
234.0,218994798297004.44,37745252107314.875,0.6040320778495241,5.198460912936994
235.0,285683723473293.06,48812430674183.02,0.6051367725910085,5.236149553662012
236.0,372526255228366.06,63096891545013.51,0.6062750897246478,5.275352240753825
237.0,485528161819950.44,81521526978055.16,0.6074464579846304,5.316087351631937
238.0,632445671239629.8,105268671726790.08,0.6086502904384459,5.358373942505431
239.0,823278682813059.1,135851097407826.88,0.6098859845660215,5.402231747469897
240.0,1070896435740092.1,175201349850224.7,0.6111529223411486,5.447681177507311
241.0,1391829413725945.2,225784535153445.06,0.6124504702959007,5.494743320213577
242.0,1807265226088107.8,290739585963394.2,0.6137779795834213,5.543439939550937
243.0,2344303199973139.5,374056535506745.7,0.6151347860195168,5.593793476451961
244.0,3037517232629298.5,480797425257064.1,0.6165202101176638,5.645827049655163
245.0,3930913242999841.0,617371660779133.8,0.6179335570975761,5.699564457538967
246.0,5080343168781918.0,791877210604936.8,0.6193741168810417,5.755030180487348
247.0,6556506976200131.0,1014522726112058.4,0.6208411640548173,5.812249384444639
248.0,8448615424729209.0,1298147305000827.2,0.6223339578132382,5.871247925406184
249.0,1.08689062068268e+16,1658858237781780.0,0.623851741859946,5.932052355357293
250.0,1.3958091150112956e+16,2116810786794897.8,0.6253937442800603,5.994689929671379
251.0,1.789200520131945e+16,2697156455747282.5,0.6269591773619264,6.059188616312228
