Time,J,A,S,tau
0.0,100.0,10.0,0.9326508384949833,17.02886353159511
1.0,99.8301441701639,9.137282953956294,0.9325528609740624,17.99258470365865
2.0,99.6649688157421,8.357029711297388,0.9324561837728725,18.957457448014722
3.0,99.50413093858892,7.65147342380692,0.9323607568301816,19.923271978931606
4.0,99.34734834034495,7.0133271844132485,0.9322665238434659,20.88996642175643
5.0,99.19435302874041,6.436024542128464,0.9321734284632837,21.857482044821207
6.0,99.04489030011786,5.913655533811378,0.9320814143814087,22.825763055325055
7.0,98.89871765308108,5.440896768445921,0.9319904254037932,23.79475635786382
8.0,98.75560396128199,5.01295260985449,0.9319004055121118,24.764411370239053
9.0,98.61532853103051,4.625505052273087,0.9318112989108788,25.734679813882487
10.0,98.47768034037566,4.274660946568156,0.9317230500664647,26.70551554433211
11.0,98.34245722459575,3.9569157382584472,0.9316356037337793,27.676874369979235
12.0,98.20946516819713,3.6691068611246678,0.9315489049762019,28.648713894274902
13.0,98.07851761191655,3.408390009775018,0.9314628991769656,29.620993361349715
14.0,97.94943476122553,3.172196973875179,0.9313775320417554,30.593673501945386
15.0,97.8220430089563,2.958214466291387,0.9312927495991654,31.56671640450376
16.0,97.69617429273713,2.7643582485105287,0.9312084981907376,32.54008537197117
17.0,97.57166553520037,2.588746645671939,0.9311247244589952,33.51374479677412
18.0,97.44835810892421,2.429685337610271,0.9310413753315242,34.48766004122621
19.0,97.32609728283842,2.2856473319626716,0.9309583979987018,35.46179731390988
20.0,97.20473172061111,2.1552543210690374,0.9308757398903413,36.436123557391646
21.0,97.08411299325196,2.0372651390409127,0.9307933486496199,37.41060633898318
22.0,96.96409508292935,1.9305612384845647,0.9307111721030163,38.38521373961856
23.0,96.84453391401811,1.8341334584099853,0.9306291582295141,39.35991424859591
24.0,96.72528689853154,1.7470731788474771,0.9305472551288118,40.334676661281804
25.0,96.60621247600083,1.6685621385033682,0.9304654109874689,41.3094699755611
26.0,96.48716966206683,1.5978635366090823,0.9303835740446325,42.28426329007818
27.0,96.36801760284574,1.5343136913640851,0.9303016925576708,43.259025703590794
28.0,96.24861512769291,1.4773163796524413,0.9302197147676975,44.2337262136507
29.0,96.12882030259422,1.4263353941838832,0.9301375888656033,45.20833361538303
30.0,96.00848998026031,1.3808885498576993,0.9300552629588839,46.18281639920275
31.0,95.88747933944323,1.3405444540450573,0.9299726850392335,47.15714264582012
32.0,95.76564142598691,1.3049161141644992,0.9298898029523379,48.131279921500095
33.0,95.64282668188342,1.2736568070888614,0.9298065643694311,49.105195170260195
34.0,95.51888245321642,1.2464584672176713,0.9297229167606095,50.07885460093324
35.0,95.39365250811802,1.2230455940152205,0.9296388073725067,51.05222357634127
36.0,95.26697649467371,1.2031750277828923,0.9295541832066083,52.02526648818687
37.0,95.13868944719185,1.1866306542076703,0.9294689910053199,52.99794664301197
38.0,95.00862116665155,1.1732231970188713,0.9293831772369185,53.97022611844016
39.0,94.87659573831691,1.162786615622954,0.9292966880935222,54.942065651249195
40.0,94.74243093363305,1.1551755595835358,0.9292094694891195,55.91342449796875
41.0,94.60593750989926,1.1502687119001265,0.9291214670610835,56.88426027148312
42.0,94.46691830900518,1.147961824938289,0.9290326261780216,57.854528729743095
43.0,94.32516832203905,1.1481636167525142,0.9289428919812422,58.824183790441644
44.0,94.18047323816646,1.1508092708918416,0.9288522093876225,59.79317719119221
45.0,94.03260833880186,1.1558373537192748,0.9287605231419557,60.76145822734508
46.0,93.88134039080673,1.16320996744514,0.9286677778623781,61.72897419724301
47.0,93.72642154417376,1.172885342600025,0.928573918116091,62.695668963617585
48.0,93.5675909460132,1.184888063430098,0.9284788884858721,63.661483337116074
49.0,93.40457999241171,1.1992024693315115,0.9283826336130196,64.62635630003697
50.0,93.23709930380367,1.2158404000053928,0.9282850984186416,65.590221943015
51.0,93.06484877532195,1.2348169869204453,0.928186228057776,66.5530118260218
52.0,92.8875072954637,1.256179180806493,0.9280859682739444,67.51465255197157
53.0,92.70474005362293,1.279963623469023,0.9279842652998057,68.47506748205728
54.0,92.51618879003958,1.3062436700916702,0.927881066354364,69.43417443063679
55.0,92.32147813305501,1.33508244501768,0.9277763195246567,70.39188715143533
56.0,92.1202091648462,1.366567401136954,0.9276699742110887,71.34811381163097
57.0,91.91195826748623,1.400792925793748,0.9275619814253484,72.30275670336736
58.0,91.69627884808561,1.437864434000752,0.9274522938158,73.25571264758594
59.0,91.47269482783311,1.4779093243806405,0.9273408663516522,74.20687143407694
60.0,91.24070169079052,1.5210569775640597,0.9272276564854688,75.15611605357466
61.0,90.99976565330398,1.5674565575368158,0.9271126243837007,76.1033224940431
62.0,90.74931618108305,1.6172745625153842,0.9269957339359831,77.04835793021532
63.0,90.48875028047117,1.6706841924944054,0.926876952557286,77.99108173513348
64.0,90.21742648316673,1.727877117718571,0.9267562520740076,78.931344022077
65.0,89.93466177097926,1.7890642428141565,0.9266336093972306,79.86898488250766
66.0,89.63973023992301,1.854469576405359,0.9265090069936703,80.80383403941934
67.0,89.33186085418886,1.9243341232819249,0.9263824334598947,81.73571028346086
68.0,89.01023320042908,1.9989224479846288,0.9262538844149595,82.66442042092962
69.0,88.67397337122063,2.078517174086109,0.9261233634541136,83.5897582405344
70.0,88.32215257649729,2.1634185523725216,0.9259908827011479,84.51150414282438
71.0,87.95378388176994,2.2539488331228537,0.9258564636322663,85.42942431417207
72.0,87.56781601597629,2.3504599353002753,0.9257201384472042,86.34326917542683
73.0,87.16313015472618,2.4533226963186827,0.9255819510002171,87.25277254217796
74.0,86.73853769638593,2.5629311334438953,0.9254419575315269,88.157651033638
75.0,86.29277553164927,2.679709194382848,0.9253002278374682,89.05760286168464
76.0,85.82449829275676,2.804114421358438,0.9251568470671085,89.9523058540254
77.0,85.33227644079365,2.93662638172952,0.9250119164375431,90.84141690610561
78.0,84.81459275849105,3.077753987568604,0.9248655541942442,91.72457104598726
79.0,84.26983447366257,3.228052475943289,0.9247178974264411,92.60137940108342
80.0,83.69628885081309,3.3880974582345424,0.9245691032181248,93.47142798642093
81.0,83.09213821061023,3.5585045750278246,0.9244193498402363,94.33427636647538
82.0,82.45545454324551,3.739926479692335,0.9242688379841535,95.18945618554078
83.0,81.78419400675439,3.9330542407720666,0.9241177919486454,96.03646965382939
84.0,81.07619136301376,4.13861878039902,0.9239664607522939,96.8747879978302
85.0,80.32915383918252,4.357395436185064,0.9238151192454985,97.70384974152167
86.0,79.57393128935686,4.758777004685808,0.9236640692739801,98.52305868356574
87.0,78.84876093491565,5.474467132810426,0.9235136393126567,99.33178363436346
88.0,78.10735453193928,6.227465102065174,0.9233641859484545,100.12935541109526
89.0,77.35368412097095,7.020039104765467,0.9232160935625782,100.91506581093772
90.0,76.592923482595,7.854576350546573,0.923069774140527,101.68816597184025
91.0,75.8316865597488,8.73358626948451,0.9229256666109211,102.44786481197517
92.0,75.07829875586675,9.65970304149781,0.9227842356084657,103.19332764109146
93.0,74.34311604763946,10.635687605232466,0.9226459696763571,103.92367478344586
94.0,73.63888721097989,11.664429015244393,0.9225113787371066,104.63798037882249
95.0,72.98117968791372,12.74894544859528,0.9223809907892537,105.33527117680445
96.0,72.38884333482444,13.892383633117394,0.9222553475872902,106.01452580011251
97.0,71.88455734431156,15.09801776623687,0.9221349993454949,106.67467396446645
98.0,71.4954409416196,16.369247248414247,0.9220204982012433,107.3145960293824
99.0,71.25372092867326,17.70959289049205,0.9219123904139808,107.93312295957632
100.0,71.1975199106286,19.122691692281485,0.9218112069916043,108.52903637307111
101.0,71.37168337053605,20.61229048449152,0.9217174527897888,109.10106917455171
102.0,71.82872479895093,22.18223764534557,0.921631593739365,109.64790644736489
103.0,72.62980306152573,23.836471872335967,0.9215540426498283,110.16818712499519
104.0,73.84592074493605,25.579011024431228,0.9214851419127432,110.6605054498161
105.0,75.5590534133666,27.41393715992683,0.9214251451336026,111.1234137339237
106.0,77.8634374157375,29.345379576561307,0.9213741961533216,111.555425321685
107.0,80.86698214160619,31.377495839548423,0.9213323050723377,111.95501804153551
108.0,84.6926397790259,33.51444997082413,0.9212993229709713,112.320638566121
109.0,89.47992792550534,35.760388598639494,0.9212749130301348,112.65070713894379
110.0,95.38645359049352,38.119413751470525,0.9212585197427645,112.9436230994565
111.0,102.58939621075686,40.59555419300898,0.9212493361604802,113.19777099819431
112.0,111.28712781521072,43.19273299754161,0.9212462670017089,113.41152730740198
113.0,121.70056389548755,45.914734250593085,0.9212478926068443,113.58326775977953
114.0,135.1504158852343,47.6253377884444,0.9220676703420071,105.1687616897126
115.0,152.27055037935287,47.02125345365165,0.9249398152873667,71.94638135389668
116.0,170.52544051076944,46.41517812674707,0.927263536451525,50.837193535530844
117.0,189.94396532650148,45.80724616829788,0.928860982591404,40.042629599054536
118.0,210.55012566804527,45.19759797242522,0.9299895380025297,33.46251984394234
119.0,231.83438744528755,45.23090679384191,0.930798244719388,28.925074565521513
120.0,253.93559164742945,46.29660463573145,0.9313684494289574,25.551824976044283
121.0,277.2702262759674,48.75487142346608,0.9317483780477077,22.918473295286248
122.0,302.5627290911987,53.07206299019983,0.9319687431864065,20.79195194251013
123.0,331.0295786166393,59.74400010895948,0.9320501673576665,19.031853217756986
124.0,364.4948194132902,69.29384253896546,0.9320070405705363,17.54758842531833
125.0,405.5135385001615,82.27018186022906,0.9318496846237061,16.277553993998215
126.0,457.50147017848883,99.24488165922357,0.9315856474486984,15.178080687440705
127.0,524.8690339497609,120.81029687110735,0.9312205190461174,14.217152807384188
128.0,613.6161288283923,147.0290147486662,0.9307584678831621,13.370640901362393
129.0,731.7563759500297,175.25037565477294,0.930202606772832,12.619931283259113
130.0,883.908639483216,204.93627246801603,0.9295552520389235,11.95038378747428
131.0,1073.932799877332,236.43013336582976,0.9288181109117185,11.350286481806926
132.0,1305.485954017503,271.66732101624495,0.9279924214209617,10.810132841814418
133.0,1584.0942994014763,314.0057104124533,0.9270790589578937,10.322107176706186
134.0,1919.2084036250228,368.531950317434,0.9260786198267031,9.879712101665902
135.0,2327.052745877932,442.20823645491123,0.9249914881111309,9.47749259907502
136.0,2834.0556935907184,543.9830976754995,0.9238178896610819,9.110828189643323
137.0,3480.9850988574417,684.6286024618142,0.9225579372386162,8.77577433367159
138.0,4328.901848543626,872.4587468890803,0.9212116685765187,8.468939788901375
139.0,5455.762891026863,1112.511474955589,0.9197790791145172,8.187390308174226
140.0,6950.880155321047,1411.094900602754,0.9182601507631692,7.928572497176988
141.0,8915.710105742763,1780.5490497408832,0.9166548771865343,7.690252740044336
142.0,11472.55039922485,2244.520503677987,0.9149632867210118,7.470467873641461
143.0,14782.981364316285,2843.8946546197158,0.9131854630541989,7.267485007200943
144.0,19078.06547992903,3642.966589646073,0.9113215641027705,7.079768429505552
145.0,24703.082522588367,4732.287739811338,0.9093718395267691,6.9059522789912595
146.0,32170.519377891058,6220.039248527083,0.9073366469091915,6.7448177273721965
147.0,42194.62023738462,8228.600134060476,0.9052164667455997,6.595273840516021
148.0,55716.524907446495,10906.015743653224,0.9030119163880175,6.456341423814709
149.0,73946.82441411709,14453.63412204571,0.9007237629930283,6.327139309557648
150.0,98456.835069005,19170.95770199364,0.8983529355022208,6.206872654560876
151.0,131353.61686954953,25516.316417679183,0.8959005356689004,6.094822904762166
152.0,175574.86511161094,34165.11169442962,0.8933678481353879,5.990339149414691
153.0,235292.62758240913,46043.22294432158,0.8907563495458021,5.89283063970122
154.0,316363.6021422061,62363.10745192535,0.8880677166725728,5.801760288344668
155.0,426820.16243199556,84708.66713355819,0.8853038335286375,5.716638999738866
156.0,577486.1029677048,115214.49429904556,0.8824667974336012,5.637020706567357
157.0,782890.5447895164,156877.85127358744,0.8795589240043551,5.56249800991832
158.0,1062731.2520521337,213998.18391861612,0.8765827510277217,5.492698336868803
159.0,1444103.748653952,292675.4481624229,0.873541041190166,5.427280544248964
160.0,1964531.738234008,401352.97972087964,0.8704367836345674,5.3659319080286485
161.0,2675780.157862824,551513.3223882321,0.8672731943188955,5.308365447318584
162.0,3648621.656638192,758743.649369742,0.8640537151573796,5.254317539750502
163.0,4979121.150306878,1044446.227980304,0.8607820119306476,5.203545791426498
164.0,6797492.510466918,1438384.2894664053,0.8574619709604415,5.155827130043769
165.0,9280814.526251482,1982068.8732027288,0.8540976945481996,5.110956094019386
166.0,12670682.808921538,2733009.608859286,0.8506934951858749,5.068743294499473
167.0,17296671.838371545,3770159.5711896243,0.8472538885604554,5.029014030262979
168.0,23606846.14756004,5201368.222583375,0.8437835853775836,4.991607038071023
169.0,32207788.952954885,7174075.549097947,0.8402874820397909,4.9563733633532365
170.0,43918478.189741716,9890491.234098662,0.8367706502234927,4.923175338060353
171.0,59843877.73744194,13628239.01712394,0.8332383254072537,4.891885654180848
172.0,81474752.7018688,18767540.693890292,0.8296958944131587,4.862386522835387
173.0,110820716.46201879,25826914.144193597,0.8261488820260743,4.83456890997642
174.0,150585320.97625107,35511026.17974976,0.822602936768546,4.808331840998628
175.0,204396354.60145232,48776041.59235827,0.8190638159120628,4.783581767321471
176.0,277111069.88772506,66918767.03416507,0.8155373698106819,4.760231988818591
177.0,375222958.324986,91696439.71618494,0.8120295256477046,4.738202126668909
178.0,507402883.1020222,125485489.0036991,0.8085462706894054,4.717417641805299
179.0,685214293.640947,171491279.7576786,0.8050936351423205,4.697809394680071
180.0,924053231.8852623,234026735.15619975,0.801677674711578,4.679313242474843
181.0,1244382561.7369814,318884365.2152795,0.7983044529579312,4.661869670324712
182.0,1673355457.1859384,433832508.45427316,0.794980023551296,4.645423453525593
183.0,2246954066.801876,589273489.5127329,0.7917104125156171,4.6299233479461055
184.0,3012804644.996773,799111929.9703594,0.7885016005574278,4.615321806166629
185.0,4033874809.826045,1081898403.5617688,0.7853595055667768,4.601574717117582
186.0,5393320889.423554,1462337315.333067,0.7822899653746352,4.588641167211489
187.0,7200840026.439853,1973276814.1722322,0.7792987208450666,4.57648322116894
188.0,9600999097.209885,2658332194.066935,0.7763913993765331,4.565065720868044
189.0,12784162251.740194,3575337097.521568,0.7735734988784153,4.554356100775412
190.0,17000826563.82408,4800875711.031119,0.7708503722823932,4.544324218621943
191.0,22580422603.32271,6436230899.3034935,0.768227212641772,4.534942200110285
192.0,29955968242.234737,8615191930.484781,0.765709038864583,4.52618429656139
193.0,39696410739.556564,11514304383.128857,0.7633006821192211,4.518026754510872
194.0,52549086924.627525,15366322398.321798,0.7610067729438554,4.510447696364133
195.0,69495495937.9993,20477855926.17035,0.758831729084446,4.503427011294138
196.0,91824618972.76627,27252514603.49086,0.7567797440825659,4.496946255637082
197.0,121229365201.73125,36221266454.15063,0.754854776622844,4.490988562142967
198.0,159933538397.78452,48082276560.6418,0.7530605406478875,4.4855385574737765
199.0,210859144754.05078,63753209445.478935,0.751400496243116,4.480582287407403
200.0,277847098957.50134,84439923859.60983,0.7498778412895993,4.476107149260079
201.0,365948718258.02185,111726740376.39671,0.7484955038795968,4.472101831089511
202.0,481811144861.54926,147695133472.46066,0.7472561354848699,4.468556257291511
203.0,634187541157.3367,195079912052.1454,0.7461621048704427,4.465461540226507
204.0,834613428085.1344,257474906105.51578,0.7452154927414524,4.462809937572457
205.0,1098304434168.218,339604110113.81885,0.7444180871086373,4.460594815133806
206.0,1445349658517.0164,447679461770.5627,0.743771379360866,4.458810614862133
207.0,1902300324493.6562,589873429800.7421,0.7432765610326401,4.457452827879797
208.0,2504287859462.6226,776943949155.7848,0.7429345212555998,4.4565179723279975
209.0,3297852408912.522,1023061801474.3229,0.7427458448842805,4.4560035758908105
210.0,4344725394343.707,1346907422590.968,0.7427108112870799,4.455908162873624
211.0,5726896622573.504,1773126650244.1255,0.7428293938020366,4.456231245727575
212.0,7553413215987.589,2334265506922.942,0.743101259849917,4.456973320960663
213.0,9969517125092.697,3073345152067.1216,0.7435257717048173,4.458135869384624
214.0,13168946057120.938,4047293597332.308,0.7441019879246403,4.459721360672095
215.0,17410520597566.363,5331525771077.764,0.7448286654458155,4.4617332622223085
216.0,23040548960883.848,7026065022055.363,0.7457042623489674,4.464176052355865
217.0,30523140845028.926,9263737005806.064,0.7467269413027214,4.467055237885507
218.0,40481284863402.836,12221153522634.63,0.7478945736975022,4.470377376119947
219.0,53752610627596.27,16133457465112.438,0.7492047444817282,4.4741501013855824
220.0,71465203244627.33,21314146426008.0,0.750654757708794,4.478382156182325
221.0,95140845884775.36,28181762949336.715,0.7522416428078514,4.483083427099289
222.0,126835832229650.36,37295881815747.16,0.7539621615894508,4.488264985641474
223.0,169333311522266.56,49405701745153.945,0.7558128159957271,4.493939134140656
224.0,226406425833192.7,65515747441147.555,0.7577898566027935,4.500119456946615
225.0,303178770519264.06,86974830938737.48,0.7598892918789187,4.5068208771224
226.0,406618847765013.56,115596657333569.11,0.7621068982038892,4.514059718865265
227.0,546219213651840.0,153823540259190.88,0.7644382306439416,4.521853775930375
228.0,734930396771618.9,204948904258638.3,0.7668786344750709,4.530222386342943
229.0,990446588462625.4,273420024307024.84,0.7694232574427254,4.539186513705658
230.0,1336977386914170.0,365250371238204.06,0.7720670627396052,4.548768835433525
231.0,1807691572482253.8,488581788192171.7,0.7748048426771071,4.558993838271031
232.0,2448090609015263.0,654451622776631.0,0.7776312330190076,4.569887921476093
233.0,3320668094745843.0,877840353650021.9,0.780540727940189,4.581479508065849
234.0,4511349277822754.0,1179103137699117.2,0.7835276955667162,4.593799164531592
235.0,6138393741112700.0,1585927065553227.2,0.7865863940438774,4.606879729487843
236.0,8364705977052253.0,2136008212488343.2,0.7897109880747784,4.620756451711599
237.0,1.1414858989218902e+16,2880714078155165.0,0.7928955658649155,4.635467138051963
238.0,1.5598631741027136e+16,3890094533358615.5,0.7961341564020149,4.651052311706803
239.0,2.1343542653565348e+16,5259737155267114.0,0.7994207469947926,4.667555381376758
240.0,2.923979143205685e+16,7120143583595130.0,0.8027493009894997,4.685022821831921
241.0,4.01022900900357e+16,9649547406365594.0,0.8061137755790013,4.703504366378825
242.0,5.505619927126657e+16,1.3091424709816594e+16,0.8095081396146862,4.723053211770574
243.0,7.56547223905965e+16,1.7778393797043948e+16,0.812926391329938,4.743726236090075
244.0,1.0404107201622704e+17,2.416479748201268e+16,0.8163625758821418,4.765584230104931
245.0,1.4317076360414723e+17,3.287105942771393e+16,0.8198108026195162,4.788692142578168
246.0,1.971160540319204e+17,4.474396730332952e+16,0.8232652619795015,4.8131193399865
247.0,2.7148187190515392e+17,6.093844004250159e+16,0.8267202419270625,4.838939881064377
248.0,3.73972425454713e+17,8.302818515617605e+16,0.8301701438445183,4.866232806527885
249.0,5.1516066267954e+17,1.1315505349867872e+17,0.8336094977850559,4.895082444198092
250.0,7.095294975627325e+17,1.542300328301722e+17,0.8370329770104884,4.9255787297665785
