Time,J,A,S,tau
0.0,100.0,10.0,0.689718742432359,24.429425419680367
1.0,99.80951721928847,8.999838838001681,0.6884061854982263,25.42923092675966
2.0,99.62177566132958,8.099731843094572,0.6871113402587354,26.429228483817123
3.0,99.43652872145019,7.289893852789492,0.6858337007283097,27.429226040874582
4.0,99.25362136121407,6.561236751086551,0.6845721975790998,28.429223597932044
5.0,99.07290312179725,5.905588630496231,0.6833257930694802,29.429221154989502
6.0,98.89422780588654,5.315604459339483,0.6820934788500503,30.429218712046964
7.0,98.71745320975768,4.784685942805998,0.6808742741157322,31.429216269104423
8.0,98.5424408259238,4.306896188371673,0.6796672235548867,32.429213826161885
9.0,98.36905558570847,3.8769028014937623,0.6784713955737949,33.42921138321934
10.0,98.19716560034536,3.4899081113814048,0.677285880510978,34.429208940276794
11.0,98.02664190294064,3.1415989597508815,0.6761097888574674,35.42920649733425
12.0,97.85735822071624,2.828098252488017,0.6749422496859249,36.429204054391704
13.0,97.68919072777649,2.5459164935623964,0.6737824089454306,37.42920161144915
14.0,97.52201782783436,2.2919183207895375,0.6726294279629068,38.42919916850661
15.0,97.35571993115099,2.063281318619828,0.6714824819046287,39.42919672556406
16.0,97.19017923759506,1.8574677380097468,0.6703407582799447,40.429194282621516
17.0,97.02527953496654,1.6721950100805476,0.6692034555502775,41.42919183967898
18.0,96.86090598768345,1.5054083976579913,0.6680697816716569,42.42918939673643
19.0,96.6969449438563,1.355261023832897,0.6669389527640746,43.42918695379389
20.0,96.53328373738334,1.2200896634558727,0.6658101917464976,44.42918451085135
21.0,96.36981049679133,1.0983986801241494,0.664682727018404,45.429182067908805
22.0,96.20641395919274,0.9888420962430516,0.6635557911766093,46.42917962496626
23.0,96.04298328287383,0.8902081684229863,0.662428619722649,47.42917718202372
24.0,95.87940786647724,0.8014073570338063,0.6613004498156424,48.429174739081176
25.0,95.71557716770758,0.7214581614361234,0.6601705190218692,49.42917229613863
26.0,95.55138052532335,0.6494778967663818,0.6590380640870089,50.42916985319609
27.0,95.38670698094043,0.5846718329709791,0.6579023197070817,51.42916741025355
28.0,95.22144510526756,0.5263244775262194,0.6567625173299575,52.429164967311
29.0,95.05548281995263,0.4737922784385239,0.6556178839265906,53.429162524368465
30.0,94.888707226011,0.42649537881526484,0.6544676408076515,54.42916008142592
31.0,94.7210044285881,0.3839122573562646,0.6533110024148757,55.429157638483375
32.0,94.55225936096411,0.3455731774110486,0.6521471751071832,56.42915519554084
33.0,94.38235561573258,0.31105524988769223,0.6509753559962796,57.42915275259829
34.0,94.21117526236063,0.27997797948484415,0.6497947316883258,58.42915030965574
35.0,94.03859867989075,0.2519984946727983,0.6486044771300429,59.429147866713194
36.0,93.86450437624742,0.2268083931150196,0.6474037543624268,60.42914542377065
37.0,93.68876881085308,0.20412980899399571,0.6461917112972883,61.4291429808281
38.0,93.51126622358855,0.18371261044056972,0.6449674805375516,62.42914053788555
39.0,93.33186844380683,0.16533166580492875,0.6437301780599747,63.429138094943
40.0,93.15044472332558,0.14878410469546205,0.6424789020632581,64.42913565200045
41.0,92.96686154455313,0.13388743617288357,0.6412127316446407,65.42913320905791
42.0,92.78098244046359,0.12047720027597339,0.6399307255582231,66.42913076611536
43.0,92.59266781607377,0.1084053726086511,0.6386319209836483,67.42912832317282
44.0,92.40177474803285,0.09753867892256071,0.63731533214382,68.42912588023026
45.0,92.20815681574254,0.0877570355506315,0.6359799491400937,69.42912343728771
46.0,92.01166389598129,0.07895241202623157,0.634624736535746,70.42912099434517
47.0,91.81214198196466,0.0710274374672771,0.6332486321079867,71.42911855140262
48.0,91.60943299504156,0.0638944856967462,0.6318505455491759,72.42911610846008
49.0,91.40337457820164,0.057474639618123186,0.6304293570425897,73.42911366551752
50.0,91.19379992619142,0.05169680476354116,0.6289839160906844,74.42911122257497
51.0,90.98053756910794,0.04649701672552513,0.6275130400224816,75.42910877963243
52.0,90.76341119640388,0.04181761935777888,0.6260155127796834,76.42910633668988
53.0,90.54223946120696,0.037606735004756746,0.6244900835670075,77.42910389374732
54.0,90.31683577685733,0.033817631822186785,0.6229354654488476,78.42910145080478
55.0,90.08700815165265,0.03040821960076138,0.6213503342094632,79.42909900786223
56.0,89.85255897094574,0.027340625809109457,0.6197333268500431,80.42909656491969
57.0,89.61328483778759,0.02458071428392263,0.6180830404895734,81.42909412197714
58.0,89.36897637958086,0.02209777507963021,0.6163980310312688,82.42909167903458
59.0,89.11941806483004,0.019864140264899396,0.6146768118986424,83.42908923609204
60.0,88.86438805535965,0.01785489693381787,0.6129178530162095,84.4290867931495
61.0,88.60365800674613,0.016047626430163275,0.6111195794330029,85.42908435020695
62.0,88.33699294542932,0.01442212464352474,0.6092803704749709,86.42908190726439
63.0,88.0641510984227,0.01296021824771042,0.6073985585704339,87.42907946432184
64.0,87.78489675685579,0.01223572487824663,0.6054724283293287,88.42907702137931
65.0,87.49897698098285,0.012149563553523127,0.6035002193023479,89.42907457843677
66.0,87.20611799840293,0.012062686514958953,0.6014801285382463,90.42907213549422
67.0,86.90604591008878,0.011975076706154924,0.5994102645176319,91.42906969255168
68.0,86.59848558741972,0.011886717145015178,0.5972887272081455,92.42906724960915
69.0,86.28315880859955,0.01179759144469572,0.5951135951197998,93.4290648066666
70.0,85.95976592423105,0.011707684410962097,0.5928827981778336,94.42906236372406
71.0,85.62800390243099,0.011616980976027537,0.5905942428536877,95.42905992078151
72.0,85.28756987669624,0.011525466079309718,0.5882458367662684,96.42905747783897
73.0,84.93815806750005,0.011433125547648868,0.5858354672575595,97.42905503489642
74.0,84.57944032222376,0.011339946913464467,0.5833608662644542,98.42905259195388
75.0,84.21108319124264,0.011245917900176379,0.5808197289441708,99.42905014901135
76.0,83.83275321829112,0.01115102623306602,0.578209750407518,100.4290477060688
77.0,83.44411170745244,0.011055260709613107,0.5755285892158808,101.42904526312626
78.0,83.04478439598866,0.01098339050768219,0.572774043901724,102.42901811123272
79.0,82.53955093609764,0.10590917708902253,0.5707687216615417,103.33383352648127
80.0,81.58161216983095,0.6449524666122062,0.5725529514284183,103.79201066060615
81.0,80.59716407195667,1.2044022600011257,0.5744534214082735,104.22633347118632
82.0,79.60154420016838,1.7703515089254425,0.5763469722806138,104.65051131377504
83.0,78.59642124204429,2.3428556179551174,0.5782315119261706,105.06428052846346
84.0,77.58374436950236,2.9219650906704078,0.5801048316894252,105.46737192998427
85.0,76.56593415071647,3.5077195756522883,0.5819645203684569,105.85951106253226
86.0,75.54568712523297,4.100152993538375,0.5838080507334187,106.24042051480677
87.0,74.52626680822543,4.6992855909874685,0.5856326767702167,106.60981769488981
88.0,73.51134613734669,5.30513029694661,0.587435496436556,106.96741643062681
89.0,72.50515751154616,5.917686318095512,0.5892134097902478,107.31292630248825
90.0,71.51246095795638,6.536942427884948,0.5909631317126526,107.6460530398102
91.0,70.53869960814859,7.1628723227842315,0.5926811480966141,107.96649792435319
92.0,69.58984656457076,7.7954380485305315,0.5943637701349372,108.27395897674066
93.0,68.67265834120929,8.43458492903682,0.5960070543065161,108.56812972922317
94.0,67.79449712405453,9.080243711788622,0.5976068631032493,108.84870048454053
95.0,66.9634606111942,9.732328218628718,0.5991588221184967,109.11535776674616
96.0,66.18839199797445,10.390733947798623,0.6006583145918996,109.3677844732468
97.0,65.47883764719253,11.055337742944166,0.6021004901278405,109.60566019963031
98.0,64.84503870338555,11.725997160792849,0.603480260209968,109.82866134455881
99.0,64.29795390067557,12.402548126633741,0.6047922769456879,110.03646104588631
100.0,63.84916657276293,13.084804513832477,0.606030950107313,110.22872958292767
101.0,63.51085461037914,13.772556891649469,0.6071904356531449,110.40513442694312
102.0,63.29571199705038,14.465571457668752,0.6082646376888015,110.56534045292847
103.0,63.21686144354811,15.163588784378225,0.6092472072597425,110.70901011839852
104.0,63.287743468025965,15.866322359447333,0.610131542746377,110.83580366338687
105.0,63.52198166795207,16.573457531815723,0.6109107954956271,110.94537935354867
106.0,63.93323425410543,17.284650416030555,0.6115778746845818,111.03739371282452
107.0,64.53502821981854,17.999526715352427,0.6121254536784253,111.11150176639141
108.0,65.34057469878098,18.71768056077093,0.6125459776856196,111.16735729570276
109.0,66.36255771250802,19.438673111022666,0.6128316722406372,111.20461310929903
110.0,67.61291577319528,20.162031419046777,0.6129745580604893,111.22292134325005
111.0,69.10260773247096,20.887247528976776,0.6129664653171408,111.22193376575476
112.0,71.62559762863631,20.76832312831467,0.7374981916052741,31.7126053165402
113.0,74.42255582497663,20.42935331372232,0.7326912793762229,30.89566639120286
114.0,77.23435057227469,20.11766446631182,0.7278250434941026,30.10220261526601
115.0,80.04614594125663,19.842323887825952,0.7229025608399986,29.332007724927294
116.0,82.84343299156436,19.614070907618046,0.7179269391019362,28.584806012257243
117.0,85.61271340190629,19.445396262987224,0.7129013155984213,27.860262965145637
118.0,88.34229303405054,19.35055878717243,0.7078288531615665,27.157994951479342
119.0,91.02317259031943,19.345542826066477,0.7027127352436597,26.477577633536242
120.0,93.64997954483434,19.447942699960727,0.6975561637212968,25.818553907535243
121.0,96.22188207032958,19.676768180592877,0.6923623579518918,25.18044107423279
122.0,98.7434531376632,20.052151335922158,0.6871345504229056,24.562736911591216
123.0,101.22549227958882,20.594978737705112,0.6818759818747614,23.964924773181195
124.0,103.68558614912848,21.326448883783996,0.676589901532808,23.386478588495525
125.0,106.1484199068357,22.267554361550104,0.6712795637797223,22.826866905473267
126.0,108.64589758720132,23.438511781507305,0.6659482231803949,22.285556149116964
127.0,111.21682616417763,24.858152228265823,0.6605991338175287,21.762013808234492
128.0,113.90617590347506,26.543309537557953,0.6552355471980045,21.25571100027199
129.0,116.76412713475668,28.508210651127992,0.6498607066914044,20.766124344784018
130.0,119.84456143422648,30.763887163914337,0.6444778474192066,20.292737972707915
131.0,123.20297748913828,33.31787115432763,0.6390901948784419,19.835045058157785
132.0,127.00819951813473,36.04690289588808,0.6337009565842638,19.39254852588742
133.0,131.39208882491354,38.79725800198742,0.6283133205911615,18.96476218433096
134.0,136.31670211355922,41.55831284693836,0.622930458248662,18.551211797005564
135.0,141.7297193804111,44.32575241650613,0.6175555199628472,18.151435478554575
136.0,147.56598146192522,47.10300136356801,0.612191628110426,17.764983848073825
137.0,153.74948782951185,49.90278550074627,0.6068418767700731,17.391420452193287
138.0,160.19616575381283,52.748253054616164,0.6015093302924811,17.030321958852983
139.0,166.81735982782388,55.6735007658694,0.5961970154338403,16.681277998911078
140.0,173.52363483358835,58.72333173408919,0.5909079256413405,16.343891456046315
141.0,180.229009506113,61.95210057758982,0.5856450128225288,16.017778078710286
142.0,186.85489939187175,65.42180454169824,0.5804111876875016,15.702566592642137
143.0,193.33356328759572,69.19922127816832,0.5752093178015699,15.397898403011432
144.0,199.61114599426048,73.35246544094241,0.5700422224342488,15.103427332140518
145.0,205.64924178628942,77.94709822677235,0.5649126732649242,14.818819491185602
146.0,211.42636337713435,83.04151496118064,0.5598233896963083,14.543752838493438
147.0,216.9698594858024,88.64656855260104,0.5547770373561529,14.277917031213631
148.0,222.3561471217755,94.70385345513131,0.5497762277518738,14.021013084468226
149.0,227.64490355519393,101.1426344982471,0.5448235140062657,13.772752983835401
150.0,232.87018255753546,107.89020791693578,0.5399213894008994,13.532859441812805
151.0,238.03867299146287,114.87758559792991,0.535072287098595,13.301065582967086
152.0,243.13006350039396,122.04478556887429,0.5302785773323905,13.077114552389927
153.0,248.09906802018642,129.34524569882566,0.5255425659201439,12.860759233680865
154.0,252.87944472606944,136.74872757853674,0.52086649368169,12.65176196058128
155.0,257.3896849161074,144.2422177224698,0.5162525364740408,12.449894207089276
156.0,261.53988802134415,151.8287893453357,0.5117028017841131,12.254936221747133
157.0,265.238975529146,159.5245728831814,0.507219328971957,12.066676758114106
158.0,268.4017816523183,167.35419163469768,0.502804088603071,11.884912781330506
159.0,270.9589583869344,175.34136363329065,0.49845898193205646,11.709449182222766
160.0,272.8737370165792,183.48911569192654,0.4941858384325818,11.540098422868011
161.0,274.1406905227451,191.7742739838034,0.4899864227904918,11.376680513774351
162.0,274.77710009781157,200.15223679754317,0.4858624265750583,11.219022537201097
163.0,274.81364844765324,208.56327978333545,0.48181547148575793,11.066958328072396
164.0,274.28690172003235,216.9389866714661,0.47784710916052475,10.920328408636053
165.0,273.2330890533886,225.20905432733903,0.4739588224971364,10.77897968535393
166.0,271.68421559162795,233.30693575481527,0.47015202557921953,10.642765223528029
167.0,269.6662180778343,241.17400365707078,0.46642806429048206,10.511544028825426
168.0,267.19896706832844,248.7619559431358,0.46278821696915307,10.38518082436
169.0,264.2978171185278,256.03354682229235,0.45923369396925073,10.263545932709158
170.0,260.9575600416936,262.98078394013964,0.4558041487512603,10.145301767343554
171.0,257.2806573685154,269.4962259341072,0.45233622461197526,10.03548406228051
172.0,253.3719504118455,275.45370877832556,0.4486295122755963,9.93993128276923
173.0,249.2354147420912,280.8345491438461,0.4446897515106655,9.857959150759385
174.0,244.88188854625528,285.6219991763228,0.44052403693171954,9.788919755975668
175.0,240.33105736194534,289.80122862031175,0.4361407872203567,9.73219960469934
176.0,235.60506662611658,293.36143975016046,0.4315497086758673,9.68721808987395
177.0,230.72855555447202,296.29632713783656,0.42676164285314966,9.653423382203412
178.0,225.72745899174933,298.60483368165046,0.4217884934203322,9.630290773267513
179.0,220.62830977455354,300.29189006962747,0.4166431740486265,9.617322051963464
180.0,215.47156459841514,301.3504320472813,0.41129768353151497,9.615225231577574
181.0,210.1618096380733,301.9205435105978,0.4060604652196428,9.615225231577574
182.0,204.72474571550643,302.037520382012,0.401008092697685,9.615225231577574
183.0,199.21263459661049,301.70871090623206,0.39614329170097784,9.615225231577574
184.0,193.671564525141,300.9454821371377,0.3914685422978955,9.615225231577574
185.0,188.14220045781389,299.7625652953603,0.38698609107670884,9.615225231577574
186.0,182.66006560685636,298.17758206922485,0.3826979620602516,9.615225231577574
187.0,177.25587900678943,296.21059290520054,0.3786059687898748,9.615225231577574
188.0,171.95620862861102,293.883636240412,0.37471172772203193,9.615225231577574
189.0,166.78337601609599,291.2204564695242,0.3710166706400103,9.615225231577574
190.0,161.7567431600567,288.24549225918287,0.3675220562564607,9.615225231577574
191.0,156.88840835179812,284.9878926367135,0.36422898622815836,9.615225231577574
192.0,152.18704857916396,281.4782445485335,0.36113841626359017,9.615225231577574
193.0,147.66053328395415,277.7462257353322,0.358251172555174,9.615225231577574
194.0,143.31565159277136,273.8205157943844,0.3555679566372571,9.615225231577574
195.0,139.1573640606943,269.7288362890877,0.3530893650405385,9.615225231577574
196.0,135.1895078323485,265.49781388858554,0.35081590115882694,9.615225231577574
197.0,131.41525907431262,261.15285047483025,0.3487479814342217,9.615225231577574
198.0,127.83642742687314,256.71813300601883,0.3468859477752556,9.615225231577574
199.0,124.45368184409155,252.2166080551891,0.3452300806933731,9.615225231577574
200.0,121.26728612286736,247.66993461300015,0.34378060608324046,9.615225231577574
201.0,118.27687419248713,243.09847335725883,0.34253769830076314,9.615225231577574
202.0,115.48083346936946,238.52145317223335,0.34150149825391973,9.615225231577574
203.0,112.87741916497231,233.95689430772123,0.34067211290069066,9.615225231577574
204.0,110.46473545340375,229.42152552044294,0.34004961737935396,9.615225231577574
205.0,108.24016425140572,224.93087552699745,0.3396340690561778,9.615225231577574
206.0,106.20146876388303,220.49933802935118,0.33942550241871106,9.615225231577574
207.0,104.3463835373851,216.14005699240565,0.3394239307591456,9.615225231577574
208.0,102.67227142899675,211.86514542556822,0.3396293595404189,9.615225231577574
209.0,101.17725700224997,207.68567684979348,0.3400417689682254,9.615225231577574
210.0,99.85933085682846,203.61165649151732,0.34066112489822237,9.615225231577574
211.0,98.71694979540844,199.65230770313812,0.34148737522648753,9.615225231577574
212.0,97.74906065128422,195.81591034194415,0.3425204364226863,9.615225231577574
213.0,96.95457446550517,192.110029365851,0.34376021388726297,9.615225231577574
214.0,96.33362667796992,188.54157929304273,0.34520655576215536,9.615225231577574
215.0,95.88612988982342,185.11679712148623,0.34685929750224254,9.615225231577574
216.0,95.61320755725949,181.84150575496963,0.3487182040176072,9.615225231577574
217.0,95.51607943229016,178.72091550969014,0.35078300983706623,9.615225231577574
218.0,95.5972043930447,175.76010145020672,0.3530533564459896,9.615225231577574
219.0,95.85933496561096,172.96359118054625,0.3555288448408625,9.615225231577574
220.0,96.30636807499378,170.3359645952257,0.35820895645403994,9.615225231577574
221.0,96.94286960134622,167.8814299694149,0.3610931110900648,9.615225231577574
222.0,97.77444376138457,165.60430911078038,0.3641805979799554,9.615225231577574
223.0,98.80777344529616,163.50877606626608,0.36747059936181603,9.615225231577574
224.0,100.05050105158273,161.59929843274617,0.37096215995409476,9.615225231577574
225.0,101.5116707275874,159.88036473024363,0.37465417821117825,9.615225231577574
226.0,103.20154167825241,158.35674206141329,0.3785454036061305,9.615225231577574
227.0,105.13177253372253,157.03362006184355,0.382634402962056,9.615225231577574
228.0,107.31571560943557,155.9165344726154,0.38691956057765864,9.615225231577574
229.0,109.7682338869753,155.01157277997507,0.3913990721833193,9.615225231577574
230.0,112.50618515095489,154.3254256509552,0.396070914539267,9.615225231577574
231.0,115.54846993022772,153.8654877204516,0.4009328430308092,9.615225231577574
232.0,118.9162236918309,153.63995585253778,0.4059823815508723,9.615225231577574
233.0,122.6329999611847,153.65795027970867,0.41121681140077115,9.615225231577574
234.0,126.74546331724319,153.9082432306626,0.4165125387930963,9.618195542810582
235.0,131.32650667803622,154.3493504553511,0.4215962945839443,9.63078894263472
236.0,136.40433037103986,154.98418405216287,0.4264662410263248,9.652991276377694
237.0,142.01131386450194,155.81453528467773,0.4311137995714478,9.684986196367772
238.0,148.18272725825716,156.842493623939,0.435532794307851,9.726930198630885
239.0,154.95668665651246,158.070400286521,0.4397186944068481,9.778970641407586
240.0,162.37429248674968,159.5008270142593,0.4436685831110754,9.841245733134267
241.0,170.47967181695094,161.13658078296794,0.44738110784399343,9.913884533345625
242.0,179.32000907125945,162.98070454485295,0.4508564143708654,9.997006968491508
243.0,188.94553656835896,165.03648309421956,0.4540960700140889,10.09072383842118
244.0,199.40029515013842,167.31686146969471,0.4571394821318977,10.19419142933365
245.0,210.67542984343186,169.90171974261006,0.4602681876129051,10.300230411866306
246.0,222.8486870876804,172.79692014002566,0.4634527901380519,10.409592676425257
247.0,235.99402388512843,176.01610719093213,0.46669258408569225,10.522293810003642
248.0,250.1904690411547,179.57341673715445,0.4699858047802251,10.638376498138378
