Time,J,A,S,tau
0.0,100.0,10.0,0.5223491190789036,19.62076430244131
1.0,250.7135755763501,44.548263742164984,0.5223940275781022,19.549507609220345
2.0,626.8991985203528,76.83953644921311,0.5224403454807837,19.47609365379257
3.0,1206.255618027278,107.01958436193836,0.522488057367957,19.400550797524367
4.0,1968.0996514149756,135.2252536752044,0.5225371535705825,19.322898300426846
5.0,2893.264186753595,161.5847072671305,0.5225876238629619,19.243156169842653
6.0,3964.001501699764,186.21796318428872,0.522639457462041,19.16134515679136
7.0,5163.8930267797805,209.23739607617838,0.5226926430268506,19.077486752211787
8.0,6477.762882678182,230.74821712771777,0.5227471686587521,18.991603182224654
9.0,7891.598680321516,250.8489123723992,0.5228030219013261,18.903717403949777
10.0,9392.474708913467,269.6316677681331,0.5228601897413836,18.813853099943035
11.0,10968.483665694686,287.18274493329045,0.5229186586097887,18.72203467297351
12.0,12608.665573439315,303.58287474897463,0.5229784143822352,18.628287240942566
13.0,14302.947322441913,318.9075891560696,0.5230394423830771,18.53263662799498
14.0,16042.081786540224,333.2275573566806,0.5231017273838543,18.435109362494824
15.0,17817.59676438295,346.6088633651628,0.5231652536093071,18.33573266556157
16.0,19621.73940119488,359.1133129833197,0.5232300047388413,18.23453444551483
17.0,21447.416937302354,370.79876723252784,0.5232959639095455,18.13154329044847
18.0,23288.17578121964,381.7192385593874,0.5233631137185005,18.02678846173321
19.0,25222.868085636914,455.7262080204324,0.5233859934378798,17.99226110066829
20.0,27921.048249514224,650.9643379174759,0.5234075205583553,17.959910983009756
21.0,32158.965548059037,950.7866654342992,0.523428717678676,17.928114477578543
22.0,38574.26120905739,1340.170927395082,0.5234495785935586,17.89687809543948
23.0,47681.54870453617,1805.6133825065526,0.5234700972153741,17.866208158228606
24.0,59886.67380508338,2334.996922621016,0.5234902675757099,17.836110799891472
25.0,75499.59694563197,2917.47008721172,0.5235100838268878,17.806591968444742
26.0,94746.12444675795,3543.335455628925,0.5235295402434679,17.777657427726652
27.0,117778.53438359659,4203.946495811053,0.5235486312236038,17.74931275931913
28.0,144685.16772319784,4891.613170316185,0.5235673512904396,17.721563364364492
29.0,175499.06834775282,5599.51527420665,0.5235856950934651,17.69441446539616
30.0,210205.8327493105,6321.621631426279,0.5236036574096367,17.66787110844535
31.0,248750.5501019746,7052.618130044497,0.5236212331447638,17.641938164716745
32.0,291044.1460876372,7787.838734568829,0.5236384173344313,17.61662033286516
33.0,336968.9769544475,8523.206385491545,0.523655205145658,17.591922140208073
34.0,386383.93059165747,9255.172671802819,0.5236715918770485,17.56784794586789
35.0,439128.8904568579,9980.668775377233,0.5236875729605648,17.544401941735746
36.0,495027.2429624627,10705.093944858332,0.5237031439625077,17.521588154413852
37.0,554318.2687071757,11663.310545475058,0.5237183005834689,17.49941044838169
38.0,619658.9486278855,13293.018438835996,0.5237330386601509,17.47787252670849
39.0,696513.583982943,15950.134526500247,0.5237473541658655,17.456977933386906
40.0,792429.3320562732,19905.89933076744,0.5237612432112839,17.436730055267056
41.0,916395.7990010477,25358.939302666116,0.5237747020451622,17.417132123944658
42.0,1078310.310614753,32445.964298727875,0.5237877270549717,17.398187217684296
43.0,1288531.7350740987,41251.22893904014,0.5238003147675375,17.37989826325671
44.0,1557515.9590353821,51814.884285076616,0.5238124618495797,17.36226803780818
45.0,1895519.782088378,64140.32537513368,0.523824165108237,17.3452991706692
46.0,2312364.7685038964,78200.64249631831,0.5238354214915546,17.328994145124412
47.0,2817254.521154498,93944.26993710658,0.5238462280888523,17.31335530022601
48.0,3418633.935260897,111299.9077564897,0.5238565821311844,17.298384832433293
49.0,4124090.2126820902,130180.80272435547,0.5238664809915814,17.284084797391767
50.0,4940284.28141286,150488.4443736737,0.5238759221853905,17.270457111531805
51.0,5872912.6708117165,172115.73611917076,0.5238849033704969,17.25750355370814
52.0,6926679.956391584,194949.80627646734,0.5238934223475346,17.24522576673304
53.0,8105311.165730475,218873.56914144926,0.523901477060101,17.233625258878504
54.0,9411694.49654403,243954.68408283443,0.5239090655948982,17.222703405302067
55.0,10851541.791281944,271459.2216460246,0.523916186181291,17.212461450034123
56.0,12443320.136702001,304145.70893847605,0.5239228371919359,17.202900506744967
57.0,14227209.432947846,345823.8489343535,0.5239290171425391,17.194021560319566
58.0,16270663.704119192,400963.6055616206,0.5239347246917961,17.185825468163483
59.0,18671205.085666038,474378.99223300436,0.5239399586412842,17.178312961461703
60.0,21557053.256396558,570975.8455613491,0.5239447179353143,17.171484646388357
61.0,25086096.50848377,695554.1129160805,0.5239490016607412,17.165341005266672
62.0,29443628.529939394,852656.2886475498,0.5239528090467334,17.159882397678444
63.0,34839203.314233914,1046454.7336096441,0.5239561394645025,17.15510906152267
64.0,41502908.95347739,1280671.452766799,0.523958992426989,17.151021114027685
65.0,49681249.47229228,1558525.1437395331,0.5239613675885212,17.147618552695835
66.0,59632925.571515664,1882700.0217165612,0.5239632647444227,17.14490125621429
67.0,71624559.5382583,2255333.0678504566,0.5239646838305885,17.14286898530249
68.0,85926506.78425802,2678016.0489267986,0.5239656249230039,17.141521383521756
69.0,102808990.94517078,3151807.963463442,0.5239660882372572,17.140857978016463
70.0,122538303.85373394,3677257.50018572,0.523966074128012,17.140878180189866
71.0,145373510.8875262,4254518.878345638,0.5239655830884083,17.14158128637056
72.0,171566805.23947114,4885279.435411245,0.5239646157494832,17.142966478373065
73.0,201386486.94681236,5577786.45994613,0.5239631728794901,17.14503282405405
74.0,235175163.20958745,6351191.29524909,0.523961255383213,17.147779277822075
75.0,273430919.18722695,7237980.618781727,0.5239588643012485,17.15120468106324
76.0,316898336.82388335,8284900.04901757,0.5239560008092626,17.15530776251275
77.0,366660069.3568699,9552745.81631465,0.5239526662172095,17.160087138593827
78.0,424220606.44294447,11115337.141232967,0.5239488619685181,17.16554131369245
79.0,491578347.7073094,13057915.099204618,0.5239445896392236,17.17166868040934
80.0,571282550.6668072,15475177.128893634,0.5239398509370838,17.178467519747805
81.0,666473558.0638266,18469106.880277332,0.5239346477006737,17.18593600124394
82.0,780906215.4171472,22146720.424343307,0.5239289818984376,17.194072183061383
83.0,918956307.8997146,26617830.985667553,0.5239228556276989,17.20287401205067
84.0,1085611156.045838,31992904.57685707,0.5239162711136497,17.212339323752417
85.0,1286445967.4990933,38381057.26907899,0.5239092307083089,17.22246584236107
86.0,1527586543.1674142,45888236.966617644,0.5239017368894976,17.233251180599968
87.0,1815663250.2063036,54615590.883479945,0.5238937922596708,17.24469283966444
88.0,2157752178.515515,64658079.59871111,0.5238853995448528,17.256788208996355
89.0,2561315039.2354527,76104545.65284516,0.5238765615934305,17.269534566133377
90.0,3034154530.708986,89047583.74945493,0.5238672813750539,17.282929076384836
91.0,3584487464.1423945,103609678.5539095,0.5238575619793281,17.29696879264983
92.0,4221226259.8818536,119980351.58205505,0.5238474066146647,17.311650655017786
93.0,4954527371.0982,138457238.07159552,0.5238368186069746,17.326971490466786
94.0,5796603442.066451,159486158.45366353,0.5238258013984008,17.34292801246345
95.0,6762772716.582114,183696659.6428229,0.5238143585460181,17.35951682053858
96.0,7872707236.47071,211930837.64461777,0.5238024937204955,17.37673439984894
97.0,9151803830.45919,245264270.73641106,0.5237902107047278,17.39457712071538
98.0,10632634819.301517,285018545.7269444,0.5237775133924508,17.41304123813081
99.0,12356399058.841055,332765795.69714487,0.523764405786917,17.432122891150254
100.0,14374326828.164852,390324864.6637405,0.5237508919993606,17.45181810246291
101.0,16748999483.610823,459750900.2517387,0.5237369762476628,17.472122777702907
102.0,19555485471.077972,543318497.0939559,0.5237226628548202,17.49303270492788
103.0,22882355167.48549,643499460.254135,0.5237079562474775,17.514543553994542
104.0,26832421147.608875,762936896.0757834,0.5236928609544702,17.536650875871334
105.0,31523308855.51153,904415362.6797602,0.523677381605219,17.559350102098673
106.0,37087764001.5931,1070829459.9947256,0.5236615229282987,17.58263654399871
107.0,43673699502.40074,1265155262.1751792,0.5236452897497899,17.60650539211665
108.0,51444167112.79423,1490453019.5277195,0.5236286869917627,17.630951715473913
109.0,60577405010.773285,1749948394.5755706,0.5236117196706858,17.655970460878788
110.0,71267788784.8874,2047219504.7931225,0.5235943928957825,17.681556452286202
111.0,83728262782.12108,2386497341.1198583,0.5235767118674791,17.70770439000763
112.0,98195009214.71568,2773067324.4050465,0.5235586818757364,17.734408850057413
113.0,114934902822.51686,3213751401.489405,0.523540308298395,17.761664283461197
114.0,134256142950.15953,3717444476.911438,0.5235215965995219,17.78946501555017
115.0,156522201656.8964,4295678967.037791,0.5235025523277692,17.817805245218242
116.0,182168994597.19305,4963188199.751415,0.5234831811146753,17.84667904425045
117.0,211725178808.0991,5738442708.500321,0.523463488672958,17.876080356660236
118.0,245835167398.31583,6644139066.310418,0.5234434807948133,17.906002998011132
119.0,285284367806.214,7707624572.216701,0.5234231633502272,17.936440654710424
120.0,331025792895.7533,8961241033.471462,0.5234025422852433,17.96738688337178
121.0,384207740040.54736,10442575938.825964,0.5233816236202155,17.998835110208937
122.0,446201732167.1626,12194617922.445686,0.5233604134480705,18.03077863041809
123.0,518630091600.87384,14265814050.407389,0.5233389179325815,18.06321060754257
124.0,603391875424.5565,16710028629.373564,0.5233171433066114,18.096124072902704
125.0,702687353481.6661,19586404161.45801,0.5232950958703355,18.129511925079715
126.0,819040200456.128,22959174700.010307,0.5232727819894767,18.163366929392915
127.0,955317630837.7731,26897579745.60518,0.523250208093552,18.197681717370568
128.0,1114748705187.1719,31476134025.353233,0.5232273806740985,18.23244878628129
129.0,1300945385609.916,36775524508.359726,0.5232043062828761,18.26766049874208
130.0,1517930449246.711,42884395859.77619,0.5231809915300861,18.303309082325306
131.0,1770178783360.0442,49902218487.82386,0.5231574430825986,18.33938662917121
132.0,2062677241479.8455,57943368346.391815,0.5231336676621685,18.375885095655892
133.0,2401013048682.296,67142410263.14147,0.5231096720436245,18.4127963021741
134.0,2791494095087.46,77660601006.27628,0.5230854630530973,18.45011193285386
135.0,3241311376626.4546,89693424427.8301,0.5230610475662164,18.487823535405465
136.0,3758744425963.356,103479045199.87025,0.5230364325063226,18.525922520971378
137.0,4353414725239.206,119307435990.64577,0.5230116248426754,18.564400164042716
138.0,5036587859314.783,137529945776.36005,0.5229866315886632,18.603247602422222
139.0,5821524350909.653,158569037168.6551,0.5229614598000113,18.642455837249692
140.0,6723877147839.05,182927927771.64844,0.5229361165729934,18.682015733083215
141.0,7762131615115.592,211199877457.07196,0.522910609042644,18.721918018038366
142.0,8958082701201.639,244076872997.19955,0.5228849443809748,18.762153283988933
143.0,10337342509239.37,282357483661.53687,0.5228591297951924,18.802711986831312
144.0,11929870386264.223,326953691806.5212,0.5228331725259207,18.843584446814713
145.0,13770516888307.822,378896600075.7556,0.5228070798454248,18.884760848939173
146.0,15899573313447.416,439341225416.6339,0.5227808590558412,18.92623124342359
147.0,18363321544816.387,509571136692.9843,0.5227545174874096,18.967985546245806
148.0,21214586318347.477,591004319601.2814,0.522728062496712,19.010013539755466
149.0,24513297215732.57,685202244083.0221,0.522701501464915,19.052304873360985
150.0,28327089179404.88,793884402117.3527,0.5226748417960159,19.094849064301346
151.0,32731977595616.04,918950840415.0283,0.5226480909150972,19.1376354984947
152.0,37813159363554.77,1062515134083.3334,0.5226212562665836,19.18065343146833
153.0,43666003910856.164,1226950032471.5422,0.5225943453125077,19.223891989372387
154.0,50397307709553.84,1414947639034.8335,0.5225673655307794,19.26734017007934
155.0,58126891743230.664,1629595378777.9214,0.5225403244134634,19.31098684437085
156.0,66989623651692.5,1874468554872.9727,0.5225132294650618,19.35482075721396
157.0,77137944738370.45,2153739595206.5962,0.5224860882008046,19.398830529128354
158.0,88744977760398.17,2472303459307.245,0.5224589081449444,19.443004657646412
159.0,102008281158531.77,2835918098455.2334,0.5224316968290622,19.487331518865425
160.0,117154290928471.33,3251358380955.4087,0.5224044617903744,19.531799369097424
161.0,134443505854877.12,3726581086902.9053,0.5223772105700514,19.576396346620296
162.0,154176425342167.2,4270898540296.5625,0.5223499507115406,19.621110473525228
163.0,176700243470663.22,4895157945225.773,0.5223226897588977,19.66592965766475
164.0,202416282176722.44,5611923278710.287,0.5222954352551245,19.710841694702857
165.0,231788127193072.56,6435656614581.811,0.5222681947405137,19.755834270268643
166.0,265350413815912.34,7382896400835.474,0.5222409757510009,19.800894962214706
167.0,303718200068189.3,8472431951324.612,0.5222137858165232,19.84601124298168
168.0,347596869063032.25,9725476402247.879,0.5221866324593849,19.891170482070002
169.0,397792539342532.2,11165844245646.861,0.5221595231926294,19.936359948620044
170.0,455222971613907.0,12820144602349.936,0.5221324655184185,19.98156681409936
171.0,520929051292113.3,14718005652238.832,0.5221054669264167,20.026778155104253
172.0,596087080554961.6,16892349722814.709,0.5220785348921831,20.071980956272924
173.0,682022162068878.2,19379742507182.457,0.5220516768755712,20.117162113313217
174.0,780223112007973.9,22220844028873.562,0.5220249003191293,20.162308436126978
175.0,892359034831212.2,25460989437622.426,0.5219982126465109,20.207406652076003
176.0,1020299366622456.6,29150920859923.938,0.5219716212608914,20.25244340933829
177.0,1166136916431800.2,33347705708585.855,0.5219451335433869,20.297405280389874
178.0,1332215491540912.5,38115860063537.7,0.5219187568514805,20.342278765600103
179.0,1521162941575743.5,43528698509263.266,0.5218924985174513,20.387050296942654
180.0,1735930649396347.0,49669926046990.11,0.5218663658468098,20.431706241822468
181.0,1979840514662486.0,56635482341971.945,0.5218403661167357,20.476232907018787
182.0,2256640461015358.5,64535642599789.74,0.5218145065745213,20.52061654274436
183.0,2570569440476237.5,73497373290490.17,0.5217887944360177,20.564843346820744
184.0,2926432834756034.5,83666934521400.12,0.521763236884083,20.608899468969465
185.0,3329689126345102.5,95212713246772.94,0.5217378410670361,20.652771015219308
186.0,3786548351615947.0,108328268787391.56,0.5217126140971111,20.696444052428724
187.0,4304082921154366.0,123235565523686.14,0.5216875630489141,20.739904612923038
188.0,4890351126622845.0,140188368709244.58,0.5216626949578821,20.783138699245917
189.0,5554533525598246.0,159475785141042.6,0.521638016818744,20.82613228902437
190.0,6307082313601684.0,181425943847118.78,0.5216135355839816,20.8688713399464
191.0,7159883803799127.0,206409833832165.6,0.5215892581622922,20.91134179485036
192.0,8126434281781429.0,234845345975930.47,0.521565191417051,20.9535295869249
193.0,9222029819813696.0,267201603159257.56,0.5215413421647744,20.995420645018193
194.0,1.0463971145989048e+16,304003704768359.9,0.521517717173582,21.037000899055148
195.0,1.1871785374733226e+16,345838053750030.9,0.5214943231616578,21.078256285561032
196.0,1.3467467334842326e+16,393358498928647.9,0.5214711667957118,21.119172753289842
197.0,1.5275744396958884e+16,447293534411815.06,0.521448254689439,21.15973626895557
198.0,1.7324369886223728e+16,508454865461553.0,0.5214255934019764,21.199932823064483
199.0,1.9644451647442428e+16,577747676486943.8,0.5214031894363585,21.239748435846206
200.0,2.227082381984995e+16,656182958106165.8,0.5213810492379716,21.279169163281367
201.0,2.5242475647290948e+16,744892222924499.5,0.5213591791930038,21.31818110322228
202.0,2.86030322515435e+16,845145127897847.5,0.5213375856268977,21.35677040160196
203.0,3.2401314299783884e+16,958370323629506.2,0.5213162748027772,21.39492325875
204.0,3.669201084050145e+16,1086179567084278.5,0.5212952529198952,21.43262593577908
205.0,4.153643213079911e+16,1230395887863490.8,0.5212745261120798,21.46986476104536
206.0,4.700339103104999e+16,1393085843648242.5,0.5212541004461682,21.506626136695715
207.0,5.317022291758593e+16,1576596129900544.2,0.5212339819204359,21.542896545290752
208.0,6.0123953815007016e+16,1783594856872158.2,0.5212141764630139,21.57866255651153
209.0,6.7962653523660936e+16,2017117485840519.8,0.5211946899302918,21.613910833952204
210.0,7.679698341518995e+16,2280617193795017.5,0.5211755281053527,21.64862814192729
211.0,8.675193214935371e+16,2578020245963858.5,0.5211566966963888,21.682801352357064
212.0,9.796878221959888e+16,2913786085380066.5,0.5211382013351075,21.716417451712843
213.0,1.1060731429226429e+17,3292972282100339.0,0.5211200475751334,21.749463548014585
214.0,1.2484824960280163e+17,3721304904760000.5,0.5211022408903876,21.781926877906585
215.0,1.4089601739305152e+17,4205253622442039.0,0.5210847866734755,21.813794813756964
216.0,1.589817754640713e+17,4752112781105446.0,0.5210676902340942,21.845054870751078
217.0,1.793667403539248e+17,5370089509387448.0,0.5210509567974172,21.87569471404542
218.0,2.0234586440962416e+17,6068399879939978.0,0.5210345915024738,21.90570216594889
219.0,2.2825187460293507e+17,6857375143379179.0,0.521018599400521,21.935065213131242
220.0,2.5745971689349648e+17,7748580803727443.0,0.52100298545339,21.96377201389466
221.0,2.903915638031888e+17,8754949237892911.0,0.5209877545318661,21.99181090537859
222.0,3.275222528910138e+17,9890931887088186.0,0.520972911414068,22.019170410765323
223.0,3.693853746581419e+17,1.1172674078491772e+16,0.5209584607838095,22.04583924650647
224.0,4.1658008839199366e+17,1.2618217256049168e+16,0.5209444072289591,22.071806329539474
225.0,4.6977873770667206e+17,1.4247735190533932e+16,0.5209307552397888,22.097060784511974
226.0,5.297355549106138e+17,1.6083808392491876e+16,0.5209175092073061,22.12159195101658
227.0,5.972965771731771e+17,1.815174166161822e+16,0.5209046734216356,22.145389390682702
228.0,6.734107985596338e+17,2.047993527457452e+16,0.5208922520703826,22.168442894276716
229.0,7.591429859616849e+17,2.3100314444729284e+16,0.5208802492369885,22.190742488768393
230.0,8.556883496308383e+17,2.604882482632664e+16,0.5208686688990899,22.212278444347245
231.0,9.643892423325843e+17,2.936600421520811e+16,0.5208575149268557,22.233041281436332
232.0,1.0867547037308512e+18,3.309763083629811e+16,0.520846791081343,22.253021777601294
233.0,1.2244825540492644e+18,3.729545969910161e+16,0.5208365010128921,22.272210974305366
234.0,1.3794846545670482e+18,4.201805521453046e+16,0.5208266482595003,22.290600183641025
235.0,1.553915817286343e+18,4.733172503447301e+16,0.5208172362452007,22.308180994974407
236.0,1.7502066634137892e+18,5.331156398300142e+16,0.5208082682784445,22.324945281502355
237.0,1.9711008989365745e+18,6.0042619634098e+16,0.5207997475504614,22.34088520678092
238.0,2.2196982391157468e+18,6.762117051434552e+16,0.5207916771336795,22.35599323101145
239.0,2.499502087970739e+18,7.61561452536058e+16,0.5207840599801563,22.370262117204202
240.0,2.814473493156563e+18,8.577068743032418e+16,0.520776898920006,22.3836849372549
241.0,3.169091835592092e+18,9.660388099116784e+16,0.5207701966598383,22.396255077883037
242.0,3.568422570970639e+18,1.0881266247683653e+17,0.5207639557811987,22.407966246459253
243.0,4.0181938253746243e+18,1.2257393713758085e+17,0.5207581787390078,22.418812476725716
244.0,4.5248824241633766e+18,1.3808691282096067e+17,0.5207528678600811,22.428788134182774
245.0,5.09580908753069e+18,1.5557572193760666e+17,0.520748025341644,22.43788792137707
