Time,J,A,S,tau
0.0,100.0,10.0,0.5376995490678643,18.74568793358949
1.0,252.71407501736866,45.348702443537825,0.5376245865768445,18.68124168313494
2.0,636.1364586325263,78.37311154638036,0.537547283573334,18.61485091198635
3.0,1227.348133512078,109.22315460147264,0.5374676680625893,18.546542227597275
4.0,2005.0939993975808,138.03957761877308,0.5373857577336331,18.47633337233803
5.0,2949.6779087946343,164.9542001580453,0.537301571249203,18.40424274962618
6.0,4042.8631536400153,190.09046964103334,0.5372151282441321,18.330289420305384
7.0,5267.780263343978,213.56397360705856,0.5371264493232912,18.25449309886202
8.0,6608.836943254126,235.48293991033188,0.5370355560582577,18.176874148914155
9.0,8051.638340662743,255.9486775329508,0.5369424709843655,18.097453579094328
10.0,9582.90671041174,275.0560215146288,0.5368472175959008,18.01625303781931
11.0,11190.409855429607,292.8937274835728,0.5367498203408533,17.933294807907586
12.0,12862.894192720765,309.54483973140475,0.5366503046173917,17.848601802464067
13.0,14590.011405398052,325.08709923030676,0.5365486967632008,17.76219755617033
14.0,16362.27175464082,339.5931935441795,0.5364450240552728,17.674106223628105
15.0,18170.974258802675,353.13114668769464,0.5363393146941365,17.58435256755471
16.0,20008.157720358406,365.76458623567413,0.5362315978008225,17.492961955512264
17.0,21866.554690578156,377.5529924396679,0.5361219034100917,17.39996035428853
18.0,23754.35546157959,417.23440736011526,0.5360589292548792,17.34734933223313
19.0,26146.517666937812,579.6019598365652,0.5360238365918064,17.318829208283493
20.0,29884.64584827159,856.3956076766035,0.5359892583096174,17.290781724098142
21.0,35678.379653401935,1231.4029576701394,0.5359552050661335,17.263212882348082
22.0,44104.06758965202,1690.0391954940476,0.5359216873295906,17.23612852386745
23.0,55620.02315035454,2219.206817172648,0.5358887153755652,17.209534328738364
24.0,70580.38147302136,2807.1663825253186,0.5358562992840017,17.18343581741951
25.0,89247.68536912043,3443.4172625649358,0.535824448936386,17.157838351948097
26.0,111804.29801901043,4118.588107890028,0.5357931740128956,17.132747137082173
27.0,138362.7283563047,4824.3356597391585,0.5357624839897955,17.108167221589
28.0,168974.9700416379,5553.251780616042,0.5357323881368546,17.08410349950095
29.0,203640.91554528094,6298.777670891965,0.5357028955150561,17.060560711534745
30.0,242315.8347072281,7055.1274755077975,0.5356740149735696,17.03754344593999
31.0,284917.3461548687,7817.212072018853,0.5356457551487886,17.01505614076453
32.0,331331.28413248213,8580.578765993389,0.5356181244602193,16.99310308385156
33.0,381417.35208903236,9341.345156929514,0.5355911311103569,16.971688415562813
34.0,435013.93470230163,10096.146458450643,0.5355647830814998,16.950816129326384
35.0,491950.4237090471,10873.706940057138,0.5355390881337266,16.93049007294482
36.0,552913.0776499902,12014.089826928966,0.5355140538045506,16.910713950960957
37.0,621507.0597797785,13966.965286678605,0.5354896874057402,16.891491325051927
38.0,704122.4368925921,17085.07878074223,0.535465996022172,16.872825615740936
39.0,809172.4942005012,21635.174145046618,0.5354429865102991,16.854720103782483
40.0,946447.5049218792,27810.29388302473,0.5354206654967109,16.837177931544414
41.0,1126574.3170799795,35740.68438300412,0.5353990393767872,16.820202104386183
42.0,1360568.5443612547,45503.4425023742,0.5353781143134326,16.803795492023394
43.0,1659466.642503673,57131.035565125,0.5353578962358829,16.787960829872222
44.0,2034029.6204540306,70618.79787959823,0.5353383908386244,16.772700720396774
45.0,2494508.2663549273,85931.50875323781,0.535319603580406,16.758017634445057
46.0,3050458.4478615443,103009.15910085045,0.5353015396832421,16.74391391251453
47.0,3710607.3559271237,121771.96143170907,0.5352842041316881,16.730391766107118
48.0,4482752.716594551,142124.71810841176,0.5352676016719332,16.717453278915254
49.0,5373701.014986855,163960.590145005,0.5352517368113717,16.705100408202497
50.0,6389221.592761563,187164.38091927418,0.5352366138174949,16.69333498574929
51.0,7534048.733072711,211613.8868794608,0.5352222367181666,16.68215871948083
52.0,8811894.232267879,237286.01308411531,0.5352086092995513,16.671573193757705
53.0,10228090.971779121,265207.3226234492,0.5351957351084063,16.661579871937484
54.0,11799403.077746326,298067.7156046196,0.535183617449609,16.65218009634262
55.0,13564366.26369759,339786.0885717917,0.5351722593866878,16.64337508971477
56.0,15589985.189624676,395073.55184742366,0.5351616637416023,16.635165956231923
57.0,17975309.664748475,469078.32917615253,0.5351518330946815,16.627553682530177
58.0,20852561.452245794,567101.2484054377,0.5351427697846376,16.62053913869369
59.0,24386372.4375449,694371.4674933166,0.5351344759086436,16.614123079205974
60.0,28771605.888912506,855873.3156893728,0.5351269533224792,16.60830614386661
61.0,34230158.78368043,1056216.2327654946,0.5351202036407421,16.60308885867033
62.0,41007028.19384976,1299541.1897070413,0.5351142282371264,16.598471636647464
63.0,49365995.2278511,1589456.9413646038,0.535109028244799,16.594454778685783
64.0,59585035.42918455,1929001.5992821455,0.535104604556815,16.59103847429802
65.0,71951718.8661882,2320624.1855656947,0.5351009578265631,16.588222802338702
66.0,86758723.24092421,2766182.780281466,0.5350980884684168,16.58600773174839
67.0,104299422.070242,3266956.1939005507,0.5350959966582277,16.584393122152044
68.0,124863883.18085879,3823663.4921681704,0.5350946823341324,16.583378724541358
69.0,148735455.60101354,4436912.494824739,0.5350941451972413,16.58296418183399
70.0,176196733.23304722,5110768.6431787005,0.5350943847124131,16.58314902939798
71.0,207568979.64717758,5858540.1506343065,0.5350954001090478,16.583932695522012
72.0,243287901.59359536,6706791.780662315,0.5350971903823717,16.585314502067167
73.0,283998654.3271086,7697430.19699535,0.5350997542940764,16.587293664716732
74.0,330658569.10802925,8888249.47434478,0.5351030903735218,16.589869293449496
75.0,384636220.31324416,10352364.441099318,0.5351071969188377,16.59304039288811
76.0,447800939.28757364,12176840.462967867,0.53511207199802,16.596805862587022
77.0,522597753.2254599,14460759.795143522,0.5351177134502465,16.601164497358262
78.0,612104433.2727101,17312955.446197543,0.5351241188871628,16.606114987517675
79.0,720070229.6637639,20849565.84908513,0.5351312856941393,16.611655919057362
80.0,850936035.0855021,25191525.517871276,0.5351392110317489,16.617785773861296
81.0,1009835268.7225118,30462114.23979039,0.5351478918372287,16.624502929849555
82.0,1202578137.018541,36784621.8873218,0.5351573248259004,16.63180566104502
83.0,1435621241.1420689,44280174.24866307,0.5351675064928035,16.639692137683213
84.0,1716022234.2740908,53065778.67465619,0.5351784331143329,16.648160426263956
85.0,2051382992.8165631,63252595.439486034,0.5351901007497898,16.657208489503827
86.0,2449786323.94179,74945717.85854355,0.5352025052432433,16.666834186385685
87.0,2919749429.3853517,88254629.90599398,0.5352156422251453,16.677035272027492
88.0,3470303549.4775524,103322458.0702752,0.5352295071143247,16.687809397687467
89.0,4111313808.1288266,120368362.2058124,0.5352440951197008,16.69915411057599
90.0,4854098806.795139,139734958.20893717,0.5352594012422547,16.711066853739915
91.0,5712362583.075424,161934780.32772708,0.5352754202770194,16.723544965910143
92.0,6703399227.578294,187691903.9413615,0.5352921468150401,16.736585681278235
93.0,7849538846.673643,217975602.15937242,0.5353095752456006,16.750186129372263
94.0,9179734157.921833,254025747.223769,0.5353276997580577,16.764343334664993
95.0,10731242019.588459,297367721.7306395,0.5353465143442597,16.779054216452916
96.0,12551327530.500307,349818522.8529184,0.5353660128005157,16.794315588446345
97.0,14698903096.959831,413483061.68129146,0.5353861887300592,16.8101241585837
98.0,17246077147.92808,490742840.626655,0.5354070355451279,16.826476528591026
99.0,20279509142.007057,584236796.8265216,0.5354285464694917,16.84336919374919
100.0,23901601518.91651,696836414.9499197,0.5354507145406465,16.860798542431947
101.0,28231398181.3798,831615601.5087111,0.5354735326123975,16.878760855826055
102.0,33405292639.972397,991816755.7905222,0.535496993357171,16.897252307457524
103.0,39577374940.04172,1180815993.9870386,0.5355210892686443,16.916268962866255
104.0,46919647049.19999,1402108325.588504,0.5355458126641777,16.9358067791292
105.0,55622151730.38951,1659367223.2990775,0.5355711556874858,16.955861604492277
106.0,65893934651.136856,1956623715.6712127,0.5355971103111989,16.97642917790458
107.0,77965370366.50752,2298584037.5897455,0.5356236683395371,16.997505128587967
108.0,92093081907.8547,2691076169.3219433,0.5356508214110542,17.019084975627475
109.0,108567966936.1827,3141608545.2515683,0.5356785610012745,17.041164127456884
110.0,127726932144.35362,3660006533.944188,0.535706878425556,17.063737881470974
111.0,149968757261.87952,4259094333.105018,0.5357357648419102,17.086801423586426
112.0,175774055915.12952,4955393034.759704,0.5357652112537594,17.110349827728975
113.0,205729006338.59326,5769796483.794616,0.5357952085128719,17.13437805542513
114.0,240552767727.76474,6728196791.076461,0.5358257473223209,17.15888095539494
115.0,281128009928.4992,7862041335.371468,0.5358568182393668,17.183853263064304
116.0,328533315656.57697,9208798779.576376,0.5358884116784406,17.209289600133587
117.0,384077297691.22217,10812312763.69082,0.5359205179142303,17.235184474214424
118.0,449333703262.7055,12723042887.735458,0.5359531270846924,17.261532278392046
119.0,526175672535.8617,14998190447.952358,0.5359862291940873,17.288327290786896
120.0,616809071553.6506,17701692151.36833,0.5360198141161688,17.31556367423912
121.0,723804529703.3032,20904108803.29073,0.536053871597321,17.343235475939153
122.0,850126547777.7826,24682520887.646755,0.5360883912596625,17.371336627014035
123.0,999160455851.3381,29120673045.889294,0.5361233626043125,17.39986094225511
124.0,1174741152982.8154,34309725162.627907,0.5361587750146403,17.428802119830767
125.0,1381187663728.2969,40349987877.26403,0.5361946177594639,17.458153740939256
126.0,1623349056702.5642,47353945854.84547,0.5362308799963621,17.4879092695705
127.0,1906673409057.8875,55450757116.12726,0.5362675507750301,17.518062052318122
128.0,2237308338982.7803,64792367686.48221,0.5363046190405788,17.548605318129756
129.0,2622239195205.9385,75561258010.44379,0.536342073636886,17.57953217811097
130.0,3069477679263.006,87979651358.09656,0.5363799033100418,17.61083562544533
131.0,3588308370054.1685,102320053361.04062,0.5364180967117446,17.642508535265595
132.0,4189594110135.5054,118916925708.35007,0.5364566424026991,17.674543664523764
133.0,4886146291211.193,138179051913.68713,0.5364955288561298,17.706933652019924
134.0,5693164183266.917,160602332547.7092,0.5365347444612636,17.7396710184101
135.0,6628738256692.231,186782757575.7419,0.5365742775267888,17.772748166181998
136.0,7714408738225.523,217429050386.6042,0.5366141162844127,17.806157379784036
137.0,8975784866958.906,253374641772.90802,0.5366542488924211,17.8398908257861
138.0,10443214537052.777,295588818857.4281,0.5366946634392055,17.873940552999077
139.0,12152477651436.83,345186720850.0833,0.5367353479468493,17.90829849270208
140.0,14145514603124.535,403437918649.71375,0.5367762903747528,17.9429564589696
141.0,16471180803444.303,471774344077.38635,0.5368174786232238,17.97790614896214
142.0,19185994977321.207,551799049571.2655,0.5368589005370916,18.013139143267185
143.0,22354914841213.977,645297616484.9066,0.5369005439093784,18.048646906397266
144.0,26052172452490.727,754255464961.5082,0.5369423964849444,18.084420787270865
145.0,30362179750207.56,880884798145.7212,0.5369844459641324,18.12045201969812
146.0,35380575478417.74,1027664223615.1007,0.537026680006468,18.156731723045965
147.0,41215529273326.14,1197394525505.5146,0.5370690862343455,18.193250902922628
148.0,47989379576951.234,1393274064791.7544,0.5371116522367039,18.230000451853552
149.0,55840672973026.26,1618996016618.021,0.537154365572739,18.26697115009706
150.0,64926782108494.4,1878868574599.7356,0.537197213775617,18.304153666533857
151.0,75427238297735.03,2177959119188.8267,0.5372401843561794,18.34153855958424
152.0,87547823893843.7,2522262396578.866,0.537283264806659,18.37911627821112
153.0,101525579832585.95,2918891427974.632,0.5373264426043971,18.416877162984495
154.0,117634773997597.58,3376289365976.109,0.5373697052155637,18.454811447227886
155.0,136193948257522.1,3904458989325.958,0.5374130400988751,18.49290925824627
156.0,157574059197188.3,4515206927195.856,0.5374564347093096,18.53116061862169
157.0,182207735869903.66,5222398519417.534,0.5374998765018185,18.569555447585678
158.0,210599645305022.2,6042218986534.799,0.5375433529350319,18.608083562470107
159.0,243337957445448.62,6993436611764.906,0.5375868514749577,18.6467346802365
160.0,281106785416447.8,8097666382114.109,0.537630359598675,18.685498419078616
161.0,324699553380374.25,9379634025114.613,0.5376738647980162,18.724364300124236
162.0,375033302424751.56,10867447085418.053,0.5377173545832342,18.763321749216477
163.0,433163890461087.56,12592886910033.285,0.5377608164866589,18.802360098776262
164.0,500302204129183.94,14591741962444.01,0.5378042380663356,18.84146858975065
165.0,577831629184410.4,16904210265550.068,0.5378476069096492,18.88063637364826
166.0,667327257847262.1,19575404952445.33,0.5378909106369278,18.919852514658842
167.0,770577157162195.1,22656004627271.75,0.537934136905032,18.959105991861527
168.0,889606812026422.0,26203086243976.383,0.5379772734109111,18.998385701535668
169.0,1026707649281200.1,30281187891001.125,0.5380203078951385,19.03768045955526
170.0,1184470831205464.8,34963641497693.07,0.5380632281454204,19.07697900387413
171.0,1365827709855946.2,40334215284002.76,0.5381060220000752,19.11626999710353
172.0,1574098535039795.2,46489099349296.14,0.5381486773514834,19.155542029182804
173.0,1813051024134858.2,53539263407398.73,0.5381911821495083,19.194783620138878
174.0,2086969987169254.0,61613207272902.375,0.5382335244048813,19.233983222947305
175.0,2400740426852469.0,70860105322173.8,0.5382756921925413,19.273129226491495
176.0,2759945224246348.0,81453352126014.95,0.5383176736549409,19.31220995861233
177.0,3170978957652767.0,93594496941311.23,0.5383594570053113,19.35121368925343
178.0,3641179153776723.0,107517546541075.94,0.5384010305308846,19.390128633702446
179.0,4178976449538278.5,123493604928596.86,0.5384423825960711,19.428942955927717
180.0,4794063577831900.0,141835833524752.7,0.5384835016455989,19.467644772008693
181.0,5497584132366197.0,162904690559147.56,0.5385243762075898,19.50622215367093
182.0,6302342299063044.0,187113446489156.8,0.5385649948965857,19.54466313191447
183.0,7223033305757468.0,214934013109032.72,0.5386053464165259,19.582955700736736
184.0,8276495488246237.0,246903159790803.12,0.5386454195636676,19.621087820951377
185.0,9481985298112698.0,283629252522079.8,0.538685203229451,19.65904742410274
186.0,1.0861478279954396e+16,325799719898512.6,0.5387246864033087,19.69682241647449
187.0,1.243999550705592e+16,374189563287924.75,0.5387638581754205,19.73440068319451
188.0,1.4245964418795508e+16,429671208623619.7,0.538802707739387,19.771770092436096
189.0,1.631162182798323e+16,493226132201710.8,0.5388412243948342,19.808918499709943
190.0,1.8673455789244856e+16,565958952102473.5,0.5388793975500055,19.845833752247213
191.0,2.137271889970089e+16,649114177474183.6,0.5389172167242137,19.88250369347686
192.0,2.445600936821316e+16,744096534629297.8,0.5389546715502755,19.91891616759111
193.0,2.7975940713290084e+16,852495348772288.9,0.538991751776859,19.95505902420126
194.0,3.199192046305348e+16,976113616901561.8,0.5390284472707615,19.990920123080986
195.0,3.657105805691567e+16,1117002379241595.1,0.5390647480191166,20.02648733899592
196.0,4.178922512650035e+16,1277500955871401.5,0.5391006441315287,20.06174856661799
197.0,4.77322930991539e+16,1460283559317868.2,0.5391361258421321,20.096691725522696
198.0,5.449757442681062e+16,1668412719542714.0,0.5391711835115779,20.131304765267533
199.0,6.219549463811348e+16,1905399872378637.8,0.5392058076289442,20.16557567054949
200.0,7.095152281989623e+16,2175273366860014.2,0.5392399888135725,20.199492466439548
201.0,8.090838807624181e+16,2482654065610182.0,0.5392737178168271,20.233043223691805
202.0,9.222860912519146e+16,2832838667441488.0,0.5393069855237802,20.26621606412487
203.0,1.0509736374560379e+17,3231890889318346.0,0.5393397829548204,20.298999166072896
204.0,1.197257245916057e+17,3686740740993076.0,0.5393721012671863,20.331380769903543
205.0,1.3635428846577365e+17,4205292337538110.5,0.5394039317564244,20.363349183599993
206.0,1.5525722807958877e+17,4796541033819239.0,0.5394352658577749,20.394892788403958
207.0,1.7674679919170195e+17,5470701131993450.0,0.5394660951474803,20.426000044516496
208.0,2.0117834243354925e+17,6239346030770453.0,0.5394964113440249,20.45665949685336
209.0,2.2895582870820208e+17,7115563419806768.0,0.5395262063093003,20.48685978085127
210.0,2.6053801003333245e+17,8114128924206372.0,0.5395554720497018,20.51658962832151
211.0,2.9644525523364845e+17,9251702962779284.0,0.5395842007171563,20.545837873347093
212.0,3.372671720460428e+17,1.054705576554254e+16,0.5396123846100829,20.5745934582194
213.0,3.836711409740943e+17,1.2021327265095028e+16,0.5396400161742878,20.60284543941027
214.0,4.3641191763861914e+17,1.3698329358104076e+16,0.5396670880037973,20.630582993575203
215.0,4.963424939619724e+17,1.5604898977660332e+16,0.5396935928416295,20.657795423583288
216.0,5.6442644585795405e+17,1.7771311335501728e+16,0.5397195235805077,20.684472164569204
217.0,6.417520354419818e+17,2.0231763464388508e+16,0.5397448732635182,20.710602790002582
218.0,7.295483784033555e+17,2.3024938816932732e+16,0.539769635084715,20.736177017769847
219.0,8.292040312952289e+17,2.619466410664216e+16,0.5397938023896752,20.761184716263468
220.0,9.422883982026871e+17,2.9790669834657852e+16,0.539817368676007,20.78561591047344
221.0,1.0705764008850124e+18,3.386946601614359e+16,0.5398403275938143,20.809460788075658
222.0,1.216076900138172e+18,3.849534450245612e+16,0.5398626729461211,20.83270970551176
223.0,1.3810653983392553e+18,4.374151912314113e+16,0.5398843986892601,20.855353194054775
224.0,1.568121594043096e+18,4.969141469212559e+16,0.5399054989332276,20.877381965854855
225.0,1.7801723994187412e+18,5.6440116002645096e+16,0.5399259679420099,20.898786919959285
226.0,2.0205410722984348e+18,6.40959884603479e+16,0.5399458001338844,20.919559148300753
227.0,2.2930031591928668e+18,7.278248319091003e+16,0.5399649900816992,20.939689941647806
228.0,2.601849997592713e+18,8.264014162650829e+16,0.5399835325131367,20.959170795511277
229.0,2.951960590327104e+18,9.382881798144493e+16,0.5400014223109637,20.97799341600046
230.0,3.3488827478674217e+18,1.0653014289376629e+17,0.5400186545132722,20.996149725622516
231.0,3.798924503135765e+18,1.2095025792995363e+17,0.5400352243137173,21.013631869018848
232.0,4.3092569453106355e+18,1.3732285953531963e+17,0.5400511270617533,21.030432218631688
233.0,4.88802980601597e+18,1.559126012531649e+17,0.5400663582628746,21.046543380294416
234.0,5.544501365362526e+18,1.7701891484209542e+17,0.5400809135788655,21.06195819873896
235.0,6.289184538989838e+18,2.0098032585698778e+17,0.5400947888280608,21.07666976301347
236.0,7.134011369712545e+18,2.2817935524682272e+17,0.5401079799856251,21.090671411803626
237.0,8.092518583945113e+18,2.5904811630890214e+17,0.5401204831838511,21.10395673865074
238.0,9.180057390848322e+18,2.9407473554009926e+17,0.540132294712483,21.116519597059916
239.0,1.041403130645655e+19,3.3381074623015475e+17,0.5401434110190698,21.12835410549144
240.0,1.1814166479919337e+19,3.7887962470272506e+17,0.5401538287093488,21.13945465222868
241.0,1.3402819786845729e+19,4.29986660502135e+17,0.5401635445476664,21.149815900115687
242.0,1.520533376895443e+19,4.879303175629812e+17,0.5401725554574156,21.15943279111177
243.0,1.7250430679608795e+19,5.536156010903501e+17,0.5401808585216124,21.1683005508986
244.0,1.9570684117697032e+19,6.280691205582925e+17,0.5401884509833648,21.17641469302785
