Time,J,A,S,tau
0.0,100.0,10.0,0.9271795363245849,18.846479230305277
1.0,99.51561763332751,9.439289428163956,0.9274524787583278,19.69444831404075
2.0,99.04154379827938,8.925502651308138,0.9277214957474904,20.54561175574907
3.0,98.5771851294962,8.45466072579456,0.9279867674545665,21.399767219040697
4.0,98.12205904582059,8.022862251022188,0.9282484368361679,22.256768185794627
5.0,97.67570061370348,7.6265827196111635,0.9285066460815732,23.116473276753382
6.0,97.23766165056551,7.262641411023255,0.9287615364689576,23.978746003080506
7.0,96.80750980422225,6.928168948093594,0.929013248250837,24.8434545088157
8.0,96.38482770875017,6.620570950469372,0.9292619205601585,25.710471333747996
9.0,95.96921216880342,6.337502867512173,0.9295076913368641,26.579673183061622
10.0,95.56027335450061,6.0768435957025195,0.9297506972751585,27.450940698528452
11.0,95.1576340892185,5.836678093000082,0.9299910737807096,28.324158255798153
12.0,94.7609290611454,5.6152731094340815,0.9302289549541921,29.199213737867584
13.0,94.36980413618485,5.411060081280779,0.9304644735809297,30.075998337370393
14.0,93.9839156514639,5.222617664245616,0.9306977611382456,30.954406352089322
15.0,93.6029298066888,5.048662551477902,0.9309289478039977,31.834335008632422
16.0,93.22652195979946,4.88803096730909,0.9311581624913222,32.71568425675727
17.0,92.85437601746942,4.739667707506637,0.931385532883026,33.59835659111082
18.0,92.48618387791018,4.602618270718039,0.9316111854684184,34.482256887907546
19.0,92.12164477626281,4.476017287204215,0.9318352456054649,35.36729221188665
20.0,91.76046474894292,4.359079947439879,0.9320578375741426,36.253371658154826
21.0,91.4023560661116,4.251092573213654,0.9322790846429713,37.14040618400013
22.0,91.04703673055745,4.151414776798313,0.932499109131881,38.02830846013451
23.0,90.69422992336042,4.059460835784937,0.9327180324914254,38.916992705470655
24.0,90.34366350016985,3.9747006984681463,0.9329359753793979,39.80637453672224
25.0,89.99506940176417,3.896652182271248,0.933153057757942,40.696370791983924
26.0,89.64818323889583,3.8248800867404547,0.9333693989651305,41.58689940615967
27.0,89.30274389322466,3.758994489747296,0.9335851177891746,42.477879290746806
28.0,88.95849284604968,3.6986340486932714,0.9338003325925238,43.36923013206502
29.0,88.61517376408008,3.6434720666550473,0.9340151613923433,44.26087226637587
30.0,88.27253217239623,3.5932252090945926,0.9342297219358285,45.152726580036315
31.0,87.93031479429925,3.5476221717026672,0.9344441318280103,46.044714310634795
32.0,87.58826919357236,3.5064233030154024,0.934658508604036,46.93675693889768
33.0,87.2461433081554,3.469421178006195,0.9348729698498905,47.82877604483326
34.0,86.90368498970388,3.4364098267288674,0.9350876332706933,48.72069317117398
35.0,86.56064150195176,3.4072322877294,0.9353026168299801,49.612429667364005
36.0,86.21675914410729,3.381714485861006,0.9355180388065016,50.50390657742976
37.0,85.87178269354308,3.359739124102712,0.9357340179317325,51.39504446823067
38.0,85.52545511057667,3.3411587842783845,0.9359506734353868,52.285763340857464
39.0,85.17751661802873,3.3258931313122733,0.9361681252634232,53.175982347360545
40.0,84.82770546370806,3.31381455538733,0.9363864938652758,54.06562002792574
41.0,84.47575473638607,3.3048666101716515,0.9366059009408864,54.954593329650194
42.0,84.12139668183612,3.2989691055084975,0.936826468407143,55.84281893853266
43.0,83.76435620969215,3.296030829976224,0.9370483198646232,56.73021127874204
44.0,83.40435311228704,3.296059702777182,0.9372715800495383,57.61668319926204
45.0,83.0411061726036,3.299016021305581,0.9374963739336382,58.50214723716765
46.0,82.67432396329433,3.3048230285373688,0.9377228286668053,59.38651278545005
47.0,82.30370943411576,3.3135020656110683,0.9379510725466771,60.26968750853129
48.0,81.92896224726428,3.3250032226742308,0.9381812345541981,61.15157805718337
49.0,81.54976834068995,3.3393263436319525,0.9384134463085829,62.03208686130043
50.0,81.16581056605783,3.3565050172895936,0.9386478400108293,62.911115402187
51.0,80.77676293252071,3.3764989396763374,0.9388845494731475,63.78856243837157
52.0,80.38228509586834,3.3993560044954214,0.939123710957561,64.66432231655929
53.0,79.98203460900633,3.4251062463911017,0.9393654610974349,65.53828873554485
54.0,79.57565272271026,3.453740971925416,0.9396099390808795,66.41035037708104
55.0,79.16276920072973,3.4853430345900804,0.9398572857745057,67.28039239332894
56.0,78.74300836058528,3.5199362691429616,0.9401076428310816,68.14829825687232
57.0,78.3159739299579,3.55756576486888,0.940361154580958,69.01394510474213
58.0,77.88126318927364,3.598298036206866,0.9406179661457457,69.87720809023998
59.0,77.43845437230834,3.642175828018133,0.9408782247307899,70.737956499408
60.0,76.98711382699592,3.6892964831634827,0.9411420787442444,71.59605596167471
61.0,76.5267923863784,3.7397042003446166,0.9414096779609783,72.45136731982183
62.0,76.05702139948275,3.7935140011242177,0.9416811736545376,73.30374541727517
63.0,75.57732130475169,3.8507865874694076,0.9419567178257409,74.15304172522907
64.0,75.08718578252285,3.9116383127519883,0.9422364638339159,74.99909946318844
65.0,74.58609975263124,3.976165167561384,0.9425205654233183,75.84175914197081
66.0,74.073518235033,4.044470008226454,0.942809177024663,76.68085203156775
67.0,73.54888395172377,4.116691066261414,0.9431024532397297,77.51620560349242
68.0,73.01161257892926,4.192920069941189,0.9434005484763289,78.34763894578869
69.0,72.46109822206527,4.2733292631934825,0.9437036166982271,79.17496447583073
70.0,71.89671412447984,4.358025145021812,0.9440118110313389,79.99798812190765
71.0,71.31780516389773,4.447175569508834,0.9443252830748607,80.81650701296546
72.0,70.72369331230614,4.54090979592487,0.9446441826272919,81.63031113693584
73.0,70.11367175317787,4.639415553174715,0.9449686568346102,82.43918152484315
74.0,69.48700728542116,4.742836607308254,0.9452988496906132,83.24289095159872
75.0,68.84293592757491,4.851385920265558,0.9456349009986316,84.04120258209484
76.0,68.18066660733913,4.9652253227094505,0.9459769461569233,84.83387106506822
77.0,67.51628916298888,5.421358617866812,0.9463251144151874,85.62064055582833
78.0,66.84533343386133,6.05787409589706,0.9466795284286486,86.40124542463313
79.0,66.1604611253422,6.710229283958903,0.9470403026646537,87.17540925226274
80.0,65.46197200856851,7.379094939347713,0.9474075425642772,87.9428449756595
81.0,64.75033648872379,8.065163974985403,0.9477813427052483,88.70325401406292
82.0,64.02622729468615,8.769151322052798,0.9481617852713047,89.45632600741374
83.0,63.29054612301098,9.49179364388398,0.9485489388343887,90.20173883166957
84.0,62.544465463181034,10.23385062822319,0.9489428562329095,90.93915790331961
85.0,61.78949580886675,10.996105804242532,0.949343571477069,91.66823521312165
86.0,61.02749998817772,11.779364387078614,0.9497510995565409,92.38861030986496
87.0,60.260770260232455,12.584455487487531,0.9501654327808983,93.09990901883573
88.0,59.49213590058965,13.41223286304437,0.9505865362551094,93.80174233238276
89.0,58.72493895612397,14.263570880785698,0.9510143498531538,94.4937084729036
90.0,57.9632284725437,15.13936963292695,0.9514487793638049,95.17538978894409
91.0,57.211806842746725,16.04055069583247,0.9518896959005655,95.84635402274345
92.0,56.47626850429921,16.968057167384696,0.9523369345265911,96.50615464442771
93.0,55.76329991531334,17.92285636815563,0.9527902822623968,97.15432792805244
94.0,55.080590299304774,18.905933987003678,0.9532494833367002,97.79039606888449
95.0,54.437109171845236,19.918296442146218,0.9537142283131312,98.4138648847755
96.0,53.84324385554454,20.960969277523358,0.9541841497063742,99.0242240639015
97.0,53.31097366450022,22.034995292234115,0.9546588163792122,99.62094714229119
98.0,52.85400464483085,23.1414325444443,0.9551377294400824,100.2034918847751
99.0,52.488031899497535,24.281352989927836,0.9556203132703428,100.77129975118078
100.0,52.230932910140666,25.45584008012649,0.9561059093677896,101.32379620766015
101.0,52.10299422546905,26.665986195942182,0.9565937689522793,101.86039090586084
102.0,52.12717281001719,27.912889622826103,0.9570830443499446,102.38047785032154
103.0,52.688719458669546,28.83581060214099,0.9573546593353103,102.22839243775095
104.0,54.60011493788655,28.585232675797986,0.9568775310908855,99.69765325755169
105.0,56.676872595949135,28.33162952454622,0.9563437344465633,96.77496336657367
106.0,58.92997318684866,28.07499035738603,0.9557505877277334,93.42813032440817
107.0,61.37063909516769,27.815307815950312,0.9550962559146677,89.64054921866143
108.0,64.01026875426334,27.552578112517857,0.9543801097991957,85.42292469236742
109.0,66.86036028539101,27.286801228170525,0.9536030821275949,80.82573857161721
110.0,69.93242585380375,27.01798105504666,0.952767843232169,75.94568542030134
111.0,73.23789473855958,26.74612557502559,0.9518787005554258,70.91973645142802
112.0,76.78800673220854,26.47124700781662,0.9509411391544907,65.90398188810036
113.0,80.59369554971111,26.193361972958037,0.9499611186654857,61.0448368137418
114.0,84.66546199407979,25.91249165251314,0.9489443361017267,56.45510793540077
115.0,89.01323957069748,25.628661940691817,0.9478956672285394,52.2039914261115
116.0,93.64625443545782,25.341903580601745,0.9468188850287803,48.320439815044175
117.0,98.57287081334186,25.052252334986633,0.945716617116981,44.803485014439694
118.0,103.7986100384347,24.761563351217774,0.9445904773025748,41.63389654345665
119.0,109.21680233507965,24.59653996230007,0.9434411825021445,38.78290988343335
120.0,114.88043173005337,24.54172233335928,0.9422687456495896,36.218485432614294
121.0,120.78269998883711,24.650376275666208,0.9410726481394218,33.90899232481499
122.0,126.92468113047097,24.991634464477183,0.9398519511250072,31.82497145457501
123.0,133.32480312768448,25.65075769032616,0.9386053929890439,29.939910253565387
124.0,140.03023225788306,26.729686082453078,0.9373314595423672,28.230406566156915
125.0,147.13080297156776,28.34709066098349,0.93602843929952,26.676034338838726
126.0,154.77554467371687,30.637900128629337,0.9346944616015729,25.259064335521487
127.0,163.19494976440828,33.74871461440611,0.9333275259238636,23.964143752077444
128.0,172.9872334805539,37.52077812366505,0.9319255210026036,22.777974648780102
129.0,184.6952124416303,41.80209620096142,0.9304862427573529,21.68902814564918
130.0,198.71941549652226,46.60114605038496,0.9290074062073539,20.687284877105956
131.0,215.501345362121,51.91962075297677,0.9274866539396477,19.76401176029235
132.0,235.5188007277902,57.752457480161766,0.9259215646410225,18.911573198198084
133.0,259.2797695776949,64.08799235895177,0.9243096600554923,18.123270629001777
134.0,287.31495533253604,70.90822726593193,0.922648411403734,17.393207214166186
135.0,320.1679379213257,78.19035225076914,0.9209352455499225,16.716173816926553
136.0,358.34151478184657,85.96405959806523,0.9191675509767303,16.08755302421003
137.0,402.31205695417873,94.341221197723,0.9173426859176358,15.503238592065797
138.0,452.5640243944542,103.53577704370244,0.9154579842914605,14.959566689669012
139.0,509.6245441417115,113.92694899949294,0.9135107619526779,14.453257380492152
140.0,574.1590890617067,126.11187906030496,0.9114983268664933,13.981366175126047
141.0,647.128974775787,140.94850620509408,0.9094179871325486,13.541241611471316
142.0,730.190214355329,159.33923705157557,0.9072670613765563,13.130489719027075
143.0,825.8700411724224,182.0128523027455,0.9050428886658993,12.74694295129546
144.0,937.3644504239383,209.6950772051468,0.9027428403488824,12.388633834140247
145.0,1068.557298299985,243.09977468712293,0.9003643318387454,12.053772062195176
146.0,1224.0244280426082,282.90362851312784,0.8979048360015788,11.740724702929043
147.0,1409.0018583641288,329.7246936383285,0.8953618964988695,11.447998949049923
148.0,1629.272597280012,384.1677690861068,0.8927331429979526,11.174227236378073
149.0,1891.0290435053719,446.96713598248243,0.8900163060503165,10.918154020579289
150.0,2200.8057719757617,519.1984282763893,0.8872092334703967,10.678624414529702
151.0,2565.5298310845105,602.6063302870084,0.8843099072030163,10.454574036062512
152.0,2992.843976525823,699.9915830782642,0.8813164602399981,10.245020112951213
153.0,3492.006598269942,815.2608412236267,0.8782271948304179,10.049053677280726
154.0,4074.941574075695,953.1755584965205,0.8750406002742226,9.865832536278901
155.0,4756.960109460298,1119.2447933396818,0.8717553714515076,9.694575139885162
156.0,5557.345931711792,1319.5881023834907,0.8683704275512006,9.53455505368168
157.0,6499.777887587643,1560.7543536550445,0.8648849306866851,9.385096077815406
158.0,7612.461521815341,1849.5951325312433,0.8612983041342044,9.24556782280313
159.0,8927.936513099188,2193.3569116468598,0.8576102508224881,9.115381802712102
160.0,10482.704986876923,2600.1133071069294,0.8538207707923997,8.993987893329178
161.0,12316.896205443389,3079.661248011121,0.8499301786668082,8.880871155769784
162.0,14474.569909455946,3644.692976159202,0.8459391196319428,8.775548973642923
163.0,17005.12321542128,4311.629986298643,0.8418485852348776,8.677568475790764
164.0,19965.45601589449,5101.071106725034,0.8376599271897931,8.58650418160632
165.0,23422.41221557634,6037.949127788249,0.8333748708388398,8.501955908396797
166.0,27455.19800500396,7151.353219197194,0.8289955261786442,8.423546825014213
167.0,32157.423894774107,8474.132978240577,0.82452439798214,8.350921728358102
168.0,37638.30225797506,10042.56520236761,0.8199643937280743,8.283745442546477
169.0,44022.990498923755,11896.49687563722,0.8153188295418293,8.22170137701206
170.0,51452.10430060921,14080.393958085713,0.810591434498958,8.164490212763075
171.0,60081.38175105764,16645.267496493336,0.80578635194985,8.111828686815667
172.0,70082.35409783956,19650.935955423723,0.8009081394929636,8.06344850706426
173.0,81644.42820919435,23168.11939173068,0.7959617656362368,8.019095330573622
174.0,94978.36735336474,27280.05867406078,0.7909526047283508,7.978527853580179
175.0,110320.49674737157,32083.386992581443,0.7858864290692951,7.941516960499721
176.0,127937.31918890652,37688.25736268355,0.7807693984843463,7.9078449498545
177.0,148129.28969619097,44218.086393675854,0.7756080478181414,7.877304827926091
178.0,171233.31493335214,51809.54246824878,0.7704092715469754,7.8496996503589305
179.0,197624.04727979176,60613.50057794056,0.7651803063131268,7.824841926519025
180.0,227714.1691507981,70797.2105083478,0.7599287112499173,7.802553069810142
181.0,261955.19061430928,82547.39518067341,0.7546623459036458,7.7826628878763735
182.0,300839.2195154272,96073.82158686042,0.7493893464980732,7.7650091205620315
183.0,344902.761759154,111612.68162559524,0.744118100132741,7.749437010676865
184.0,394732.0993411932,129429.29480122718,0.7388572174806821,7.7357989116101065
185.0,450969.98989490076,149819.8696768374,0.7336155040236683,7.723953926044939
186.0,514322.84250964335,173112.54062754655,0.7284019300726645,7.713767573969982
187.0,585567.2516797838,199668.3183292959,0.7232255998236317,7.705111487863643
188.0,665555.9657804323,229882.66301000657,0.7180957196427368,7.697863132332661
189.0,755223.4229028923,264188.1841472138,0.7130215658535065,7.691905547643542
190.0,855591.469819189,303058.59859296185,0.7080124522613253,7.6871271138639745
191.0,967775.5711485901,347013.7562722405,0.7030776976672345,7.6834213356532235
192.0,1092993.8009814909,396625.2262540412,0.6982265935325428,7.6806866459332275
193.0,1232578.247267263,452522.4042751382,0.6934685652193869,7.678819945046896
194.0,1388068.8804055937,515298.0744597441,0.6887776911217129,7.678857636455234
195.0,1560979.2178783198,585731.3909660844,0.6841802855627458,7.680117220740913
196.0,1753005.2664507984,664716.2913671281,0.6797092535520066,7.681742455508194
197.0,1966094.6884669825,753172.2050686427,0.675374829736465,7.683617448433862
198.0,2202406.171688601,852107.6603984233,0.671186821958002,7.6856383320118935
199.0,2464333.5742511055,962629.932239241,0.6671545807333548,7.687712690408024
200.0,2754538.2496296256,1085956.3571590122,0.6632869728896649,7.689758995096895
201.0,3075980.903790377,1223429.103090742,0.6595926002594172,7.69169894859576
202.0,3431726.052885938,1376854.4254694784,0.6561339680788316,7.691871112039822
203.0,3825882.6781229908,1547549.8353134114,0.6528631205827216,7.691871112039822
204.0,4262603.551548474,1737273.6198907916,0.6497792114951507,7.691871112039822
205.0,4746501.658748939,1948010.2395894232,0.6468868989459509,7.691871112039822
206.0,5282759.789556482,2181961.352886415,0.6441905298955081,7.691871112039822
207.0,5877218.839271639,2441571.4367711893,0.6416941381702429,7.691871112039822
208.0,6536457.381412981,2729560.459789497,0.6394014405566394,7.691871112039822
209.0,7267916.216428964,3048962.484545997,0.637315834889714,7.691871112039822
210.0,8079948.2076934,3403249.7343789316,0.6354403992837215,7.691871112039822
211.0,8982131.113713792,3796236.0631715674,0.6337778895160714,7.691871112039822
212.0,9985386.073831024,4232145.311018912,0.6323307399590774,7.691871112039822
213.0,11102098.346607463,4715719.645599324,0.6311010621208916,7.691871112039822
214.0,12346375.272287292,5252292.326473561,0.6300906445542824,7.691871112039822
215.0,13734288.99242595,5847870.386271679,0.6293009537668105,7.691871112039822
216.0,15284185.10035078,6509236.16296094,0.6287331326869635,7.691871112039822
217.0,17017066.39737547,7244056.404552284,0.6283880023791848,7.691871112039822
218.0,18956951.12859617,8061037.556969055,0.6282660612289623,7.691871112039822
219.0,21131436.046448316,8970071.05970498,0.6283674849205091,7.691871112039822
220.0,23572260.99445458,9982382.685152546,0.6286921275473795,7.691871112039822
221.0,26315975.25090701,11110744.51945134,0.6292395199457465,7.691871112039822
222.0,29404778.273378182,12369704.72369181,0.630008871125649,7.691871112039822
223.0,32887365.03159577,13775870.086167226,0.6309990674414404,7.691871112039822
224.0,36820115.00618064,15348233.060022866,0.6322086721422879,7.691871112039822
225.0,41268334.016434245,17108540.37430131,0.6336359265306687,7.691871112039822
226.0,46307758.782661766,19081759.71686468,0.6352787483377917,7.691871112039822
227.0,52026475.407215185,21296591.644589856,0.6371347332223274,7.691871112039822
228.0,58526909.820279896,23786085.73368174,0.6392011546904719,7.691871112039822
229.0,65928553.61515983,26588367.513268296,0.6414749641699314,7.691871112039822
230.0,74370881.394653,29747461.44335807,0.6439527932977254,7.691871112039822
231.0,84016962.2448095,33314310.569241483,0.6466309542854671,7.691871112039822
232.0,95057875.50552289,37347938.92132643,0.6495054426390855,7.691871112039822
233.0,107717688.59507379,41916853.76187049,0.652571939651813,7.691871112039822
234.0,122259596.38266389,47100695.755070396,0.6558258159400489,7.691871112039822
235.0,138993143.36677015,52992260.86795206,0.6592623926074996,7.691864233060764
236.0,158270625.9752897,59716990.261621244,0.6629432907769178,7.690052467479625
237.0,180540877.58751944,67391333.96642123,0.6668037454141326,7.688008083428582
238.0,206316603.65821213,76162897.1956943,0.6708304109922887,7.68592876840804
239.0,236203088.90658522,86205516.33696218,0.6750140799198487,7.683895800609711
240.0,270917354.7725929,97722695.0948753,0.6793449587364215,7.682001362613872
241.0,311309632.5926566,110952923.05256698,0.6838126930206881,7.680349008572484
242.0,358389028.04347193,126175933.7675979,0.6884063983465686,7.679054111470451
243.0,413367158.4573964,143705450.53650412,0.69309293003025,7.678859153557023
244.0,477666834.42285115,163905136.7810523,0.6978349025081837,7.6806507476860135
245.0,552943322.9327737,187255574.92498192,0.7026659569601735,7.683303233902118
246.0,641207928.9382231,214290631.85980496,0.7075762496764008,7.686909544233932
247.0,744856705.3607867,245639618.41448492,0.7125558785471721,7.691566350508603
248.0,866744987.7749804,282044651.7377442,0.7175949221449391,7.697374074175589
249.0,1010277458.1788485,324381315.2068021,0.7226834791548717,7.704436901782475
250.0,1179513640.3782997,373683051.6803951,0.7278117080129832,7.712862797696702
251.0,1379298007.6196783,431165361.0330622,0.732969866196661,7.722763512738662
