Time,J,A,S,tau
0.0,100.0,10.0,0.9990070941450652,18.200707674304457
1.0,184.3880427090567,69.95691231045954,0.9966170951779793,17.84587975269794
2.0,477.510628667288,126.0888955921994,0.99414129662908,17.488030227051212
3.0,961.9250465744482,178.58969270973603,0.9915800229674789,17.12726278393021
4.0,1621.3302130101122,227.64630407747046,0.9889337518531041,16.763674092084834
5.0,2440.512545954867,273.43871909676585,0.9862032144419892,16.39736117427893
6.0,3405.29116966551,316.1400147259572,0.9833894012859471,16.0284214052206
7.0,4502.466054747238,355.9164485802055,0.9804935670022341,15.656952508642824
8.0,5719.766901316399,392.92757068027163,0.9775172332078933,15.283052553003266
9.0,7045.803506645487,427.3263622398775,0.9744621901435286,14.906819946473373
10.0,8470.019672666172,459.25934726518994,0.9713304965921815,14.528353430818045
11.0,9982.647601068065,488.8667460152584,0.9681244783575351,14.147752074560122
12.0,11574.660177294987,516.282688596568,0.9648467241363394,13.765115264103288
13.0,13237.739021650523,541.6352167862849,0.9615000815412127,13.380542696209623
14.0,14948.840836419764,604.9687348289825,0.9597857288080806,13.257461773357555
15.0,16951.225054542083,856.2846861701104,0.9587185439751476,13.234599229809008
16.0,19851.328352348304,1279.5994169345304,0.9576704289119108,13.212795462891318
17.0,24166.11896678319,1846.4957990016974,0.9566444090961634,13.192041969752879
18.0,30315.55520988169,2531.677248047093,0.9556435071100724,13.172330694573454
19.0,38635.23293062674,3312.709389240722,0.9546707273267359,13.153654010984365
20.0,49387.72818358085,4169.776807427638,0.9537290403734948,13.13600470551819
21.0,62772.762037456014,5085.454216644075,0.95282136749345,13.11937596206171
22.0,78936.25179153263,6044.492918051109,0.9519505648922374,13.103761347402312
23.0,97978.41833839525,7033.619492083092,0.951119408275424,13.08915479744977
24.0,119960.93253694946,8041.350228556997,0.9503305775663412,13.075550604672303
25.0,144913.2660759884,9057.817909015597,0.9495866419781356,13.062943406344054
26.0,172838.33052288927,10074.608956242908,0.9488900459238416,13.051328172854275
27.0,203705.25959638166,11103.414456207998,0.9482430943188703,13.040700199106901
28.0,237603.34665337697,12503.319745997234,0.947647940961774,13.031055092720878
29.0,275988.7571927031,14817.534678775422,0.9471065751100688,13.02238876733113
30.0,321912.32230779243,18454.01514916494,0.9466208105072931,13.014697433747635
31.0,379597.77292747406,23701.19648812162,0.9461922749710396,13.007977592836898
32.0,454089.3544983971,30749.12208817189,0.9458224011207262,13.002226028891743
33.0,550968.1603577241,39707.66317227154,0.9455124182187095,12.99743980371166
34.0,676126.0828886044,50622.187418957736,0.9452633452445883,12.99361625127907
35.0,835588.3176235637,63486.95483483343,0.9450759852175438,12.990752973066556
36.0,1035376.8534987546,78256.50679085961,0.9449509208365633,12.988847833939035
37.0,1281407.7283571921,94855.29313927714,0.9448885114223686,12.987898958676654
38.0,1579416.7364951698,113185.75449526207,0.944888891247615,12.987904729054568
39.0,1934906.9827075168,133135.08592244735,0.9449519692300546,12.988863781429483
40.0,2353111.7261709054,154587.27153725905,0.9450774299583773,12.990775005009601
41.0,2838990.486767613,177885.33232529325,0.9452647359883068,12.993637540592083
42.0,3399406.17152668,204789.37499875965,0.9455131317958826,12.997450779797509
43.0,4047765.5482929074,238279.93210409227,0.9458216485783407,13.002214364954149
44.0,4807710.775301012,282102.06461832253,0.9461891105746484,13.007928189406913
45.0,5715516.814785709,340412.83215927065,0.9466141424870441,13.014592398436092
46.0,6821492.185782597,417514.83704117103,0.947095178062214,13.022207390646686
47.0,8190638.144131324,517659.67710887355,0.9476304697425161,13.030773819875403
48.0,9902767.542093778,644907.6516063636,0.9482180992579512,13.040292597671584
49.0,12052230.481892852,803032.4635928588,0.9488559891262367,13.050764896271467
50.0,14747380.99299602,995461.3285331405,0.9495419149754385,13.062192152067844
51.0,18109885.627120037,1225242.5528088922,0.9502735185363907,13.074576069662522
52.0,22273923.01543162,1495034.6073427906,0.9510483212310683,13.087918626427557
53.0,27385373.63086149,1807110.319035531,0.9518637382769849,13.102222077596196
54.0,33600930.77415478,2163683.774295878,0.9527170931542616,13.117488961869435
55.0,41089303.277021244,2569412.760053492,0.9536056323290582,13.133722107650643
56.0,50042978.10413165,3035157.956445937,0.9545265401606304,13.150924639764511
57.0,60702805.10854479,3580517.8096070373,0.9554769538423967,13.169099986665216
58.0,73391452.45928113,4235151.721103846,0.9564539782556174,13.188251888438554
59.0,88552177.62312095,5039210.089566941,0.9574547006844482,13.208384405110827
60.0,106790206.96270901,6043157.860387938,0.9584762052280094,13.229501925705886
61.0,128914912.98569077,7307184.33821407,0.959515586845225,13.251609177841175
62.0,155981509.54997322,8900356.162753688,0.9605699649282711,13.274711237917414
63.0,189331370.8353561,10899631.455887984,0.961636496317117,13.298813541915006
64.0,230630448.46945873,13388820.248977005,0.9627123876753712,13.323921896801929
65.0,281905476.3752117,16457552.904352807,0.963794907154993,13.350042492559448
66.0,345577849.8864633,20200298.99364791,0.9648813952848654,13.377181914830363
67.0,424495150.6258157,24715493.095304105,0.9659692750284785,13.405347158198625
68.0,521960713.0944205,30106314.861971166,0.9670560609644875,13.43454564010449
69.0,641772065.8211198,36489036.70952681,0.9681393675533962,13.464785215399264
70.0,788302998.301163,44011035.00085858,0.9692169164597755,13.496074191532497
71.0,966666714.3668478,52875012.87206604,0.9702865429305269,13.52842134442897
72.0,1182986056.7951055,63366134.9204734,0.9713462011813551,13.561835934928428
73.0,1444785186.1147275,75879807.06037377,0.9723939688362869,13.596327725934465
74.0,1761509720.2577746,90948564.65576544,0.9734280504048066,13.631907000177995
75.0,2145176660.7408907,109267093.3818313,0.9744467798230786,13.668584578624179
76.0,2611151431.1287117,131714799.39121057,0.9754486220780609,13.70637183948815
77.0,3179046061.639821,159375668.2877594,0.9764321739525217,13.745280737861634
78.0,3873731091.482977,193555345.15437174,0.9773961639301829,13.785323825939564
79.0,4726452181.938031,235795508.35435838,0.9783394513049893,13.826514273823378
80.0,5776041532.480213,287885700.52187556,0.9792610245444039,13.868865890878313
81.0,7070213544.317796,351872854.3398004,0.9801599989606475,13.912393147617706
82.0,8666934148.43443,430070778.52638185,0.9810356137472892,13.957111198083574
83.0,10635871792.558207,525083977.9395023,0.9818872284423452,14.00303590269713
84.0,13060021903.084564,639871756.7325413,0.9827143188737825,14.050183851508248
85.0,16037712542.168543,777873062.1867497,0.9835164726540552,14.098572387811245
86.0,19685290844.060333,943202687.0213583,0.984293384286399,14.148219632080751
87.0,24140839355.089695,1140922150.5786045,0.985044849943571,14.199144506159548
88.0,29569292242.278126,1377383611.2102134,0.9857707619797572,14.251366757630183
89.0,36169319360.60301,1660641849.6439245,0.9864711032345322,14.304906984294252
90.0,44182326421.59101,2000927240.1589308,0.9871459411855908,14.359786658676219
91.0,53903886267.79809,2411171464.348525,0.9877954220050876,14.416028152472444
92.0,65697877024.25077,2907576848.987594,0.988419764567124,14.473654760809678
93.0,80013539915.14212,3510220319.725973,0.9890192544564659,14.532690726217119
94.0,97405622385.19301,4243682905.0836525,0.9895942380227655,14.593161262205863
95.0,118557704946.185,5137695921.17961,0.9901451165193406,14.655092576315088
96.0,144308743076.70328,6227795409.523612,0.9906723403626093,14.718511892484255
97.0,175682788131.5105,7555981465.762248,0.9911764035442348,14.78344747259958
98.0,213921830543.14157,9171411014.653503,0.9916578382240763,14.849928637052946
99.0,260521892498.19263,11131214751.392178,0.9921172095284232,14.917985784155093
100.0,317273011210.01184,13501580321.262255,0.99255511057248,14.987650408181072
101.0,386304416188.7702,16359270742.38906,0.9929721577249069,15.058955115863322
102.0,470137065964.1075,19793751818.63761,0.9933689861276553,15.131933641147734
103.0,571746499260.9044,23910092069.991543,0.9937462454803158,15.206620857981058
104.0,694639675123.8925,28832778917.821095,0.9941045960955621,15.283052790901346
105.0,842950055799.1083,34710567677.30241,0.9944447052293452,15.361266623192463
106.0,1021555573139.4292,41722448134.4742,0.9947672436868157,15.441300702354491
107.0,1236224275538.6123,50084779994.315994,0.9950728827025054,15.523194542647818
108.0,1493792498916.3333,60059609148.72939,0.9953622910910944,15.606988824384574
109.0,1802379862310.0298,71964155682.36595,0.9956361326631773,15.69272538983271
110.0,2171644847804.1294,86181404131.20674,0.9958950638998345,15.78044723522099
111.0,2613084027630.4663,103171704957.74231,0.9961397318779021,15.870198498639793
112.0,3140377904597.1904,123485328720.38264,0.996370772429276,15.962024444131599
113.0,3769783262811.429,147775713764.9373,0.9965888085357774,16.055971440424436
114.0,4520570578806.872,176813380659.3618,0.9967944489407936,16.152086935057355
115.0,5415507784183.902,211500555674.29773,0.9969882869590785,16.250419423707108
116.0,6481387761100.999,252886604051.5158,0.9971708994867389,16.351018413453865
117.0,7749595494421.757,302184899635.6213,0.9973428461922768,16.453934380408263
118.0,9256720623562.654,360792006824.70325,0.9975046688664186,16.559218721750668
119.0,11045221110874.398,430310026397.8159,0.9976568909323011,16.666923701103045
120.0,13164140843665.043,512573342250.5589,0.9978000171023104,16.77710238729966
121.0,15669894568119.812,609681412653.1583,0.9979345331495508,16.88980858709421
122.0,18627154269640.7,724038071209.0621,0.9980609058156699,17.005096770077902
123.0,22109827986494.105,858399609128.4615,0.9981795828064335,17.123021987340653
124.0,26202189446614.523,1015931490850.2162,0.998290992898178,17.243639782266403
125.0,31000149175817.03,1200275653923.7336,0.9983955461133568,17.367006094526484
126.0,36612715361473.16,1415627648512.753,0.9984936339854199,17.493177156288475
127.0,43163664561561.59,1666825096060.8706,0.9985856298683378,17.622209381283973
128.0,50793412278347.54,1959445568429.7659,0.998671889325644,17.754159246220148
129.0,59661145267019.25,2299914304333.181,0.9987527505508221,17.889083165011396
130.0,69947167251540.12,2695621253339.893,0.9988285348226249,18.02703735552068
131.0,81855462895465.56,3155043689860.226,0.9988995470127907,18.16807769944599
132.0,95616515420383.08,3687874559735.6416,0.9989660761039415,18.312259595134556
133.0,111490280483472.1,4305155004765.5225,0.9990283957249719,18.45963780337657
134.0,129769302586824.62,5019406652557.744,0.9990867647157546,18.610266287440616
135.0,150781958804247.28,5844764715451.06,0.9991414276907478,18.764198046720853
136.0,174895794334311.75,6797109975059.269,0.9991926156087241,18.92148494464356
137.0,202520828420444.44,7894200636168.377,0.9992405463446199,19.08217753134707
138.0,234112853573695.84,9155803686923.164,0.9992854252621262,19.246324861997604
139.0,270176698781095.1,10603828029094.24,0.9993274457805887,19.413974311089326
140.0,311269349701690.3,12262464642852.84,0.9993667899286626,19.585171382289772
141.0,358003058412818.06,14158331837417.02,0.9994036288957755,19.759959516577982
142.0,411048321431864.94,16320633510034.867,0.9994381235667774,19.93837989738383
143.0,471136818536842.9,18781330833200.582,0.9994704250461353,20.12047125488509
144.0,539064176663251.2,21575335684310.137,0.99950067516155,20.306269667856576
145.0,615692915023752.4,24740718581720.703,0.9995290069609251,20.495808368063276
146.0,701955293508580.6,28318942780286.86,0.9995555451860061,20.689117543639462
147.0,798856303645662.2,32355119904341.26,0.9995804067308567,20.886224144544038
148.0,907476636666277.1,36898289270306.09,0.9996037010828634,21.08715169056625
149.0,1028975758210805.6,42001719871862.984,0.9996255307445266,21.291920081848385
150.0,1164595554122577.8,47723228663820.41,0.9996459916357658,21.500545411621875
151.0,1315663752718088.0,54125511666091.914,0.9996651734856051,21.713039788422506
152.0,1483597749041158.2,61276485783423.52,0.9996831602010534,21.92941116149001
153.0,1669907743438775.0,69249655001052.67,0.9997000302127675,22.149663147558073
154.0,1876202001088419.8,78124447227624.4,0.9997158568092134,22.373794866334887
155.0,2104190172109187.8,87986550068350.67,0.9997307084645614,22.60180079666883
156.0,2355687494362345.0,98928269166309.6,0.9997446491231748,22.833670612871526
157.0,2632620165819221.0,111048816170675.66,0.9997577384928823,23.069389052541904
158.0,2937027395203228.0,124454620555673.4,0.999770032316688,23.308935792006857
159.0,3271068354154645.5,139259594501738.64,0.9997815826141118,23.55228530464727
160.0,3637023806115671.0,155585361010052.72,0.9997924379379071,23.799406774910572
161.0,4037302655635440.5,173561490745990.78,0.999802643580639,24.05026396267077
162.0,4474442840586915.0,193325675795395.38,0.999812241805029,24.30481514131208
163.0,4951118427245094.0,215023909682737.25,0.9998212720276848,24.563012981220684
164.0,5470139754893916.0,238810649240310.66,0.999829771017115,24.824804495819386
165.0,6034461138340489.0,264848901976267.7,0.9998377730693875,25.090130973986057
166.0,6647181203050066.0,293310465464456.44,0.9998453101617856,25.358927894210794
167.0,7311546678473700.0,324375988531444.1,0.9998524121247148,25.63112491970301
168.0,8030959936653176.0,358235142059529.75,0.9998591067745435,25.906645824168802
169.0,8808979230167712.0,395086867194827.8,0.9998654200488865,26.18540845580909
170.0,9649325145860838.0,435139508584689.9,0.9998713761427505,26.46732474125189
171.0,1.0555885831139478e+16,478611117401478.94,0.9998769976201832,26.752300644411772
172.0,1.1532723236541904e+16,525729778056987.1,0.9998823055234707,27.04023614426172
173.0,1.258407876314674e+16,576733969104485.9,0.9998873194802516,27.331025240634112
174.0,1.371438266467866e+16,631872961868656.0,0.9998920578014081,27.624555957649612
175.0,1.4928260888322764e+16,691407395614047.1,0.9998965375678056,27.920710330456394
176.0,1.6230547846398668e+16,755609818377802.8,0.9999007747162706,28.219364417481817
177.0,1.7626297729177432e+16,824765403346124.8,0.999904784116152,28.5203882973342
178.0,1.91207967990805e+16,899172734409933.1,0.9999085796431763,28.823646081161428
179.0,2.071957975507572e+16,979144643778603.4,0.9999121742484635,29.128995928203064
180.0,2.2428446230995252e+16,1065009248355465.0,0.9999155800199149,29.43629004212757
181.0,2.4253479096062344e+16,1157111004103813.0,0.9999188082432326,29.745374694943866
182.0,2.62010682054e+16,1255811912734661.5,0.9999218694554161,30.056090223633362
183.0,2.8277933430639656e+16,1361492860724260.5,0.9999247734961403,30.36827103805857
184.0,3.0491151293381532e+16,1474555072644766.5,0.9999275295552424,30.68174562339838
185.0,3.284818440630287e+16,1595421700568723.8,0.9999301462168886,30.996336539201177
186.0,3.5356915875168212e+16,1724539487862413.8,0.9999326315012171,31.31186042023807
187.0,3.8025679398087224e+16,1862380844799224.5,0.9999349929006923,31.628127948845812
188.0,4.086330373007735e+16,2009445694542710.5,0.9999372374175817,31.944943859594115
189.0,4.387915416396025e+16,2166263741164219.0,0.9999393715961823,32.262106911765116
190.0,4.7083179372054136e+16,2333396863979597.5,0.9999414015535253,32.57940986394657
191.0,5.048596279246997e+16,2511441695589580.0,0.9999433330078625,32.89663944183963
192.0,5.40987787613479e+16,2701032412390559.0,0.999945171305129,33.21357629959873
193.0,5.79336538075795e+16,2902843751461412.5,0.9999469214435232,33.52999497453756
194.0,6.200343356851967e+16,3117594272826494.0,0.9999485880963332,33.84566383512059
195.0,6.632185584094991e+16,3346049885468717.0,0.9999501756331335,34.1603450222523
196.0,7.090363032584025e+16,3589027668627038.5,0.9999516881394601,34.47379438397518
197.0,7.576452572306978e+16,3847400018195673.0,0.9999531294350741,34.78576140379514
198.0,8.092146489295987e+16,4122099128302983.0,0.9999545030909066,35.09598912296854
199.0,8.639262886321987e+16,4414121860374692.0,0.9999558124447794,35.4042140572103
200.0,9.219757057880448e+16,4724535032335446.0,0.9999570606159812,35.71016610841843
201.0,9.835733939160155e+16,5054481166873498.0,0.9999582505187816,36.01356847215807
202.0,1.048946173890246e+17,5405184747553853.0,0.9999593848749506,36.314137541808726
203.0,1.1183386880747019e+17,5777959052377503.0,0.9999604662253528,36.61158281045424
204.0,1.1920150394014918e+17,6174213581125578.0,0.999961496940678,36.905606771786445
205.0,1.2702605904952904e+17,6595462174283630.0,0.9999624792313625,37.195904821503795
206.0,1.3533839402951618e+17,7043331885971518.0,0.9999634151567568,37.48216516091558
207.0,1.441719097528327e+17,7519572690671213.0,0.9999643066335857,37.76406870471456
208.0,1.5356278727338544e+17,8026068100954289.0,0.9999651554437458,38.04128899515661
209.0,1.635502512746782e+17,8564846841212488.0,0.999965963241481,38.313492125187636
210.0,1.741768605552715e+17,9138095632035626.0,0.9999667315599735,38.58033667338884
211.0,1.854888285429817e+17,9748173234977886.0,0.9999674618173838,38.841473653971704
212.0,1.975363772662921e+17,1.0397625902263424e+16,0.999968155322371,39.09654648544726
213.0,2.1037412863946835e+17,1.108920437855702e+16,0.999968813279121,39.345190982021556
214.0,2.2406153736195798e+17,1.18258826304093e+16,0.9999694367919081,39.58703537223173
215.0,2.3866337028047203e+17,1.2610878561221344e+16,0.9999700268692125,39.82170034983688
216.0,2.542502377784559e+17,1.3447676825328174e+16,0.9999705844274136,40.048799162513966
217.0,2.708991832728458e+17,1.4340054075152896e+16,0.999971110294077,40.26793774448192
218.0,2.8869433781753075e+17,1.5292106910979268e+16,0.9999716052108506,40.47871489978495
219.0,3.0772764769359277e+17,1.6308282858118352e+16,0.9999720698359822,40.68072254360556
220.0,3.280996839167576e+17,1.7393414718466948e+16,0.9999725047464707,40.8735460096449
221.0,3.4992054368491104e+17,1.8552758751424908e+16,0.9999729104398583,41.056764432295076
222.0,3.7331085528473786e+17,1.979203717241012e+16,0.9999732873356717,41.22995121302677
223.0,3.9840289946787437e+17,2.111748541126095e+16,0.9999736357765154,41.39267458111149
224.0,4.253418619875204e+17,2.2535904823639884e+16,0.9999739560288217,41.54449825947667
225.0,4.542872341105891e+17,2.4054721540180424e+16,0.9999742482832541,41.68498224713146
226.0,4.854143802575173e+17,2.56820522368011e+16,0.9999745126547679,41.81368373017636
227.0,5.1891629458287245e+17,2.7426777746359732e+16,0.9999747491823181,41.93015813388915
228.0,5.5500557145358016e+17,2.929862551178585e+16,0.9999749578282134,42.033960328725726
229.0,5.939166181920598e+17,3.130826219416523e+16,0.9999751384771052,42.12464600324121
230.0,6.359081430061477e+17,3.3467397643562816e+16,0.9999752909346019,42.201773216874486
231.0,6.812659553209592e+17,3.57889018583599e+16,0.9999754149254959,42.264904145185454
232.0,7.303061214875758e+17,3.828693672665815e+16,0.9999755100915871,42.31360702942462
233.0,7.83378533152632e+17,4.097710501027153e+16,0.9999755759890611,42.34745834354306
234.0,8.408708711105016e+17,4.387661718799645e+16,0.9999756120854195,42.36604515864016
235.0,9.032132879954504e+17,4.700448156212948e+16,0.9999756177561984,42.36896782354625
236.0,9.708834502882282e+17,5.038171994756695e+16,0.9999755922806675,42.35584276739225
237.0,1.0444123993220175e+18,5.403160985264373e+16,0.9999755348374502,42.32630560118841
238.0,1.1243911775581554e+18,5.797996029656925e+16,0.9999754444994471,42.28001443571857
239.0,1.211478359612576e+18,6.22554251032318e+16,0.9999753202281653,42.21665342002042
240.0,1.3064086269205386e+18,6.6889858970141144e+16,0.9999751608674232,42.13593648518046
241.0,1.4100026127712788e+18,7.191872547160084e+16,0.9999749651362904,42.03761129649877
242.0,1.5231780735881682e+18,7.738156191794968e+16,0.9999747316212753,41.92146334109736
243.0,1.6469625924535283e+18,8.332250436106394e+16,0.9999744587679258,41.7873200941128
244.0,1.7825081624983695e+18,8.979088987439251e+16,0.9999741448714791,41.63505526271323
