Time,J,A,S,tau
0.0,100.0,10.0,0.6752544739567641,7.442383357051076
1.0,124.92270053190892,24.62552321612334,0.6777106107779955,7.63614148174185
2.0,184.60424802159443,38.419507860439126,0.6801929890600857,7.832754905174118
3.0,275.504658042549,51.43569013615821,0.6827008281072542,8.032147036583552
4.0,394.3842453208213,63.723870185636315,0.6852335337678305,8.234258621231698
5.0,538.2790318701944,75.33050898579772,0.6877905298389412,8.439029592437342
6.0,704.4782785771162,86.29896560163331,0.6903712580038246,8.646399090846556
7.0,890.5040703329644,96.66971409199839,0.6929751777583677,8.856305483449628
8.0,1094.0921161920444,106.48054976721485,0.695601766292831,9.068686383732835
9.0,1313.1744454300533,115.76677612151178,0.698250518371009,9.283478671136805
10.0,1543.248878147245,130.76513770437234,0.6993464691350227,9.380781282213842
11.0,1804.8355409454025,167.83783652110242,0.6995526971510794,9.410520018039925
12.0,2150.0454360517892,225.33530614211608,0.6997518296145826,9.439733103932946
13.0,2623.555258861814,300.8201275423792,0.6999439594484569,9.468400220487444
14.0,3262.3655438593732,392.08185034419756,0.7001291803306143,9.49650112497483
15.0,4096.704781273797,497.11736770945106,0.7003075864478217,9.52401567754645
16.0,5150.84077031265,614.1129472582038,0.700479272249338,9.550923867981512
17.0,6443.80690525901,741.4277852875589,0.7006443322007303,9.577205842883698
18.0,7990.051134872683,877.5790282073876,0.7008028605382182,9.602841933435293
19.0,9800.01809521093,1021.2231939198277,0.7009549510232528,9.627812683438918
20.0,11877.734729851205,1179.523591912188,0.7011006966997907,9.652098877779164
21.0,14251.001488351445,1383.7599430666492,0.7012401896550197,9.675681571008516
22.0,17022.9027017297,1664.3914773787365,0.7013735207773816,9.698542116390339
23.0,20362.180884335856,2046.3121510598075,0.7015007795210721,9.720662194950993
24.0,24487.706650085696,2549.5335488608057,0.7016220536724763,9.742023844694085
25.0,29655.264824040663,3189.7954091474057,0.7017374291209254,9.762609489722786
26.0,36146.36611604568,3979.1090811323475,0.7018469896324259,9.782401969509538
27.0,44258.78196331311,4926.244465315224,0.7019508166286407,9.801384567853507
28.0,54298.66143381635,6037.162745520574,0.7020489889704372,9.819541041769252
29.0,66573.94982904513,7315.403672900633,0.7021415827465204,9.836855650109143
30.0,81386.41363133676,8768.765593389624,0.7022286710686705,9.853313181734027
31.0,99044.89350142083,10442.532859963643,0.702310323871871,9.868898983382842
32.0,119961.88566624899,12429.861807166983,0.7023866077229994,9.883598986983367
33.0,144758.25194708834,14861.154596250493,0.7024575856350044,9.897399736353558
34.0,174339.16382109394,17894.269436975963,0.702523316889453,9.910288413262295
35.0,209945.12771005143,21706.23368578327,0.7025838568667483,9.922252862761832
36.0,253182.65940156957,26486.267046419798,0.7026392568846186,9.93328161772907
37.0,306038.40373486094,32429.947287387913,0.7026895640460806,9.94336392240207
38.0,370879.87313562375,39734.37528093005,0.7027348210963594,9.952489754961919
39.0,450445.6742018402,48594.20416681839,0.7027750662894457,9.96064984906295
40.0,547825.9774606763,59201.39947246142,0.7028103332645265,9.967835714245446
41.0,666440.789538373,71779.32586690698,0.7028406509327372,9.97403965516508
42.0,810113.1919858198,86655.92643997258,0.7028660433754016,9.979254789423488
43.0,983312.3644976343,104326.67542850233,0.7028865297530502,9.983475064085708
44.0,1191529.5225256982,125498.24277684181,0.7029021242258952,9.986695270787138
45.0,1441738.8457815363,151116.1452813625,0.7029128358858784,9.988911059383957
46.0,1742905.5413776508,182379.301473582,0.702918668700767,9.990118950083064
47.0,2106510.203244917,220743.95460451723,0.7029196214712947,9.990316343855248
48.0,2547065.4555707616,267919.1704907896,0.7029156878004973,9.989501531252477
49.0,3082607.225691695,325855.70235534693,0.702906856075852,9.987673699542519
50.0,3735145.869851437,396730.8882098284,0.7028931094641893,9.984832938143535
51.0,4531065.801687268,482957.3966012124,0.7028744259198423,9.980980242302936
52.0,5501541.248119723,587289.0192914912,0.7028507782067508,9.976117514863459
53.0,6683212.799893288,713040.7885680542,0.702822133933574,9.970247566269425
54.0,8119380.024591097,864389.8543321919,0.7027884556022836,9.963374112747827
55.0,9861875.686657108,1046725.0343448507,0.7027497006700412,9.955501772681444
56.0,11973716.365137449,1267019.1261564225,0.7027058216247566,9.94663606113365
57.0,14532555.145495472,1534203.2938101736,0.7026567660746924,9.93678338242221
58.0,17634919.91693614,1859527.9662619375,0.7026024768511043,9.925951020921216
59.0,21401188.463799555,2256898.0978960046,0.7025428921242045,9.914147130055524
60.0,25981219.693947677,2743174.703233816,0.7024779455320715,9.9013807195412
61.0,31560554.733651806,3338458.1265123086,0.7024075663227901,9.887661640853018
62.0,38367117.58156864,4066473.117617674,0.7023316795097722,9.873000570878373
63.0,46678688.96614352,4955259.6483873315,0.7022502060392487,9.857408993953626
64.0,56831911.7648374,6038333.188286728,0.7021630629699848,9.840899182281373
65.0,69233929.16191447,7356412.982891821,0.7020701636646826,9.823484174814615
66.0,84378002.27990524,8959760.929159837,0.7019714179931752,9.805177754613965
67.0,102864440.17473035,10911131.097200537,0.7018667325469696,9.78599442469775
68.0,125428200.11889365,13289299.440788556,0.7017560108641703,9.765949382585955
69.0,152974407.60388163,16193117.254440513,0.7016391536645878,9.745058493569575
70.0,186622851.11547038,19746018.35546635,0.7015160590943804,9.72333826281485
71.0,227762438.3269662,24100918.529556345,0.701386622980099,9.700805806333879
72.0,278116188.95766807,29445626.167387832,0.7012507390913713,9.677478820891173
73.0,339817868.1212065,36009258.97955508,0.7011082994113426,9.6533755530387
74.0,415502603.3122159,44070498.07869123,0.700959194414451,9.62851476733754
75.0,508415797.0424331,53968725.712621816,0.7008033133508245,9.602915713886237
76.0,622547526.4898573,66119158.45915358,0.7006405445369104,9.576598095209429
77.0,762801515.7690734,81033089.13699913,0.7004707756513622,9.549582032608075
78.0,935210908.7005134,99344273.83795825,0.7002938940354387,9.521888032142213
79.0,1147215184.9273164,121842354.0053922,0.7001097869973063,9.493536950320546
80.0,1408014267.0684168,149514061.13979322,0.6999183421195465,9.464549959612755
81.0,1729018364.430901,183592756.67052603,0.6997194475692096,9.434948513854351
82.0,2124410938.5324435,225617158.31144714,0.6995129924093819,9.404754313655252
83.0,2611845835.274726,277501153.60383725,0.6992988669116907,9.373989271950604
84.0,3213303562.958519,341618324.3049435,0.699076962869017,9.342675479772073
85.0,3956140316.622659,420907051.6389694,0.6988471739078135,9.310835172337317
86.0,4874380846.146855,519004157.48128486,0.6986093957991018,9.278490695536838
87.0,6010319507.998091,640417400.4072644,0.6983635267672299,9.245664472917305
88.0,7416524769.851495,790749065.46955,0.6981094677960001,9.212378973261012
89.0,9158369301.05208,976984356.2250992,0.697847122931389,9.178656678831654
90.0,11317239449.206017,1207859624.9281166,0.6975763995804237,9.144520054355917
91.0,13994620946.159473,1494325716.8807325,0.6972972088050425,9.109991516822197
92.0,17317273105.739674,1850124208.4355562,0.6970094656102978,9.075093406166095
93.0,21443762151.64524,2292499076.311172,0.6967130892266808,9.039847956901639
94.0,26572668006.995205,2843075428.1835036,0.6964080033858332,9.004277270751473
95.0,32952854008.71491,3528951860.9126863,0.696094136589407,8.968403290311942
96.0,40896325962.91972,4384069947.87819,0.6957714223696978,8.932247773831172
97.0,50794305238.055214,5450949948.629551,0.6954397995418137,8.89583227112906
98.0,63137417023.533325,6782908000.224966,0.6950992124473029,8.859178100680758
99.0,78541146745.83148,8446898633.012732,0.6947496111886049,8.822306327895008
100.0,97778070089.18974,10527158312.728,0.6943909518543105,8.785237744589724
101.0,121818848396.60861,13129850409.043707,0.6940231967336914,8.747992849736296
102.0,151884278054.78857,16388958009.984348,0.693646314520751,8.710591831457277
103.0,189511442654.67517,20473723975.075123,0.6932602805078113,8.673054550268636
104.0,236637617751.44806,25598022181.030834,0.6928650767681601,8.635400523575225
105.0,295706519545.8585,32032174855.196938,0.6924606923279364,8.597648911393309
106.0,369802679060.8644,40117894336.44214,0.6920471233261942,8.559818503335308
107.0,462822011511.6387,50287203899.87744,0.6916243731607958,8.5219277069543
108.0,579686730923.589,63086668533.25073,0.6911924526269402,8.48399453708008
109.0,726618642422.0217,79208368399.19885,0.6907513800410691,8.446036606486526
110.0,911486438155.3485,99529604404.50366,0.690301181352807,8.408071117728895
111.0,1144248165522.4946,125163756094.17526,0.6898418902449562,8.370114856117858
112.0,1437515531504.9377,157525318092.91446,0.6893735482214098,8.332184183806293
113.0,1807274420450.1797,198412903124.76852,0.6888962046830964,8.294295034948055
114.0,2273803032988.0146,250115056771.3531,0.6884099169918054,8.256462911908365
115.0,2862842878570.2515,315545044115.0796,0.6879147505212555,8.218702882518778
116.0,3607091164254.9136,398412816195.17755,0.6874107786964655,8.181029578287616
117.0,4548103046218.656,503444923471.4644,0.6868980830212227,8.143457193541028
118.0,5738718659294.547,636666420208.766,0.6863767530940401,8.105999485438186
119.0,7246157517186.305,805762915887.1106,0.6858468866121639,8.068669774854072
120.0,9155975126334.977,1020545778339.5005,0.6853085893636361,8.031480948084681
121.0,11577124168741.752,1293550220865.2888,0.6847619752083532,7.994445459296196
122.0,14648436727548.93,1640803705823.2537,0.6842071660479941,7.957575333688117
123.0,18546927800230.953,2082812917413.5134,0.6836442917853948,7.920882171310186
124.0,23498422015705.535,2645830388514.2646,0.6830734902726524,7.884377151539257
125.0,29791172347014.625,3363480165539.557,0.6824949072486582,7.848071038139951
126.0,37793300835993.875,4278846546045.078,0.6819086962666747,7.81197418485324
127.0,47975155911697.62,5447160488900.643,0.6813150186120133,7.7760965414771155
128.0,60937951805359.02,6939260624405.032,0.6807140432103991,7.740447660388664
129.0,77450483680953.73,8846052934832.496,0.6801059465262134,7.705036703515848
130.0,98496257723097.64,11284261462447.338,0.679490912451821,7.669872449670099
131.0,125333999392014.9,14403845204200.193,0.6788691321882527,7.634963302206489
132.0,159575434250351.72,18397562502243.43,0.67824080411752,7.600317296971453
133.0,203285119095824.47,23513307896803.973,0.6776061336669477,7.565942110507754
134.0,259108737728489.62,30070012996550.6,0.6769653331649631,7.531845068512579
135.0,330437977973605.1,38478156818763.805,0.676318621689657,7.49803315446998
136.0,421622435612336.25,49266234537598.19,0.6756662249101908,7.464513018438473
137.0,538242187752379.9,63114942015334.92,0.6750083749215012,7.431290985954936
138.0,687457842710362.0,80901357067816.1,0.6743453100723924,7.3983730670461645
139.0,878461030692575.9,103756021296261.84,0.6736772747869044,7.3657649653269734
140.0,1123054004775906.2,133136736757678.47,0.6730045193800744,7.333472087128487
141.0,1436395785604562.0,170923960897382.1,0.6723272998681166,7.301499550644404
142.0,1837962951163860.8,219544157811416.84,0.6716458777735608,7.2698521950627155
143.0,2352785061918977.0,282129273214963.75,0.6709605199251782,7.238534589690332
144.0,3013036150502590.0,362722870508739.5,0.6702714982530482,7.2075510430365
145.0,3860083389260452.5,466546748920939.4,0.6695790895795387,7.176905611823309
146.0,4947126437793738.0,600345832193900.4,0.6688835754062702,7.146602109913711
147.0,6342595586328500.0,772834636904531.1,0.6681852416976068,7.116644117134879
148.0,8134525582501361.0,995274985763590.0,0.6674843786603503,7.087034988011427
149.0,1.0436192711092768e+16,1282223603849584.2,0.666781280520339,7.05777786037023
150.0,1.3393375855940054e+16,1652499743195751.0,0.6660762452963683,7.028875663805063
151.0,1.7193718700673396e+16,2130437452861332.0,0.6653695745715917,7.000331127992364
152.0,2.2078780919327524e+16,2747507030844001.5,0.6646615732628507,6.972146790848693
153.0,2.8359564119515904e+16,3544412829371540.5,0.6639525493876582,6.944325006541794
154.0,3.643651983046661e+16,4573808551449470.0,0.663242813829621,6.916867953323236
155.0,4.682532722646336e+16,5903812060919784.0,0.6625326801024899,6.889777641182493
156.0,6.019013327324337e+16,7622555536311204.0,0.6618224641130712,6.863055919315082
157.0,7.738632550548544e+16,9844077933534714.0,0.6611124839232942,6.83670448340706
158.0,9.951566830471331e+16,1.271594907386054e+16,0.6604030595113622,6.810724882740337
159.0,1.2799734411795163e+17,1.6429138235055854e+16,0.6596945125326225,6.7851185270987
160.0,1.6465949967120646e+17,2.1230785517901508e+16,0.6589871660802615,6.759886693479153
161.0,2.118572591491028e+17,2.7440732580874824e+16,0.6582813444460744,6.7350305326037505
162.0,2.7262454656756205e+17,3.547291836534786e+16,0.6575773728815066,6.710551075241857
163.0,3.5086980289632966e+17,4.58630537119286e+16,0.6568755773590712,6.686449238340654
164.0,4.516280584149706e+17,5.930443165453306e+16,0.6561762843345552,6.662725830955592
165.0,5.813857654427798e+17,7.669425320452566e+16,0.6554798205101178,6.639381559986378
166.0,7.48499212813793e+17,9.91935743775591e+16,0.6547865125984967,6.616417035716911
167.0,9.637328304276621e+17,1.2830483892561288e+17,0.6540966870885196,6.593832777172124
168.0,1.2409529083170104e+18,1.659721208681096e+17,0.6534106700120698,6.571629217286216
169.0,1.5980207054468503e+18,2.1471075109897238e+17,0.6527287867127497,6.5498067078825795
170.0,2.057943294868063e+18,2.7777488997495453e+17,0.6520513616163494,6.528365524470529
171.0,2.6503541592751636e+18,3.593742487486323e+17,0.6513787180032953,6.507305870860466
172.0,3.413418570383178e+18,4.649541152618789e+17,0.6507111777833403,6.486627883609733
173.0,4.396287265433886e+18,6.015571941281021e+17,0.6500490612725602,6.466331636293745
174.0,5.662254240023374e+18,7.782911374457377e+17,0.6493926869728176,6.446417143607452
175.0,7.292824556371997e+18,1.0069325053417293e+18,0.648742371353776,6.426884365301452
176.0,9.392942104047553e+18,1.30270721488885e+18,0.6480984286376443,6.40773320995705
177.0,1.2097718415181824e+19,1.6852979439814254e+18,0.6474611705869644,6.388963538609542
178.0,1.5581091051385254e+19,2.1801448614862866e+18,0.6468309062953447,6.370575168216895
179.0,2.0066963271453835e+19,2.8201246918235505e+18,0.6462079419813099,6.352567874980315
180.0,2.5843545213737034e+19,3.647718058762839e+18,0.6455925807852739,6.334941397520438
181.0,3.328177081271739e+19,4.717807214983544e+18,0.6449851225699158,6.317695439914944
182.0,4.285900146483722e+19,6.101284057928733e+18,0.6443858637242024,6.300829674603828
183.0,5.518950605258412e+19,7.889704635815748e+18,0.64379509697085,6.284343745162308
184.0,7.106366842185594e+19,1.0201291571949185e+19,0.6432131111774169,6.268237268947614
185.0,9.14984191163982e+19,1.318867590352058e+19,0.6426401911709362,6.252509839622985
186.0,1.1780198174643177e+20,1.704887908399563e+19,0.6420766175565734,6.237161029564924
187.0,1.5165718183026577e+20,2.2036174999423648e+19,0.6415226665403024,6.222190392157879
188.0,1.9522851496297955e+20,2.847866721306886e+19,0.6409786097554157,6.207597463978285
189.0,2.5129986755060548e+20,3.6799646449564557e+19,0.6404447140930398,6.193381766873321
190.0,3.234514630659566e+20,4.754511714104272e+19,0.6399212415364989,6.179542809937179
191.0,4.16287102883082e+20,6.141924675111502e+19,0.6394084490002391,6.166080091390616
192.0,5.3572640457657745e+20,7.933000963900944e+19,0.6389065881729483,6.152993100366674
193.0,6.8938028534023e+20,1.0244796170462095e+20,0.6384159053648238,6.1402813186054015
194.0,8.870339482370022e+20,1.3228190052387155e+20,0.6379366413590755,6.127944222062098
195.0,1.1412667762936933e+21,1.7077630631133017e+20,0.6374690312675495,6.115981282430992
196.0,1.468248921834215e+21,2.204366973106836e+20,0.6370133043912904,6.104391968589849
197.0,1.888765176433264e+21,2.8449093382500473e+20,0.6365696840853534,6.093175747967504
198.0,2.4295305248681875e+21,3.670967546977753e+20,0.6361383876280028,6.08233208783736
199.0,3.1248821530303403e+21,4.73608767639837e+20,0.6357196260942356,6.071860456540527
200.0,4.0189499213257675e+21,6.109220263867039e+20,0.635313604233733,6.061760324639653
201.0,5.168447013504361e+21,7.879137001636768e+20,0.6349205203538891,6.0520311660086366
202.0,6.646255706464533e+21,1.0160110811395942e+21,0.6345405662071222,6.042672458859561
203.0,8.546035894535537e+21,1.309921896960672e+21,0.6341739268827187,6.033683686709727
204.0,1.0988150890493387e+22,1.6885734265739e+21,0.6338207807029899,6.025064339291519
205.0,1.4127269461240066e+22,2.1763200969691808e+21,0.6334812991241942,6.016813913405513
206.0,1.8162144070220944e+22,2.8044951114098965e+21,0.63315564664246,6.008931913721789
207.0,2.334817484505644e+22,3.6134049991502515e+21,0.6328439807040258,6.001417853530087
208.0,3.0013565537550634e+22,4.6548928154088914e+21,0.6325464516200786,5.994271255441463
209.0,3.858008905041059e+22,5.995633396784422e+21,0.6322632024858409,5.987491652042997
210.0,4.958974632863454e+22,7.721367903101384e+21,0.6319943691047535,5.981078586505969
211.0,6.373906536752251e+22,9.942343578564652e+21,0.6317400799174195,5.975031613151867
212.0,8.192318400517126e+22,1.2800304047639696e+22,0.6315004559349229,5.969350297976273
213.0,1.0529257759687233e+23,1.6477469899762268e+22,0.631275610676722,5.96403421913324
214.0,1.3532593534352861e+23,2.1208083327277788e+22,0.6310656501127556,5.959082967379951
215.0,1.7392384392943956e+23,2.729323600375989e+22,0.6308706726108876,5.9544961464832715
216.0,2.2352933100173615e+23,3.511991757486175e+22,0.6306907688888049,5.95027337359098
217.0,2.8728289094998087e+23,4.5185489032568795e+22,0.6305260219703592,5.946414279567746
218.0,3.692221107194745e+23,5.812912321826882e+22,0.630376507146365,5.942918509298068
219.0,4.745381057001339e+23,7.477221979538885e+22,0.630242291939715,5.939785721954545
220.0,6.099056092179081e+23,9.617030423543526e+22,0.6301234360758381,5.937015591234346
221.0,7.839078134076573e+23,1.2367970829701017e+23,0.630019991457389,5.934607805564967
222.0,1.007583207098259e+24,1.5904323849416337e+23,0.6299320021434159,5.932562068279562
223.0,1.2951300882183873e+24,2.0450025538318818e+23,0.6298595043328122,5.930878097763333
224.0,1.6648120065637486e+24,2.6292816786346426e+23,0.6298025263523097,5.929555627568587
225.0,2.1401245977443526e+24,3.380241538398845e+23,0.6297610886496013,5.928594406502166
226.0,2.751298084978194e+24,4.345386881328185e+23,0.6297352037905882,5.927994198684856
227.0,3.537233229623435e+24,5.585756084238919e+23,0.6297248764610887,5.927754783583283
228.0,4.5479962232030366e+24,7.179778325042853e+23,0.6297301034726583,5.92787595601477
229.0,5.848028421418144e+24,9.228231423511892e+23,0.6297508737732282,5.928357526122842
230.0,7.52028637645108e+24,1.1860611426588968e+24,0.6297871684625149,5.929199319327124
231.0,9.671576473372963e+24,1.5243320419110019e+24,0.6298389608115385,5.930401176246182
232.0,1.2439436490367547e+25,1.9590189921287226e+24,0.629906216286541,5.931962952594068
233.0,1.6001004295810323e+25,2.5176014895891017e+24,0.6299888925768892,5.933884519049542
234.0,2.0584445137130247e+25,3.235394990349709e+24,0.6300869396280325,5.936165761096891
235.0,2.6483699505596474e+25,4.157787043049143e+24,0.6302002996788236,5.938806578840924
236.0,3.407750291154278e+25,5.34311262343767e+24,0.6303289073029859,5.941806886794358
237.0,4.385394741319531e+25,6.866351081425609e+24,0.6304726894548548,5.9451666136383485
238.0,5.644213703020414e+25,8.82388293508407e+24,0.6306315655191085,5.948885701953577
239.0,7.265304303288587e+25,1.133960487919193e+25,0.6308054473655987,5.9529641079226785
240.0,9.353225307268276e+25,1.4572794454568191e+25,0.6309942394082168,5.9574018010045195
241.0,1.2042806578973085e+26,1.8728226038233246e+25,0.6311978386679349,5.962198763578847
242.0,1.550794927398531e+26,2.406918381778154e+25,0.6314161348399372,5.967354990561567
