Time,J,A,S,tau
0.0,100.0,10.0,0.7135333341777482,27.332762538596228
1.0,99.81940117595772,9.001237168118944,0.712244467327949,28.332762252836176
2.0,99.64280210836155,8.10243708044348,0.7109843786273731,29.332761979508554
3.0,99.46994342433493,7.293791961780022,0.7097509787873953,30.33276170618093
4.0,99.30064026547251,6.566205760703107,0.7085429487825449,31.332761432853307
5.0,99.13471507005039,5.91150445897685,0.7073590216515588,32.33276115952568
6.0,98.97199716265118,5.322343573868069,0.7061979795692231,33.33276088619805
7.0,98.81232238592514,4.792127198171878,0.7050586512188672,34.33276061287042
8.0,98.65553273853936,4.3149264817162605,0.703939909209013,35.3327603395428
9.0,98.50147601754176,3.8854119425382128,0.7028406675215243,36.33276006621517
10.0,98.35000549643938,3.4987954484533845,0.7017598792145913,37.33275979288754
11.0,98.20097961382564,3.150772245178212,0.7006965342009824,38.332759519559914
12.0,98.05426166066398,2.8374711998908353,0.6996496570167117,39.332759246232285
13.0,97.90971949688085,2.5554130353730526,0.6986183047988358,40.33275897290466
14.0,97.76722528122905,2.301469277377006,0.697601565357941,41.33275869957703
15.0,97.62665519675005,2.072825530440109,0.6965985552192269,42.3327584262494
16.0,97.48788919942544,1.866951307548514,0.6956084178290511,43.33275815292177
17.0,97.35081078111929,1.6815710320281392,0.6946303218634462,44.33275787959414
18.0,97.21530672735555,1.5146368723047194,0.6936634594997808,45.33275760626651
19.0,97.08126689257232,1.3643069274410249,0.6927070448131257,46.33275733293889
20.0,96.94858398918217,1.228924648299617,0.6917603122711297,47.33275705961126
21.0,96.81715337246047,1.1069988584052763,0.6908225151991267,48.33275678628363
22.0,96.6868728376187,0.9971878966833863,0.6898929243321875,49.33275651295601
23.0,96.55764242932477,0.8982849481697913,0.6889708264559843,50.33275623962838
24.0,96.42936424874806,0.809203439680289,0.6880555230299928,51.33275596630076
25.0,96.30194226835933,0.7289654492734566,0.6871463288660307,52.33275569297313
26.0,96.1752821572536,0.6566912042171597,0.6862425708818756,53.33275541964551
27.0,96.04929110567744,0.5915884663492742,0.685343586849212,54.33275514631788
28.0,95.92387765380657,0.5329439271894204,0.6844487241719017,55.33275487299025
29.0,95.79895152970452,0.48011595085003234,0.6835573387297658,56.33275459966262
30.0,95.67442348601095,0.43252647666960786,0.6826687937133007,57.33275432633499
31.0,95.5502051400932,0.3896552556148604,0.6817824584831084,58.33275405300736
32.0,95.4262088215464,0.3510338358617316,0.680897707481758,59.332753779679734
33.0,95.30234741554769,0.3162402271668775,0.6800139191160661,60.332753506352105
34.0,95.1785342148172,0.28489475917248214,0.6791304747007899,61.33275323302447
35.0,95.05468276863863,0.25665516953695616,0.6782467573813387,62.33275295969683
36.0,94.93070673625837,0.23121355924669415,0.6773621510877278,63.3327526863692
37.0,94.80651974010516,0.2082923857319692,0.6764760394872522,64.33275241304158
38.0,94.68203522115367,0.18764182287687617,0.6755878049524575,65.33275213971395
39.0,94.5571662927272,0.16903683399028285,0.674696827517974,66.33275186638632
40.0,94.43182559878976,0.15227464814385633,0.673802483869382,67.3327515930587
41.0,94.30592516638136,0.13717277043042583,0.6729041462902907,68.33275131973107
42.0,94.17937626480376,0.12356664188393458,0.6720011816575794,69.33275104640344
43.0,94.05208925850627,0.11130818695273864,0.6710929503916897,70.33275077307583
44.0,93.92397346219585,0.10026389123415397,0.6701788054227881,71.3327504997482
45.0,93.79493699725141,0.0903135493045538,0.6692580911662326,72.33275022642057
46.0,93.6648866388348,0.08134885281261547,0.6683301424316593,73.33274995309296
47.0,93.53372767585216,0.07327219264848744,0.6673942834237603,74.33274967976533
48.0,93.40136375124085,0.0659956992247629,0.6664498266026764,75.3327494064377
49.0,93.26769671960183,0.059440124296671996,0.6654960716681567,76.33274913311008
50.0,93.13262648738679,0.053534145230557724,0.664532304419241,77.33274885978246
51.0,92.99605085933115,0.048213440149289105,0.6635577956585068,78.33274858645483
52.0,92.85786538477939,0.043420092000756375,0.6625718000955485,79.33274831312721
53.0,92.7179631881386,0.03910190555026741,0.6615735551372081,80.33274803979958
54.0,92.576234821015,0.035211837282273055,0.6605622798325183,81.33274776647195
55.0,92.43256808073949,0.031707531019054894,0.6595371735778212,82.33274749314434
56.0,92.28684785872434,0.028550782398102655,0.6584974150347429,83.33274721981671
57.0,92.13895595921781,0.025707204552499183,0.6574421608369466,84.3327469464891
58.0,91.98877093062013,0.023145782157946177,0.6563705443865149,85.33274667316147
59.0,91.83616789476629,0.02083858705832493,0.6552816746358245,86.33274639983384
60.0,91.68101835514376,0.018760447142342256,0.6541746347191165,87.33274612650622
61.0,91.52319003674957,0.016888674447504363,0.6530484808098208,88.3327458531786
62.0,91.3625466781855,0.015202839898165631,0.6519022406370862,89.33274557985096
63.0,91.19894786894953,0.013684516411541194,0.6507349123247999,90.33274530652335
64.0,91.03224884389233,0.012317117836552609,0.6495454629249638,91.33274503319572
65.0,90.86230029988045,0.011085683577289725,0.6483328271095263,92.3327447598681
66.0,90.68894820818434,0.009976742614975451,0.6470959058317057,93.33274448654048
67.0,90.51203360297163,0.008978152725090182,0.6458335648168188,94.33274421321286
68.0,90.33139241301619,0.008078970612003869,0.6445446333614678,95.33274393988523
69.0,90.14685523223052,0.007269342432923841,0.6432279026962114,96.3327436665576
70.0,89.9582471544845,0.006540380432828174,0.6418821248069401,97.33274339322999
71.0,89.76538755211045,0.00588408520042709,0.6405060108544349,98.33274311990236
72.0,89.5680898909532,0.005293241540389454,0.6390982298546866,99.33274284657473
73.0,89.36616153911747,0.004761353358445343,0.6376574073142428,100.33274257324712
74.0,89.1594035534239,0.004282565508725636,0.6361821237065003,101.33274229991949
75.0,88.94761052245158,0.003851601709560898,0.6346709133517581,102.33274202659186
76.0,88.73057033835022,0.0034637112674199425,0.6331222627890211,103.33274175326424
77.0,88.50806405606195,0.0031146098030355785,0.6315346097714987,104.33274147993662
78.0,88.27986568488504,0.002800441671601358,0.6299063417793408,105.33274120660899
79.0,88.04574203708036,0.002517729592265847,0.6282357949393932,106.33274093328137
80.0,87.8054525694679,0.002263343438080331,0.6265212528949338,107.33274065995374
81.0,87.55874921221692,0.002034462226884441,0.6247609455840317,108.33274038662611
82.0,87.30537626882212,0.001828544429285751,0.6229530485258431,109.3327401132985
83.0,87.04507024328878,0.0016433020203315263,0.6210956815875163,110.33273983997087
84.0,86.77755978077985,0.0014766719990150392,0.6191869085606887,111.33273956664324
85.0,86.50256694880225,0.001390987657143021,0.6172247361992068,112.3327392933156
86.0,86.21980514116585,0.0013810858897432736,0.6152071163985438,113.33273901998797
87.0,85.92897954627378,0.0013710804043642426,0.6131319559315372,114.33273874666034
88.0,85.62978227885112,0.0013609694809892242,0.6109970575706537,115.33273847333271
89.0,85.32190290941458,0.0013507514153176367,0.6088002059242684,116.3327382000051
90.0,85.00502878334527,0.001340424577874852,0.6065391697093396,117.33273792667747
91.0,84.67882480621041,0.0013299875160547908,0.604211557405742,118.33273765334984
92.0,84.34295139875677,0.0013194388005773132,0.6018149454688508,119.33273738002222
93.0,83.99706924338976,0.0013087770043553023,0.5993469122224447,120.3327371066946
94.0,83.64083496153391,0.0012980008449833711,0.5968050069738517,121.33273683336697
95.0,83.27388337769258,0.0012871092696440018,0.594186623344239,122.33273656003935
96.0,82.89584523228534,0.001276101245661975,0.5914891257862718,123.33273628671172
97.0,82.50635100940605,0.0012650640000884705,0.5887098784392903,124.3327358911417
98.0,82.10234598574891,0.003934797208003078,0.5858732012125709,125.3290030785456
99.0,81.37457054748877,0.319089718169174,0.5861005427837839,125.88866734621676
100.0,80.50551531712377,0.7668111600483294,0.5875903555931206,126.2595305406117
101.0,79.6235090889088,1.2200167777587068,0.5890615287813616,126.61822623366596
102.0,78.72989302149107,1.6786868588398525,0.5905110731342953,126.96450559354372
103.0,77.82628675784986,2.1428307119117855,0.5919362088433882,127.29806190145082
104.0,76.91463171393963,2.612450265716459,0.5933339822821772,127.61858402904399
105.0,75.99715855140393,3.08753795981003,0.5947013010415106,127.9257575439163
106.0,75.07663337121681,3.5680743237069903,0.5960348195043532,128.21926227815192
107.0,74.1560668301772,4.054032656498282,0.5973310865580518,128.49877579741613
108.0,73.23909230707179,4.545371254567888,0.5985863875067243,128.76397028197178
109.0,72.32970519543407,5.0420390295621536,0.5997968629955464,129.01451512544926
110.0,71.43254174853789,5.543970161229854,0.6009584023314313,129.25007514295334
111.0,70.55268799056563,6.051086745583906,0.602066727031168,129.47031227909542
112.0,69.69584790102986,6.563296097449632,0.6031173283216258,129.674884725442
113.0,68.86832458455821,7.0804895486493304,0.6041054799302086,129.86344739934492
114.0,68.07696176539466,7.602544169123286,0.6050262589208832,130.03565240495237
115.0,67.32926777778945,8.129318787742186,0.6058744987067423,130.19114863246827
116.0,66.63328838748988,8.660655395179594,0.6066448329971276,130.32958253449678
117.0,65.99764188937652,9.196377682648556,0.6073316753367356,130.4505980616785
118.0,65.43149598865458,9.736289716750708,0.6079292158073276,130.5538368702889
119.0,64.94449866724106,10.280175243508948,0.6084314326518804,130.63893866426974
120.0,64.54671387122511,10.827797518073607,0.6088320994283486,130.70554146382608
121.0,64.24856354204718,11.37889812617096,0.6091247823552318,130.75328181466634
122.0,64.06073069445466,11.93319526685917,0.6093028461937058,130.78179509167745
123.0,63.994040350813634,12.490383974956666,0.6093594720210428,130.79071585106468
124.0,64.05935214875467,13.050135593599675,0.6092876649089826,130.7796781088512
125.0,64.26741422686953,13.612095976232846,0.6090802581435113,130.74831567858772
126.0,64.62870344723876,14.175884892221209,0.6087299361536839,130.6962625499351
127.0,65.15328147732113,14.741096315380464,0.6082292523223642,130.62315321761537
128.0,65.85061523275316,15.307297551416514,0.6075706416003399,130.5286230669556
129.0,66.72936071960633,15.87402744018007,0.6067464432415912,130.41230882896605
130.0,67.79721040479937,16.440797088866624,0.6057489292640069,130.27384893028312
131.0,69.66218738572536,16.357494114569633,0.7346957925554394,31.293700652020195
132.0,71.74798528104425,16.086561062171363,0.7296739517010047,30.45229862772197
133.0,73.83275122174945,15.839102222385018,0.7246063899884547,29.639600421609433
134.0,75.90352213398369,15.623298507571217,0.7194965014314677,28.854881950392794
135.0,77.94789454826079,15.448806986759694,0.7143476815881429,28.097386761384417
136.0,79.95468002597818,15.326786093380651,0.7091633279429937,27.366336324665617
137.0,81.91464668880427,15.26985428869117,0.7039468361807948,26.66093849474463
138.0,83.82133211410691,15.291989860786867,0.6987015958916842,25.98039451819889
139.0,85.67184677370797,15.408365286289525,0.693430992335084,25.323905722222925
140.0,87.46761708674424,15.635093573926138,0.6881384045388418,24.69067858630528
141.0,89.21512242713641,15.988908562822772,0.682827199323754,24.0799284709266
142.0,90.92642301923183,16.486788007803426,0.6775007330378829,23.490883508054687
143.0,92.61947405439312,17.145516701450713,0.6721623487230386,22.92278710943319
144.0,94.31831225454519,17.98120838191155,0.6668153710427279,22.37489988074718
145.0,96.05280183513199,19.00881043544363,0.6614631084456839,21.846501696078285
146.0,97.85815901169256,20.241611448486513,0.6561088487539478,21.336892550586175
147.0,99.77425139318005,21.690746110884188,0.650755854513564,20.8453933516158
148.0,101.84433338323146,23.364752987288888,0.6454073663555314,20.371346915800654
149.0,104.11373694634173,25.269190240868674,0.6400665977546318,19.9141179311084
150.0,106.63246430241665,27.40193651149742,0.6347367353481487,19.47309329031407
151.0,109.56926444642302,29.617025857606343,0.6294209254285988,19.047681184510605
152.0,112.97274700450956,31.835873755853807,0.6241222833674062,18.637311839863305
153.0,116.80629386903684,34.05178897014439,0.6188438908722588,18.241437107933866
154.0,121.02244022593737,36.26396135362251,0.6135887908536014,17.859529783524376
155.0,125.5643023631623,38.47881683928419,0.6083599835352455,17.49108310700881
156.0,130.36770389866092,40.711054439544924,0.6031604261667028,17.135610367720822
157.0,135.36390997827067,42.984159334481205,0.5979930305906367,16.792644249688667
158.0,140.48279064789625,45.33037514685903,0.5928606585028207,16.461736207785766
159.0,145.65620418724868,47.78994545283724,0.5877661224766447,16.14245594154938
160.0,150.8214050218695,50.40970585956079,0.582712182598165,15.83439081046371
161.0,155.92405727609957,53.240983512475964,0.5777015456525225,15.537145204326917
162.0,160.9207368415899,56.33700163431568,0.5727368623753282,15.250339857289589
163.0,165.78075113639562,59.74995985998288,0.5678207247940331,14.973611230217433
164.0,170.48692926771884,63.527951321081616,0.5629556654408582,14.706611006062877
165.0,175.03802921816987,67.70920828673115,0.5581441562416144,14.449005453408923
166.0,179.480767150881,72.28060708192511,0.5533886064857149,14.200474815525688
167.0,183.88224173457928,77.18915261941214,0.5486913606616859,13.960712756812141
168.0,188.29064598621707,82.37772973562782,0.5440546983580683,13.729425898480923
169.0,192.73237302569578,87.7903806925047,0.5394808332263114,13.506333237072333
170.0,197.2113538184439,93.37664538821713,0.5349719116528193,13.291165620898276
171.0,201.7098945086227,99.09538578839475,0.5305300108435622,13.083665263688408
172.0,206.19097705846625,104.91766834835242,0.5261571399896485,12.883585354253892
173.0,210.60222304131025,110.82818170905722,0.5218552393270587,12.690689555909872
174.0,214.88079763820838,116.82514268171894,0.5176261799282706,12.504751572116184
175.0,218.95895646935162,122.91873319931986,0.5134717623230042,12.325554727062999
176.0,222.76964763243186,129.1282353269101,0.5093937170455901,12.152891581474123
177.0,226.2517406308721,135.47823271935468,0.5053937046649293,11.986563554717195
178.0,229.35831203366237,141.99012189191455,0.5014733159752405,11.82638056470243
179.0,232.06782894891123,148.668006711279,0.49763407028459683,11.672160558117428
180.0,234.38075307537025,155.49619991503036,0.49387742280967933,11.5237296722891
181.0,236.3124963670013,162.4441651137137,0.4902047565579804,11.380921186249232
182.0,237.8866605581148,169.47037447909696,0.48661738656695713,11.24357571165247
183.0,239.12901608737124,176.52765402301637,0.48311656137004794,11.11154077434485
184.0,240.06327595230903,183.5679344296682,0.47970346323693946,10.984670548151218
185.0,240.70840165150358,190.54626766735004,0.47637920915297927,10.862825596711838
186.0,241.0775287899447,197.42372377080878,0.47314485183596616,10.745872635313766
187.0,241.17823362818993,204.1689923022576,0.4700013804550081,10.633684260744662
188.0,241.01390093930348,210.75883825862454,0.46694972232529885,10.526138780446043
189.0,240.58637033142793,217.17675505395064,0.46399074309768046,10.423120000748282
190.0,239.89903882001178,223.40998915271766,0.46112525115190545,10.324516760350152
191.0,238.96132466154987,229.4463785393292,0.45835399606192945,10.230223363885731
192.0,237.78684772591706,235.273144969557,0.4556776678151459,10.140138719013427
193.0,236.3966991828314,240.87573085579663,0.4530969073610703,10.054166545913523
194.0,234.7859543109245,246.2691493953484,0.45067876208130975,9.970222273200772
195.0,233.07834905238832,251.33920626882514,0.44820288729188734,9.8948305514369
196.0,231.3155934470325,256.0414786011399,0.4456070302824099,9.8295774428428
197.0,229.50710684845794,260.36627491853966,0.44290019443302714,9.773934357373152
198.0,227.6644882420952,264.3073450882468,0.44009207664054834,9.727396239306712
199.0,225.79736798006695,267.8630920360449,0.437193040183398,9.689481773570442
200.0,223.9152282777579,271.03546307917827,0.43421394352262294,9.659727833336719
201.0,222.02898728083656,273.83022573245046,0.43116618541962876,9.63769245756896
202.0,220.14749841463365,276.25617772940456,0.4280615352699521,9.622950053327209
203.0,218.2876314247036,278.3198449036567,0.42490128627770785,9.615391806652593
204.0,216.46610934048883,280.0241407484268,0.4216707108148393,9.615369468563783
205.0,214.59974265130873,281.486112567264,0.4186408737101277,9.615369468563784
206.0,212.72186318529333,282.71304570625887,0.41581409610336745,9.615369468563784
207.0,210.8630044794898,283.7135870404077,0.41319173934329684,9.615369468563784
208.0,209.0508141954448,284.4979194418659,0.4107750210391289,9.615369468563784
209.0,207.31027979675508,285.0776483437368,0.40856502341062717,9.615369468563784
210.0,205.6639051741286,285.465668811316,0.4065627026409958,9.615369468563784
211.0,204.13237479555573,285.67599050904795,0.40476889319992787,9.615369468563784
212.0,202.73396946712026,285.72369701712057,0.4031843216752356,9.615369468563784
213.0,201.48557312591478,285.6243237298795,0.40180961282976124,9.615369468563784
214.0,200.40328084621305,285.39385389486574,0.40064529295842394,9.615369468563784
215.0,199.4980360833111,285.05276383077626,0.3996917957198951,9.615369468563784
216.0,198.78007327502107,284.62183336461544,0.3989494720561153,9.615369468563784
217.0,198.26082314008158,284.12136928727824,0.39841859072725405,9.615369468563784
218.0,197.95183057350013,283.57128662929705,0.39809933545350334,9.615369468563784
219.0,197.86427714669722,282.9912015111997,0.3979918246831293,9.615369468563784
220.0,198.01090932287028,282.4002713357399,0.3980960931889215,9.615369468563784
221.0,198.40415964066156,281.8173807796037,0.39841210246305137,9.615369468563784
222.0,199.0569191684759,281.26113289021333,0.3989397467562071,9.615369468563784
223.0,199.98360415069493,280.7498051666677,0.3996788327421528,9.615369468563784
224.0,201.19851750465784,280.30152159299007,0.40062909510313693,9.615369468563784
225.0,202.7170806423385,279.93433986582687,0.40179019013966255,9.615369468563784
226.0,204.55604851475437,279.66639145014165,0.4031616773270471,9.615369468563784
227.0,206.73265158313913,279.5159057953922,0.4047430352034332,9.615369468563784
228.0,209.26602782475948,279.5012418485005,0.40653364400590986,9.615369468563784
229.0,212.1768626594318,279.641016198579,0.4085327733965421,9.615369468563784
230.0,215.48734506503433,279.95409524421467,0.41073959373749036,9.615369468563784
231.0,219.22222663114584,280.45977604409273,0.41315315058038415,9.615369468563784
232.0,223.40839257977242,281.1778811231212,0.41577235967588694,9.615369468563784
233.0,228.0753255951483,282.12880297992143,0.41859601070901453,9.615369468563784
234.0,233.25552254838507,283.3337299641958,0.42162274376971576,9.615369468563784
235.0,239.00131698478938,284.79764899262307,0.4248037189117273,9.616572010649042
236.0,245.42057725775774,286.4649615297412,0.4279310942034566,9.624209000648905
237.0,252.55230489768343,288.3462201254246,0.43099278431837146,9.638531485425583
238.0,260.439290826662,290.4526875819189,0.4339788483746676,9.659749321050331
239.0,269.12890224687385,292.7951007844541,0.43687878977600686,9.688101036918733
240.0,278.6727569339585,295.38421894150633,0.4396830117587664,9.723817737896521
241.0,289.1269138651185,298.23087078520973,0.44238286167781404,9.767122934324458
242.0,300.5520663570555,301.34604400019975,0.44497069437607367,9.818232168134514
243.0,313.01391731107265,304.74080542974394,0.44743990370901765,9.877352858025219
244.0,326.5832088776425,308.42634980631067,0.4497848944236434,9.944684504357122
245.0,341.3308762126396,312.4192758109299,0.4520126129013051,10.020118482879985
246.0,357.23804815579234,316.84333791438485,0.4543477372679217,10.097841754323527
247.0,374.41964589543915,321.7090841237364,0.45676078055269215,10.178613997884876
248.0,392.98420231134435,327.0381283003296,0.45924551404279995,10.262594944729528
