Time,J,A,S,tau
0.0,100.0,10.0,0.7375835830707644,5.841857171569525
1.0,156.79224615062296,33.088842788314764,0.7490092415601843,6.067068134408274
2.0,298.2868738133604,55.21523817165249,0.7606832880521899,6.294689482069866
3.0,518.4308960726485,76.44665883793533,0.7726083754053829,6.5246451820777
4.0,811.6526673213076,96.8460042263178,0.7847876116447203,6.756869136765606
5.0,1172.8243001088924,116.47221119569147,0.797224161278236,6.991294969445048
6.0,1597.2271776055247,135.380532408122,0.8099212443021828,7.227856032569949
7.0,2080.520386154125,153.62279325138002,0.8228821351773797,7.466485415816976
8.0,2615.450121889173,178.5237111041529,0.8312783311966371,7.622325195288957
9.0,3269.043734012504,261.7318002042326,0.8320567207258258,7.643587115596545
10.0,4270.086621034554,407.396688704064,0.8328096447362916,7.664316007827702
11.0,5833.927769780766,609.417383493969,0.8335371496322693,7.684499300421364
12.0,8147.755902448611,862.2300290512893,0.8342392821524633,7.704124591499842
13.0,11373.56544223316,1160.7639366291874,0.8349160890965696,7.723179664161358
14.0,15650.831187639209,1500.4012899919437,0.8355676170585478,7.741652502040386
15.0,21098.931048804767,1876.940047718748,0.8361939121675072,7.759531305073259
16.0,27815.02231229972,2298.013955844316,0.8367950198340268,7.776804505463691
17.0,35991.524475600716,2891.5938779838602,0.8373709845081145,7.793460783780894
18.0,46376.46446319916,3836.9441441401977,0.8379218494431274,7.809489085161547
19.0,60326.11889068943,5286.451494698693,0.8384476564650297,7.824878635608647
20.0,79691.5524056822,7367.855649504797,0.8389484457533296,7.839618958280536
21.0,106719.14425324564,10187.07587127174,0.8394242556294197,7.853699889759277
22.0,143964.53954560185,13830.755061241729,0.8398751223538558,7.8671115962456035
23.0,194218.38045892608,18368.5491567946,0.8403010799326794,7.879844589597235
24.0,260437.87985921913,23866.055220796345,0.8407021599328377,7.891889743217045
25.0,345802.83985822473,30603.796735907206,0.8410783913064485,7.903238307691309
26.0,454810.54051606095,39354.77858958521,0.8414298002271375,7.913881926079648
27.0,595017.0013564772,51329.988733127786,0.8417564099335548,7.923812648923139
28.0,778451.6091194731,68081.92410053052,0.8420582405845153,7.933022948796003
29.0,1022665.8005144042,91421.69163206202,0.842335309124312,7.941505734393352
30.0,1351474.5923811437,123348.06245691326,0.8425876291586571,7.949254364090259
31.0,1795441.6270782137,165987.05768346525,0.8428152108414553,7.956262658915398
32.0,2392148.093452574,221547.4175923657,0.8430180607726171,7.962524914883266
33.0,3186345.9536316837,292574.25431391806,0.843196181907111,7.96803591463104
34.0,4231719.556332018,383097.6730414017,0.8433495734754355,7.972790938308134
35.0,5597188.202334119,499973.4666954936,0.8434782309156771,7.976785773670486
36.0,7377629.561738957,653893.5077458168,0.8435821458172736,7.9800167253305645
37.0,9707747.861313475,860091.325034933,0.84366130587674,7.9824806231173415
38.0,12777994.527747886,1138794.2522643995,0.8437156948653886,7.984174829511054
39.0,16851653.274643112,1515466.461542621,0.8437452926091809,7.985097246114912
40.0,22282372.333622765,2020884.089877747,0.8437500749808166,7.985246319131677
41.0,29531574.33783458,2691380.859750312,0.8437300139041396,7.98462104381768
42.0,39187409.89576886,3571245.0805303687,0.8436850773709366,7.98322096789167
43.0,51995163.04667358,4719073.919729027,0.8436152294701378,7.981046193882728
44.0,68913095.4904605,6217451.207633344,0.8435204304294881,7.978097380398722
45.0,91204368.14290468,8184835.580852097,0.8434006366697329,7.974375742310725
46.0,120571706.07736531,10788739.61325334,0.8432558008712479,7.969883049852936
47.0,159338287.03333747,14259459.737426978,0.8430858720531148,7.96462162663962
48.0,210675809.83756432,18903769.943612333,0.8428907956646035,7.958594346607136
49.0,278878692.7822201,25118425.447109904,0.842670513689,7.951804629894436
50.0,369684171.17080873,33406924.952316303,0.8424249647597202,7.944256437681112
51.0,490656717.5641887,44409981.41605362,0.8421540842885529,7.935954266006949
52.0,651696313.3946419,58961130.03272874,0.8418578046060284,7.926903138595189
53.0,865768476.6530517,78175280.6327285,0.8415360551137336,7.917108598718146
54.0,1149978449.2424989,103574569.62723176,0.8411887624484256,7.906576700140615
55.0,1527124467.4454515,137253125.99865857,0.8408158506578052,7.895313997181002
56.0,2027868081.711103,182080225.46085933,0.8404172413877887,7.88332753393413
57.0,2693655153.7056594,241940040.44031623,0.8399928540811011,7.870624832702892
58.0,3580514306.837782,322011670.58127266,0.8395426061870074,7.857213881689913
59.0,4763886929.054844,429119251.80810827,0.8390664133819415,7.843103121999143
60.0,6344785856.220703,572220385.7150887,0.838564189800921,7.828301434000147
61.0,8457859744.35694,763130679.7078559,0.8380358482794551,7.812818123114907
62.0,11282316942.844149,1017598519.0455753,0.8374813006057451,7.796662905082111
63.0,15057088756.120256,1356849865.7313855,0.8369004577829487,7.779845890756137
64.0,20102049556.907093,1809720253.6356745,0.8362932303012747,7.762377570498243
65.0,26847531506.29962,2415482926.554025,0.8356595284196775,7.744268798217496
66.0,35874756019.23712,3227484405.854224,0.8349992624568917,7.725530775119258
67.0,47970227735.94504,4317771491.519735,0.8343123430915469,7.706175033213481
68.0,64197950769.29969,5783095968.81616,0.8335986816711626,7.686213418639915
69.0,85995002063.16374,7752999255.804002,0.8328581905297191,7.665658074863971
70.0,115298939359.50737,10401058452.220749,0.8320907833135609,7.6445214257933864
71.0,154719916708.63284,13960774697.495337,0.8312963753153689,7.6228161588646755
72.0,207776268277.57553,18747969888.860474,0.8304748838159395,7.6005552081458845
73.0,279219625868.9648,25191905391.573067,0.8296262284335146,7.577751737500096
74.0,375484118311.96466,33877679350.881935,0.8287503314803506,7.554419123850742
75.0,505304065710.4771,45603025404.18019,0.8278471183262713,7.530570940585567
76.0,680556998160.9021,61453905216.147934,0.8269165177689316,7.506220941137355
77.0,917406887452.9075,82905685210.02074,0.8259584624104874,7.481383042773391
78.0,1237850896007.4033,111960458352.22382,0.8249728890403786,7.456071310623147
79.0,1671817013079.5408,151336269039.22284,0.8239597390239216,7.430299941970957
80.0,2260025075537.745,204730524565.42877,0.8229189586964006,7.404083250837545
81.0,3057914761646.985,277187548491.4117,0.8218504997623554,7.377435652871649
82.0,4141064175191.616,375609028618.68567,0.8207543196996694,7.350371650569049
83.0,5612678256463.406,509456997367.17615,0.8196303821681495,7.322905818835216
84.0,7613924461125.052,691714981365.9124,0.81847865742224,7.295052790905078
85.0,10338158755623.49,940198461158.6326,0.8172991227274878,7.266827244630207
86.0,14050459022223.658,1279346235146.3743,0.8160917627803622,7.238243889141886
87.0,19114427863713.336,1742684937546.7244,0.8148565701310204,7.209317451896484
88.0,26029025536769.92,2376244364407.2676,0.813593545608591,7.180062666107697
89.0,35479341106792.01,3243315146052.233,0.8123026987485492,7.150494258568203
90.0,48406810834281.12,4431086207949.619,0.8109840482216213,7.120626937862031
91.0,66106591628223.63,6059887939243.493,0.8096376222637828,7.090475382968199
92.0,90362732669774.7,8296022895363.745,0.8082634591068387,7.060054232253718
93.0,123635773006514.0,11369532354287.172,0.8068616074090265,7.029378072853765
94.0,169322885736173.7,15598790877206.924,0.8054321266850674,6.998461430435785
95.0,232118440186885.44,21424626270965.902,0.8039750877350712,6.967318759343573
96.0,318513966228806.1,29457826807970.098,0.802490573071685,6.935964433116802
97.0,437492310443355.06,40545531332954.63,0.8009786773448462,6.90441273538038
98.0,601493306569413.5,55864215855249.625,0.7994395077633386,6.872677851099845
99.0,827759729347184.1,77050003541201.94,0.7978731845125676,6.840773858196181
100.0,1140215715367786.2,106381149209120.78,0.7962798411677995,6.808714719514286
101.0,1572089856138047.2,147033344713118.12,0.7946596251020924,6.776514275139434
102.0,2169578533215663.8,203436824193406.78,0.7930126978881333,6.744186235055945
103.0,2996962240082391.0,281776328276481.6,0.7913392356931662,6.711744172142342
104.0,4143754041025446.0,390692409749129.75,0.7896394296662227,6.679201515496893
105.0,5734694347144788.0,542267314671628.25,0.7879134863167436,6.646571544088479
106.0,7943743058330963.0,753413204438151.8,0.7861616278836245,6.613867380728555
107.0,1.101369160441735e+16,1047828702749164.4,0.7843840926939396,6.581101986357445
108.0,1.5283679772454746e+16,1458756897318054.5,0.7825811355103746,6.548288154640483
109.0,2.122782865888079e+16,2032872773179855.8,0.7807530278664366,6.515438506869322
110.0,2.950950046691593e+16,2835763546424150.5,0.7789000583884955,6.482565487163822
111.0,4.105753073555445e+16,3959660028819195.0,0.7770225331037035,6.4496813579700625
112.0,5.717336201709014e+16,5534357252377475.0,0.7751207757329901,6.4167981958489655
113.0,7.968171869486163e+16,7742659817087440.0,0.7731951279680003,6.383927887552885
114.0,1.1114277270294272e+17,1.0842242072057578e+16,0.7712459497298433,6.351082126396099
115.0,1.551507631318391e+17,1.5196633530898164e+16,0.7692736194121282,6.318272408886222
116.0,2.1675518500313734e+17,2.131912614419395e+16,0.7672785341035746,6.285510031643406
117.0,3.0305465164799834e+17,2.9935015138885676e+16,0.7652611097907425,6.2528060885933705
118.0,4.240346641688959e+17,4.206986482343927e+16,0.763221781540293,6.220171468425431
119.0,5.937498775019754e+17,5.917477629844857e+16,0.7611610036599048,6.1876168523113275
120.0,8.31993475941082e+17,8.330425774173014e+16,0.7590792498360341,6.155152711889342
121.0,1.1666546285430246e+18,1.17369020392296e+17,0.7569770132481419,6.122789307507003
122.0,1.6370497888175572e+18,1.6549549512636992e+17,0.7548548066589359,6.090536686712986
123.0,2.2986326412606372e+18,2.3353739689072237e+17,0.7527131624798544,6.058404682993673
124.0,3.2296566019527936e+18,3.298036922847435e+17,0.7505526328099624,6.026402914760218
125.0,4.540599363165161e+18,4.66094878248033e+17,0.7483737894484273,5.994540784575068
126.0,6.387499055788475e+18,6.59178698925429e+17,0.7461772238800313,5.962827478610142
127.0,8.990831969470931e+18,9.328927360940486e+17,0.7439635472330496,5.931271966331926
128.0,1.266224114334414e+19,1.3211409705675064e+18,0.7417333902078981,5.899883000419126
129.0,1.7842383211348038e+19,1.872166535174436e+18,0.7394874029771592,5.868669116898261
130.0,2.5154535427808317e+19,2.6546462843019935e+18,0.7372262550564862,5.83763863549055
131.0,3.5480557086223372e+19,3.7663859408276255e+18,0.7349506351457672,5.806799660165709
132.0,5.006852707467668e+19,5.346725153594776e+18,0.7326612509394907,5.77616007990634
133.0,7.068526638950481e+19,7.594239865778467e+18,0.7303588289071697,5.745727569666267
134.0,9.983248101024232e+19,1.079201068939926e+19,0.7280441140435359,5.715509591516638
135.0,1.4105316948186726e+20,1.5343697076657433e+19,0.7257178695879032,5.685513395976546
136.0,1.993658956990613e+20,2.1825039525715714e+19,0.7233808767124312,5.655746023528239
137.0,2.8188031992292298e+20,3.105740173866066e+19,0.7210339341801939,5.6262143063002314
138.0,3.986696389871316e+20,4.421279655376208e+19,0.7186778579731095,5.596924869911885
139.0,5.640075130865305e+20,6.296385810337647e+19,0.7163134808892164,5.567884135477876
140.0,7.981209913070062e+20,8.969797600282945e+19,0.7139416521098504,5.53909832176823
141.0,1.1296746692772155e+21,1.2782305613011563e+20,0.7115632367376216,5.51057344750864
142.0,1.5992906960283566e+21,1.8220414408801232e+20,0.7091791153056161,5.482315333814232
143.0,2.2645374275294742e+21,2.5978677606555163e+20,0.706790183257514,5.454329606756782
144.0,3.206995647435462e+21,3.7048680725534166e+20,0.7043973503999191,5.426621700056863
145.0,4.542267074836742e+21,5.28460506430476e+20,0.7020015403277944,5.399196857887876
146.0,6.434147838039293e+21,7.539172683323403e+20,0.6996036898237513,5.372060137784948
147.0,9.114700141857043e+21,1.0757057283077543e+21,0.6972047482312489,5.345216413659835
148.0,1.291265867353985e+22,1.5350026234715263e+21,0.6948056768035404,5.31867037890992
149.0,1.8293627056020315e+22,2.190573579184416e+21,0.6924074480292919,5.292426549610848
150.0,2.5916947463186533e+22,3.1262743210397474e+21,0.6900110449358735,5.266489267786056
151.0,3.6716143976629592e+22,4.461740811945356e+21,0.6876174603708791,5.240862704754711
152.0,5.201263864939981e+22,6.367620376582287e+21,0.6852276962639734,5.215550864544078
153.0,7.3676461683626545e+22,9.087265981450087e+21,0.6828427628701027,5.190557587358266
154.0,1.0435334140657032e+23,1.2967626267116794e+22,0.6804636779952106,5.165886553097609
155.0,1.4778545122455119e+23,1.8503203268443945e+22,0.6780914662056041,5.141541284929461
156.0,2.0926417248242453e+23,2.6398586703995118e+22,0.6757271580230321,5.117525152896077
157.0,2.962689686512586e+23,3.7657381966048502e+22,0.6733717891066894,5.093841377553404
158.0,4.1936879785866104e+23,5.3708612247669076e+22,0.6710263994233409,5.070493033636627
159.0,5.934930638225552e+23,7.658627305537973e+22,0.6686920324072777,5.047483053751582
160.0,8.397227082492953e+23,1.0918429000300252e+23,0.6663697341118894,5.0248142320790015
161.0,1.1878130912444107e+24,1.5561839217406254e+23,0.6640605523542424,5.002489228086574
162.0,1.679747474672529e+24,2.2173942160215206e+23,0.6617655358539296,4.980510570246651
163.0,2.3747376564014122e+24,3.158610028398177e+23,0.6594857333682073,4.958880659756538
164.0,3.35625816716893e+24,4.497906007656761e+23,0.6572221928249012,4.937601774250714
165.0,4.741935739069933e+24,6.402897798623372e+23,0.6549759604545249,4.916676071500703
166.0,6.697452172955599e+24,9.11140838277336e+23,0.6527480799229928,4.896105593102268
167.0,9.456069783590294e+24,1.2960698467363134e+24,0.6505395914669425,4.875892268144847
168.0,1.334604318694345e+25,1.8428787922881282e+24,0.6483515310328601,4.856037916855343
169.0,1.8829082901249156e+25,2.619284114917812e+24,0.6461849294213858,4.836544254212655
170.0,2.6554319972533287e+25,3.721159580123525e+24,0.6440408114383246,4.817412893533854
171.0,3.7433940833179858e+25,5.284167084756865e+24,0.6419201950540581,4.798645350025626
172.0,5.274915788880468e+25,7.500158510699985e+24,0.6398240905723286,4.780243044295641
173.0,7.429861874522274e+25,1.064029369059826e+25,0.6377534998095993,4.762207305821006
174.0,1.0460619977860067e+26,1.5087596984901685e+25,0.6357094152866303,4.744539376375281
175.0,1.472116662597161e+26,2.1382781984648444e+25,0.6336928194334038,4.727240413407117
176.0,2.0707710324341424e+26,3.028871433400729e+25,0.6317046838082043,4.710311493367376
177.0,2.911550697227966e+26,4.2881043507901174e+25,0.6297459683318426,4.6937536149827706
178.0,4.0918249893986894e+26,6.067552017921846e+25,0.6278176205386524,4.677567702477296
179.0,5.747891487744466e+26,8.580676146491024e+25,0.6259205748447314,4.66175460873498
180.0,8.07044630849307e+26,1.2127911634675407e+26,0.6240557518340751,4.646315118402212
181.0,1.1326174141367972e+27,1.7131850141479525e+26,0.622224057563427,4.631249950928885
182.0,1.5887859497540877e+27,2.41865470192768e+26,0.6204263828872266,4.616559763548679
183.0,2.2276358740945868e+27,3.412658929711392e+26,0.6186636028025497,4.602245154193303
184.0,3.1219080308307136e+27,4.812379696708879e+26,0.6169365758144719,4.588306664339773
185.0,4.3731476838843497e+27,6.782252752079031e+26,0.6152461433226337,4.5747447817910825
186.0,6.123051126628377e+27,9.552887269539766e+26,0.6135931290298654,4.561559943389405
187.0,8.569259077619751e+27,1.344750979101293e+27,0.6119783383723814,4.5487525376583875
188.0,1.1987330877369782e+28,1.8918909385101787e+27,0.6104025579717082,4.536322907373967
189.0,1.6761326225916062e+28,2.66010209031216e+27,0.6088665551091654,4.524271352064943
190.0,2.3426328065022736e+28,3.7380909391819656e+27,0.6073710772230457,4.512598130441448
191.0,3.2727561337968886e+28,5.249918474870278e+27,0.605916851427826,4.501303462749532
192.0,4.570255993436044e+28,7.369002818491173e+27,0.6045045840552982,4.4903875330515195
193.0,6.3795401974822946e+28,1.033763329329149e+28,0.603134960218522,4.4798504914338535
194.0,8.901539141822412e+28,1.4494155277980548e+28,0.6018086433979548,4.469692456139934
195.0,1.2415748057182567e+29,2.031082842866956e+28,0.6005262750490915,4.459913515627527
196.0,1.731084141592833e+29,2.844653518228688e+28,0.5992884742312928,4.450513730550679
197.0,2.4127204369050955e+29,3.982012150648794e+28,0.5980958372587372,4.4414931356677885
198.0,3.3615976413464505e+29,5.571242373724733e+28,0.5969489373721385,4.432851741673276
199.0,4.68210254652421e+29,7.79081647189932e+28,0.5958483244306696,4.424589536953328
200.0,6.519276821800294e+29,1.0889325960872327e+29,0.5947945246237006,4.416706489266011
201.0,9.074623054099871e+29,1.5212903166472094e+29,0.5937880402031781,4.4092025473468945
202.0,1.2628043106149129e+30,2.1243328213507513e+29,0.5928293492348079,4.402077642438088
203.0,1.7568291564642625e+30,2.9650976646115894e+29,0.5919189053675975,4.395331689741585
204.0,2.4435265384378535e+30,4.1368375231129765e+29,0.5910571376215188,4.38896458979766
205.0,3.3978725779790014e+30,5.769235047014531e+29,0.5902444501937654,4.382976229788588
206.0,4.723982139075032e+30,8.042588462117538e+29,0.5894812222816681,4.377366484766565
207.0,6.566427869004776e+30,1.1207510594264544e+30,0.5887678079218606,4.372135218806594
208.0,9.125966392771492e+30,1.5612280211250898e+30,0.5881045358458278,4.367282286085631
209.0,1.2681381471934693e+31,2.17408113222842e+30,0.5874917093517535,4.362807531887318
210.0,1.761982733085649e+31,3.0265366196491184e+30,0.5869296061909856,4.358710793532197
211.0,2.447898537738957e+31,4.2119743033153354e+30,0.5864184784687065,4.354991901233984
212.0,3.400568223282935e+31,5.860087839975731e+30,0.5859585525594025,4.351650678883452
213.0,4.723736583538363e+31,8.150989497004138e+30,0.5855500290364484,4.34868694475861
214.0,6.561539522315267e+31,1.1334793573387785e+31,0.5851930826145935,4.346100512161886
215.0,9.114259946654e+31,1.5758811684971155e+31,0.5848878621049607,4.343891189984722
216.0,1.2660259984657416e+32,2.190531502113905e+31,0.5846344903835825,4.342058783201143
217.0,1.758649921425326e+32,3.0443977613414125e+31,0.5844330643722848,4.340603093288683
218.0,2.443102275809689e+32,4.2304723074537135e+31,0.5842836550312421,4.339523918577902
219.0,3.394213478055334e+32,5.877894118176701e+31,0.5841863073629301,4.338821054530829
220.0,4.716087961816362e+32,8.16601159904199e+31,0.5841410404288035,4.338494293949679
221.0,6.553597978487562e+32,1.1343927004002365e+32,0.5841478473771705,4.338543427114242
222.0,9.10841009937306e+32,1.5757666492381558e+32,0.5842066954821102,4.338968241849427
223.0,1.2661343904753011e+33,2.188796388757088e+32,0.5843175261933821,4.33976852352333
224.0,1.7603586699600233e+33,3.0402805219959772e+32,0.5844802551987468,4.340944054976778
225.0,2.4480268269349797e+33,4.223053070512189e+32,0.5846947724970794,4.342494616383085
226.0,3.4051327455784866e+33,5.8661571598946295e+32,0.5849609424825187,4.3444199850394005
227.0,4.7376596775081385e+33,8.149008949928832e+32,0.5852786040399549,4.34671993509029
228.0,6.593479785895757e+33,1.132111904555124e+33,0.5856475706530976,4.349394237183902
229.0,9.178999079013232e+33,1.5729565243042525e+33,0.5860676305236986,4.35244265806004
230.0,1.2782453290113308e+34,2.1857279162742523e+33,0.5865385467023704,4.3558649600711865
231.0,1.7806544163829058e+34,3.037642161755617e+33,0.5870600572317831,4.359660900637572
232.0,2.481417077334101e+34,4.2222810529058776e+33,0.5876318753030154,4.363830231635891
233.0,3.4592538383268687e+34,5.869975809352223e+33,0.5882536894240912,4.368372698721761
234.0,4.824307597380689e+34,8.162300878437678e+33,0.5889251636011636,4.373288040586544
235.0,6.730769069299068e+34,1.1352310902491487e+34,0.5896459375335583,4.37857598814999
236.0,9.394605009538942e+34,1.579280645155911e+34,0.5904156268229335,4.38423626368786
237.0,1.3118467192872445e+35,2.1975834314178283e+34,0.5912338231960612,4.390268579895129
238.0,1.832670837359393e+35,3.0587917542666586e+34,0.592100094741658,4.396672638885148
