Time,J,A,S,tau
0.0,100.0,100.0,0.48822269298937576,23.809523809523807
1.0,96.95162021986918,93.11466844861677,0.4883752704900005,23.770625931925725
2.0,93.9919165863293,86.69416881965651,0.48853356757475935,23.730302562449396
3.0,91.11983615976045,80.71057884727759,0.48869744782336944,23.688590992544174
4.0,88.33297355584328,75.13462573898325,0.4888668785482673,23.645502114151917
5.0,85.62908936366232,69.93895668067312,0.48904182527100415,23.601047269098295
6.0,83.00621038114971,65.09802361634,0.4892222517191374,23.555238246658824
7.0,80.46280522585936,60.58796627264461,0.48940811982308785,23.508087281132166
8.0,77.99806917660574,56.38650263154735,0.4895993897136763,23.45960704922624
9.0,75.61235174841383,52.47282546338958,0.48979601972041753,23.40981066724426
10.0,73.30775279843438,48.82750676455221,0.4899979663701809,23.3587116881638
11.0,71.08889350312191,45.43241048732986,0.4902051843867408,23.30632409848071
12.0,68.9638330987764,42.27060622837637,0.49041762669156164,23.25266231475925
13.0,66.9450685452514,39.32629045064864,0.49063524440500184,23.197741180073216
14.0,65.05051270760676,36.58471281212919,0.49085798684829385,23.14157596025962
15.0,63.30431631276959,34.03210722254699,0.49108580154632164,23.084182339983354
16.0,61.73741406339577,31.65563405292685,0.49131863422830346,23.0255764192621
17.0,60.38753249023479,29.44330454917021,0.49155642884078593,22.965774707220994
18.0,59.298740791121936,27.383929021291642,0.4917991275463265,22.90479411911006
19.0,58.52037009192729,25.467069306445275,0.4920466707284492,22.842651971858373
20.0,58.10537849994023,23.682995312372427,0.492298996998168,22.779365979270516
21.0,58.10814066058289,22.0226302120112,0.49255604320720736,22.714954245795262
22.0,58.581898561471334,20.477506124403238,0.492817744455721,22.649435261538873
23.0,59.57610476247844,19.039733087179602,0.4930236965554066,22.598064210224845
24.0,61.133395416970004,17.701933866167806,0.4931336714666258,22.57096536648034
25.0,63.287542318437964,16.457256125677567,0.49324212317175825,22.544270961656117
26.0,66.0612149121547,15.299322681220962,0.49334902034062755,22.517987451154056
27.0,69.46441884594125,14.222227649719557,0.493454332180237,22.492121145394307
28.0,73.49340433037925,13.22053883021562,0.4935580284415791,22.466678210066004
29.0,78.13031644355867,12.28934737716244,0.4936600794278468,22.441664665981154
30.0,83.34326122174514,11.4243619714122,0.4937604560018451,22.417086389132464
31.0,89.08676136682972,10.622071787609098,0.4938591295933187,22.39294911076008
32.0,95.3024920252261,9.879996213747388,0.49395607220693283,22.369258417245018
33.0,101.92017356458501,9.197005661876185,0.4940512564264578,22.34601975093186
34.0,108.85866860689823,8.573730845622151,0.4941446554231807,22.323238409880943
35.0,116.02760320318248,8.013024310524713,0.49423624296370505,22.300919547773518
36.0,123.3297679832749,7.520408210095685,0.49432599341532946,22.279068174388247
37.0,130.66427635199815,7.104404669871673,0.4944138817482719,22.257689156796097
38.0,137.93077710024468,6.77677693346466,0.49449988354681534,22.236787218420265
39.0,145.03345221355954,6.552480740369431,0.4945839750111586,22.216366940272405
40.0,151.88286774981117,6.4493656222016185,0.4946661329637365,22.196432761105356
41.0,158.39268459909258,6.48754641921968,0.4947463348541541,22.176988977878484
42.0,164.4691855325856,6.688492415729163,0.4948245587638074,22.158039746257508
43.0,169.99423756066236,7.0738660763568495,0.49490078341035415,22.139589081125784
44.0,174.80759556731354,7.664204368046326,0.4949749881519612,22.121640857116027
45.0,178.69906497946903,8.477545842509025,0.4950471529912442,22.104198809180563
46.0,181.42125390395984,9.528118465964823,0.49511725857924643,22.08726653312466
47.0,182.72671207454545,10.825203050411169,0.4951852862188495,22.070847486227656
48.0,182.42018484581138,12.37224262707785,0.4952512178673699,22.054944988005875
49.0,180.40807016378778,14.166241863266778,0.4953150361421697,22.03956222031802
50.0,176.72367500445097,16.197576585150752,0.495376724321543,22.024702228404138
51.0,171.51928836639536,18.45006350313434,0.4954362663464344,22.010367921736066
52.0,165.0318900218738,20.901294282370483,0.49549364682544633,21.996562074165123
53.0,157.5364970231666,23.523287329032854,0.495548851034266,21.983287325131638
54.0,149.30423604134148,26.28319482047695,0.49560186492110436,21.970546179652953
55.0,140.57498511666114,29.144178001336897,0.4956526751053648,21.958341009638016
56.0,131.54592561995642,32.06639163975131,0.4957012688809078,21.94667405421816
57.0,122.37196321010128,35.00817705439572,0.4957476342178205,21.93554742037368
58.0,113.17230197366612,37.92759360997652,0.49579175976134965,21.924963084042613
59.0,104.03803346885157,40.78435754075001,0.495833634836396,21.91492289012583
60.0,95.03871681619067,43.54201670880487,0.4958732494444338,21.90542855392259
61.0,86.22697907714381,46.1697869256353,0.49591059426802997,21.896481661035633
62.0,77.64270258777809,48.642879086990554,0.4959456606669357,21.88808366888127
63.0,69.31837560057502,50.93995859056725,0.49597844068292285,21.88023590646771
64.0,61.28740130637237,53.03674099144401,0.4960089270373673,21.872939575525276
65.0,53.59484574430399,54.89667190982653,0.4960371131314548,21.866195751077004
66.0,46.30735206416155,56.46239232699988,0.4960629930430152,21.860005382646634
67.0,39.51726958298192,57.65287478389322,0.49608656153090763,21.854369293944377
68.0,33.33514733385401,58.371944260687755,0.4961078140313178,21.84928818406748
69.0,27.870099345015504,58.52819499095996,0.4961267466576587,21.84476262796431
70.0,23.20342379296714,58.060654279940785,0.496143356199266,21.84079307709034
71.0,19.365724896830624,56.95996106341502,0.4961576401204569,21.837379859951167
72.0,16.327214886618126,55.275830096982325,0.4961695965587417,21.834523182747972
73.0,14.004578790933673,53.10818878844802,0.4961792243234448,21.83222312993231
74.0,12.28060513307576,50.58633598724092,0.496186522893603,21.830479664819507
75.0,11.028121704202073,47.84500832925576,0.49619149241643556,21.8292926300686
76.0,10.130470534441939,45.00506696962168,0.4961941337050873,21.82866174825003
77.0,9.494328355213565,42.16267561543671,0.4961944482363592,21.82858662237394
78.0,9.054757225630482,39.38664518149118,0.49619243814817054,21.829066736425162
79.0,8.77473775677174,36.72127529632381,0.49618810623704984,21.83010145585017
80.0,8.64187644545463,34.1916837893991,0.4961814559558961,21.83169002794955
81.0,8.664232428965313,31.80942785664173,0.49617249141035186,21.833831582476417
82.0,8.86631775123015,29.577193019264786,0.4961612173559778,21.836525132073447
83.0,9.285519026179674,27.492281747536165,0.4961476391951148,21.839769572701368
84.0,9.968840161901953,25.54897260601182,0.49613176297357425,21.843563684058953
85.0,10.969720465202593,23.74001194452886,0.4961135953770225,21.847906130028335
86.0,12.344805142119563,22.05751471914917,0.49609314372755514,21.852795459043026
87.0,14.150639554044051,20.49348626023613,0.4960704159799297,21.8582301044765
88.0,16.440352177371036,19.040109470810027,0.49604542071746427,21.86420838505637
89.0,19.26048102150462,17.689895767204728,0.49601816714797126,21.870728505235448
90.0,22.648123528189757,16.435760290083334,0.495988665099676,21.877788555527964
91.0,26.62863756981378,15.271060657682455,0.495956925016732,21.88538651287611
92.0,31.213807446385164,14.189612207880286,0.4959229579550943,21.893520240935704
93.0,36.401003942845804,13.185723790644253,0.49588677557951627,21.902187490064247
94.0,42.17270220012815,12.254224181565144,0.4958483901555463,21.911385898272776
95.0,48.496748649879784,11.390545194176855,0.4958078145471398,21.921112991053587
96.0,55.32684922019097,10.590841067898396,0.4957650622092663,21.931366182174077
97.0,62.603907550162376,9.852230966986522,0.4957201471870407,21.942142773095394
98.0,70.25717138719037,9.173090953578082,0.495673084105485,21.953439954235286
99.0,78.20556434337895,8.553463622117926,0.4956238881689054,21.965254804330655
100.0,86.35957509660155,7.9955077851593,0.49557257515289543,21.977584291169062
101.0,94.62349375699954,7.503928305430167,0.49551916139801816,21.990425272018097
102.0,102.89877568550018,7.086368733840778,0.4954636638083773,22.003774493007672
103.0,111.08801554340947,6.753569705521793,0.4954060998399064,22.01762859056902
104.0,119.09913252345649,6.519379112332691,0.49534648749979965,22.031984090598584
105.0,126.84757567653259,6.40042902534734,0.49528484533743444,22.04683740931554
106.0,134.25416395519977,6.415559011786708,0.49522119243974766,22.062184853188754
107.0,141.2360900809809,6.5849504272594155,0.4951555484247263,22.078022619229362
108.0,147.69129592286663,6.929041859285333,0.4950879334352082,22.09434679519726
109.0,153.48075393997584,7.467300770871306,0.49501836813256683,22.111153359810665
110.0,158.4177257594055,8.216948862716173,0.4949468736902843,22.128438182959847
111.0,162.27419922390874,9.19174289517879,0.49487347178750457,22.146197025906428
112.0,164.80976623792182,10.400919372567454,0.49479818460221636,22.16442554154465
113.0,165.81768219621654,11.84836159987523,0.4947210348049933,22.18311927452554
114.0,165.1726052851305,13.532049558818144,0.4946420455515369,22.20227366163651
115.0,162.86324284394053,15.443862005103652,0.49456124047850514,22.22188403139512
116.0,158.99377209852327,17.56964520073757,0.4944786436911253,22.241945605549212
117.0,153.76165403607618,19.889529035181862,0.4943942797621201,22.262453497940896
118.0,147.41708105959347,22.378535901645296,0.4943081737201965,22.283402715777157
119.0,140.2224801600097,25.007289418859333,0.4942203510458263,22.30478815918901
120.0,132.4214924195286,27.742839281653527,0.49413083766261456,22.326604621824348
121.0,124.22224682382442,30.549564155734036,0.49403965992981613,22.34884679116765
122.0,115.79270056593178,33.390165475801005,0.4939468446363765,22.371509248472563
123.0,107.26405688675268,36.22685846127749,0.4938524189918957,22.394586469454207
124.0,98.73714546277883,39.022815845828276,0.4937564106197475,22.418072824447286
125.0,90.28888085642404,41.743903446162676,0.4936588475504085,22.441962578492696
126.0,81.97748718739588,44.360412264714455,0.49355975821207604,22.466249892136897
127.0,73.8463421008916,46.84827720310467,0.4934591714242259,22.490928821465456
128.0,65.92780994089077,49.188706345426986,0.4933571163905991,22.515993318265792
129.0,58.24846153238606,51.36526347536626,0.4932536226896154,22.541437230910145
130.0,50.836465202687336,53.358024590896385,0.49314872026727996,22.56725430456551
131.0,43.73064746212955,55.13574532536074,0.49304243942957443,22.59343818154294
132.0,36.9885122940535,56.64903558321893,0.49293481083439594,22.61998240177926
133.0,30.689092814066928,57.82856211168745,0.492825865482904,22.646880403512828
134.0,24.927212086921745,58.59163300667098,0.4927156347124953,22.67412552348263
135.0,19.79837052943054,58.8576190883766,0.49260415018816917,22.70171099761705
136.0,15.378300713787866,58.56792653270736,0.49249144389450444,22.729629961555606
137.0,11.70427086056992,57.703494781118714,0.49237754812744355,22.757875451243596
138.0,8.76514816200943,56.29304286906525,0.4922624954863241,22.78644040346132
139.0,6.503701154555927,54.409200530152106,0.49214631886513466,22.8153176566267
140.0,4.829242499070096,52.154743660051736,0.4920290514445898,22.844499951345963
141.0,3.635578549617395,49.64440881656513,0.49191072668374003,22.87397993113745
142.0,2.8183430278026376,46.988232758516695,0.4917913783115636,22.90375014318464
143.0,2.2877864554376175,44.2801802670149,0.4916710403186093,22.933803039093966
144.0,1.9757854244643165,41.59300330628235,0.49154974694855347,22.96413097570662
145.0,1.8379124709510737,38.97815862956557,0.4914275326897394,22.994726215943306
146.0,1.8522889009730468,36.468765037581704,0.49130443226667914,23.025580929689266
147.0,2.0168675796381756,34.08373462479316,0.4911804806316444,23.056687194669184
148.0,2.3461946589631046,31.831838755275403,0.4910557129559519,23.08803699747733
149.0,2.868226442771198,29.71507415779931,0.4909301646215139,23.11962223452835
150.0,3.6212999663417347,27.731188482578684,0.49080387121221986,23.151434713108472
151.0,4.651209274747192,25.875433976693724,0.4906768685053245,23.18346615245757
152.0,6.008302317281087,24.141722602183396,0.4905491924628135,23.21570818489468
153.0,7.744556035404364,22.523354557484243,0.4904208792227479,23.248152356987752
154.0,9.910656124822571,21.013460837787925,0.4902919650905845,23.280790130771482
155.0,12.553172597310112,19.605262511209332,0.4901624865304863,23.31361288500656
156.0,15.711959262128598,18.292216747458067,0.49003248015662004,23.346611916481965
157.0,19.41789362718719,17.068093918208294,0.489901982724374,23.379778441404753
158.0,23.691078295527983,15.927018520438923,0.4897710311217658,23.413103596710215
159.0,28.53956160683316,14.863485764023382,0.4896396623603097,23.44657844176998
160.0,33.958753760793925,13.872391582073963,0.4895079135670324,23.480193959327142
161.0,39.93131068018331,12.949046024990354,0.48937582197475965,23.513941057692545
162.0,46.42727290753044,12.08920670695347,0.4892434249138594,23.54781057200973
163.0,53.40510732187278,11.289163117395558,0.48911075980317603,23.581793266053154
164.0,60.81254206071779,10.545842613656303,0.48897786414131694,23.615879833947307
165.0,68.58796953442373,9.857006829151942,0.48884477549802424,23.650060901620655
166.0,76.66173830667421,9.221485538203943,0.4887115315048645,23.684327029160958
167.0,84.95755004942464,8.639497518115142,0.4885781698468705,23.718668712130007
168.0,93.39424556630344,8.11299307030171,0.48844472825330026,23.753076383898627
169.0,101.88784464846543,7.6459901373663905,0.48831124448895186,23.787540417511902
170.0,110.35438441590343,7.244875478733646,0.4881777563452627,23.822051127541044
171.0,118.71316173306967,6.918554873220184,0.48804430163132595,23.856598772554218
172.0,126.89002943483555,6.678473867965606,0.4879109181651321,23.89117355691532
173.0,134.81947296335457,6.538428561981659,0.48777764376456106,23.92576563320497
174.0,142.44361973457654,6.514172152561998,0.4876445162385117,23.960365104430366
175.0,149.70640508728707,6.622816678707085,0.48751157337797546,23.994962026331397
176.0,156.5422462507757,6.882063378728607,0.4873788529471003,24.02954640978654
177.0,162.86103581304403,7.309304634290484,0.48724639267426256,24.06410822325237
178.0,168.53445960435405,7.92066226112055,0.48711423024312694,24.098637395265403
179.0,173.3907654573144,8.730029558174037,0.4869824032837307,24.133123817010944
180.0,177.2244385788893,9.74818514099288,0.4868509493634163,24.16755734490033
181.0,179.8222372672169,10.98204689204371,0.4867199059780839,24.20192780332577
182.0,181.00058442170163,12.434099456894616,0.48658931054299925,24.236224987315563
183.0,180.64237511507085,14.102027327075133,0.48645920038414014,24.270438665381
184.0,178.72300639744824,15.978593442251764,0.4863296127283382,24.304558582262473
185.0,175.31356356947177,18.051742149709145,0.48620058469566324,24.33857446204635
186.0,170.56661905920706,20.304837718340398,0.4860721532895505,24.372476010936605
187.0,164.68792555108004,22.717138177627763,0.4859443553876426,24.406252920335138
188.0,157.90456722289355,25.26435925868996,0.4858172277336839,24.439894869960394
189.0,150.43831689019538,27.919311909593606,0.4856908069274247,24.473391530928563
190.0,142.4880722380322,30.652604028660967,0.4855651294165212,24.506732568977117
191.0,134.22167978470117,33.433368225990684,0.48544023148688265,24.53990764769924
192.0,125.7751417207755,36.230059896700936,0.48531614925397787,24.572906431839385
193.0,117.25593796420961,39.01136277894292,0.4851929186537558,24.605718590653513
194.0,108.74786293398466,41.74727318495428,0.4850705754335141,24.63833380130652
195.0,100.3156336511889,44.41035895574727,0.48494915514266607,24.670741752360314
196.0,92.00856095678755,46.97708084312388,0.48482869312475996,24.70293214718091
197.0,83.86310928177606,49.42890329540347,0.4847092245067643,24.734894707639196
198.0,75.90533128339521,51.75254827034424,0.4845907841910036,24.766619177641868
199.0,68.15388828403648,53.938745928482525,0.4844734068457258,24.79809532682475
200.0,60.62461181700055,55.978892516435565,0.48435712689635835,24.829312954214597
201.0,53.336799577063466,57.85968144676008,0.4842419785164814,24.860261891957194
202.0,46.32050144452165,59.55667284605329,0.4841279956185316,24.890932009137423
203.0,39.622670925427535,61.02897651543012,0.48401521184492863,24.921313215582423
204.0,33.30940365703885,62.21787823169089,0.4839036605586902,24.95139546577945
205.0,27.46190100754854,63.0515335580211,0.4837933748346048,24.981168762745586
206.0,22.16569567641188,63.456092860527065,0.48368438744993825,25.010623162012955
207.0,17.495384501722878,63.370763132883106,0.4835767308754513,25.03974877559611
208.0,13.499343072528584,62.76235508237839,0.48347043726632905,25.068535776007533
209.0,10.18927670672735,61.634572516221255,0.4833655384530318,25.096974400320974
210.0,7.537812212095662,60.02915592593502,0.4832620659322404,25.12505495424716
211.0,5.484327653440821,58.019006104606184,0.4831600508579165,25.152767816213913
212.0,3.946501061053948,55.696059726996474,0.4830595240320968,25.180103441526867
213.0,2.8338441783277863,53.15781575517165,0.4829605158958156,25.207052366530593
214.0,2.0597820971183145,50.49592330688103,0.4828630565201195,25.233605212771536
215.0,1.550274651304103,47.78869626213302,0.4827671755969742,25.259752691206117
216.0,1.2485361255501584,45.09780047547269,0.482672902430243,25.285485606411665
217.0,1.1164988604209263,42.468253663491666,0.4825802659266742,25.310794860812287
218.0,1.1341015723418346,39.93046475911787,0.4824892945869383,25.33567145890674
219.0,1.2974294646463513,37.50314322891989,0.48240001649645353,25.36010651156391
220.0,1.6163861341012518,35.19627369665071,0.4823124593166912,25.384091240205475
221.0,2.1123061339591533,33.01369288348557,0.4822266502760393,25.407616981112856
222.0,2.815629090667258,30.955128023796345,0.4821426161609791,25.430675189657045
223.0,3.76363732895279,29.01769405646265,0.48206038330713313,25.453257444568436
224.0,4.998219519060503,27.196942664224615,0.48197997759040595,25.475355452183972
225.0,6.56362656005526,25.4875676420112,0.4819014244182222,25.496961050666986
226.0,8.504230415235684,23.883864629561433,0.4818247487206791,25.518066214249167
227.0,10.862332075391697,22.380022669033735,0.4817499749417846,25.53866305744434
228.0,13.676067798252813,20.970301747451128,0.48167712703079435,25.558743839228306
229.0,16.977533065599097,19.649139247661925,0.48160622843354156,25.578300967210623
230.0,20.791164807813484,18.411209193403586,0.48153730208365747,25.597327001831125
231.0,25.132461888670644,17.25145197418927,0.4814703703952982,25.615814660085878
232.0,30.007117838937365,16.16509775630352,0.48140545525210404,25.633756820381414
233.0,35.41062949770416,15.147683448867001,0.4813425779994877,25.651146526371665
234.0,41.32816271901422,14.195064874194637,0.4812817594371313,25.667976990704027
235.0,47.73474696383195,13.303436573753448,0.48122301981285104,25.684241598300968
236.0,54.59586087725486,12.469385149291831,0.4811663788107534,25.699933911408444
237.0,61.868254830083984,11.689965182313308,0.48111185554438096,25.715047673063815
238.0,69.50088225846106,10.96281911139638,0.4810594685477958,25.729576811187865
239.0,77.43587771893974,10.286343098802192,0.48100923576888993,25.743515441935827
240.0,85.60958358284317,9.659908908992474,0.4809611745616284,25.756857873352654
241.0,93.95365682683783,9.084132507155054,0.48091530167826435,25.769598609004667
242.0,102.39637221666163,8.561174054271365,0.4808716332603804,25.781732351964862
243.0,110.86432445852432,8.095033462423558,0.48083018483152273,25.793254008245125
244.0,119.28456592865115,7.691795801190994,0.48079097129013,25.804158690091192
245.0,127.5870482820514,7.359763929195016,0.48075400690561926,25.81444171818489
246.0,135.7072345401819,7.109517581684127,0.4807193053043572,25.82409862716601
247.0,143.5876156156857,6.95375931675994,0.4806868794689334,25.833125166688912
248.0,151.17706113954333,6.907029998955187,0.48065674172758643,25.841517305714422
