Time,J,A,S,tau
0,100,100,0.999575309,5.555555556
1,99.96402843,98.70083905,0.999349732,5.29875406
2,99.92314525,97.37522853,0.999077723,5.015232687
3,99.87669846,96.02423347,0.998752582,4.704959082
4,99.82391278,94.64824505,0.998366406,4.367707327
5,99.76694836,93.24470919,0.99808628,4.205674439
6,99.70298633,91.81604652,0.997837324,4.117586129
7,99.62982677,90.3639809,0.99755789,4.032491876
8,99.5462446,88.88920662,0.99724461,3.950235591
9,99.45089419,87.39250037,0.996893822,3.870675242
10,99.34229174,85.87472199,0.996501536,3.793684107
11,99.21883713,84.33683195,0.996063413,3.719146021
12,99.07881314,82.77988921,0.995574752,3.646956768
13,98.92045796,81.20507441,0.995030493,3.577019292
14,98.74200547,79.61372163,0.994425149,3.509246437
15,98.54182602,78.00733082,0.993752888,3.443555799
16,98.31880659,76.38775751,0.993007353,3.379873905
17,98.07223995,74.75707282,0.992181924,3.318129905
18,97.80327198,73.11818847,0.991269394,3.258260043
19,97.51462049,71.47467164,0.990262257,3.200203588
20,97.21303615,69.83178822,0.989152508,3.143904788
21,96.91031598,68.19702605,0.987931763,3.089311353
22,96.62601674,66.58158773,0.986591234,3.036374833
23,96.3902552,65.00252697,0.985121755,2.985050459
24,96.24591347,63.48579949,0.98351381,2.935297178
25,96.24832789,62.07068932,0.981757561,2.887077804
26,96.45811556,60.8152057,0.979842889,2.8403593
27,96.92050091,59.80199687,0.977759432,2.795113213
28,97.62504527,59.14165687,0.975496626,2.751316248
29,98.44947888,58.96762541,0.973043748,2.70895104
30,99.12048632,59.41273428,0.970389957,2.668007097
31,99.25452367,60.5582397,0.967524327,2.628482001
32,98.52325112,62.36095695,0.964435859,2.590382854
33,96.86729166,64.60066404,0.961113489,2.553727984
34,94.56906996,66.91804819,0.957546048,2.518548963
35,92.08731402,68.96606028,0.953722202,2.484892939
36,89.80087371,70.57426952,0.949630328,2.45282525
37,87.87586535,71.79285087,0.945258334,2.422432392
38,86.28757131,72.81215761,0.940593402,2.393825218
39,84.89128846,73.85617913,0.935621644,2.367142366
40,83.4789573,75.10944754,0.93032766,2.342553843
41,81.83469384,76.67512854,0.924693988,2.320264613
42,79.80580119,78.55393567,0.918700447,2.300518059
43,77.36547004,80.65013535,0.912323392,2.283599126
44,74.6209288,82.81364873,0.905534876,2.269836931
45,71.75452919,84.90588792,0.898301785,2.259606411
46,68.93904786,86.8541752,0.890584984,2.253328993
47,66.27961781,88.66595023,0.882338552,2.251471701
48,63.80140473,90.40428045,0.873509181,2.254544715
49,61.47141686,92.14724435,0.864035958,2.263096445
50,59.23322042,93.95327298,0.853850474,2.277706967
51,57.04215246,95.84267329,0.842877619,2.298978534
52,54.89014342,97.79651758,0.831037032,2.327524022
53,52.81333303,99.76927957,0.818245365,2.363953058
54,50.88211143,101.7079366,0.804419449,2.408856257
55,49.18131572,103.5688141,0.789480318,2.462787761
56,47.79049387,105.3263905,0.773357954,2.52624716
57,46.77121514,106.97329,0.755996707,2.599660726
58,46.16329027,108.5142054,0.737360772,2.683363932
59,45.98717888,109.9582346,0.717439782,2.777584158
60,46.25000863,111.3125877,0.696253628,2.882425965
61,46.95214071,112.5791125,0.67385661,2.997857306
62,48.09235187,113.7538217,0.650338797,3.123703328
63,49.67241559,114.8280464,0.625827711,3.259635324
64,51.69529725,115.7909252,0.600485846,3.405169732
65,54.16690898,116.6319077,0.574507456,3.559665615
66,57.09333968,117.3428546,0.548112926,3.722326215
67,60.47836186,117.9194942,0.521541629,3.892203123
68,64.32006123,118.3622098,0.495044053,4.068199851
69,68.60765788,118.6762303,0.468873246,4.249078647
70,73.31815627,118.8714221,0.443276605,4.433467114
71,78.4144216,118.9619431,0.418488343,4.619865193
72,83.84084335,118.9656269,0.394723377,4.806652749
73,89.52209215,118.903537,0.372172882,4.992097898
74,95.36067666,118.7995385,0.351001332,5.174364296
75,101.2345829,118.6798298,0.33134587,5.351520873
76,106.9971683,118.5727087,0.313316978,5.521551822
77,112.4771276,118.5082484,0.297001034,5.682369527
78,117.4804626,118.5180678,0.282463835,5.831830064
79,121.7943865,118.6349867,0.269755262,5.96775354
80,125.1940331,118.8925507,0.258914465,6.087950011
81,127.4521651,119.3242935,0.249975347,6.190252682
82,128.3530697,119.9625872,0.242972056,6.272560126
83,127.7099116,120.8368472,0.237944169,6.332888347
84,125.3854283,121.9708492,0.234941238,6.369433399
85,121.3138397,123.3788042,0.234026388,6.380645612
86,115.5214726,125.0601577,0.235278403,6.365310936
87,108.1454967,126.9930075,0.238792014,6.322641196
88,99.44051171,129.1268427,0.244675459,6.252360067
89,89.77184309,131.3755653,0.253044894,6.154785162
90,79.59183064,133.6137172,0.264014958,6.03088985
91,69.40068894,135.6794491,0.277685328,5.882336712
92,59.69472035,137.388132,0.294123585,5.711472432
93,50.90926238,138.5586566,0.313345628,5.521276379
94,43.3670904,139.0493213,0.335295959,5.315260985
95,37.24200848,138.7938825,0.35983085,5.097329615
96,32.5469165,137.8237128,0.386708214,4.871602064
97,29.14977119,136.2654552,0.415587068,4.642225931
98,26.80856428,134.3148365,0.446038351,4.413192185
99,25.2138451,132.1972207,0.477566851,4.18817301
100,24.03045955,130.1273218,0.509641454,3.970395581
101,22.93945775,128.2742365,0.541729458,3.76255909
102,21.68538709,126.7327117,0.573329975,3.566795766
103,20.12546852,125.5033258,0.60400197,3.384671539
104,18.2614396,124.4904242,0.633383979,3.217218317
105,16.22732663,123.5290311,0.661204217,3.064988473
106,14.22580264,122.4408421,0.687281736,2.92812212
107,12.44015487,121.098009,0.711520183,2.806419789
108,10.97058501,119.4604509,0.733896493,2.699414119
109,9.823485304,117.5687292,0.75444687,2.606436575
110,8.942747381,115.5060643,0.773251979,2.52667689
111,8.251190202,113.3582975,0.790422943,2.459233895
112,7.67994311,111.1900506,0.806089008,2.403157788
113,7.180711164,109.0388458,0.820387399,2.357484182
114,6.725841776,106.9202124,0.83345548,2.321260698
115,6.302721021,104.8364189,0.845425078,2.293567075
116,5.907248238,102.7842248,0.856418676,2.273529899
117,5.538785093,100.75986,0.866547214,2.26033245
118,5.197220151,98.76123199,0.875909126,2.253220995
119,4.881830187,96.7883288,0.884590199,2.251508206
120,4.591133227,94.84271106,0.892664168,2.254573888
121,4.323176585,92.92681302,0.900193668,2.261864053
122,4.075871625,91.04336407,0.907231431,2.272888578
123,3.84723288,89.19502358,0.913821591,2.287217859
124,3.635501203,87.38419813,0.920000976,2.30447879
125,3.439179902,85.61297787,0.925800351,2.32435032
126,3.257020319,83.88313647,0.931245543,2.34655877
127,3.087985734,82.19615709,0.936358442,2.370873199
128,2.931216315,80.5532675,0.941157866,2.39710068
129,2.785981472,78.95546868,0.945660275,2.425081973
130,2.651660503,77.40356447,0.949880372,2.454687206
131,2.527727239,75.89818319,0.953831562,2.485812289
132,2.413706073,74.43979223,0.957526322,2.518375153
133,2.309179882,73.02871588,0.960976472,2.552312772
134,2.213774062,71.66515161,0.964193387,2.587577917
135,2.127159796,70.34918212,0.967188117,2.62413705
136,2.049056084,69.08078516,0.969971473,2.661968526
137,1.979190156,67.85984533,0.972554083,2.701059936
138,1.917360963,66.68617858,0.974946423,2.741406812
139,1.863396605,65.55952469,0.977158777,2.783012212
140,1.817163238,64.47958123,0.979201285,2.825883818
141,1.778595241,63.44600081,0.981083849,2.870035034
142,1.747641252,62.45840859,0.982816164,2.915482647
143,1.724340642,61.51641988,0.984407662,2.962247243
144,1.708775857,60.61964734,0.985867476,3.010352424
145,1.701101246,59.76771821,0.987204437,3.059824449
146,1.70156362,58.96028971,0.98842704,3.110692109
147,1.710482802,58.1970591,0.98954342,3.162986522
148,1.728282681,57.47778149,0.990561347,3.216741083
149,1.755499922,56.80228439,0.991488206,3.271991467
150,1.79279011,56.17048131,0.992331005,3.328775638
151,1.840949226,55.58238973,0.993096359,3.387134003
152,1.900929048,55.03814716,0.993790499,3.447109563
153,1.973856832,54.53802855,0.994419275,3.508748135
154,2.061049007,54.0824637,0.99498816,3.572098608
155,2.164039677,53.67205707,0.995502264,3.637213291
156,2.284598848,53.30760614,0.995966345,3.70414829
157,2.424752845,52.99012098,0.996384819,3.772963945
158,2.58680811,52.72084548,0.996761777,3.843725387
159,2.773369527,52.50127583,0.997100999,3.916503104
160,2.987349222,52.33317871,0.997405969,3.991373605
161,3.231983719,52.21861096,0.997679893,4.068420248
162,3.510829167,52.1599316,0.997925716,4.14773404
163,3.827754625,52.1598157,0.998146133,4.229414687
164,4.186922812,52.22125837,0.998343611,4.313571636
165,4.592752027,52.34757613,0.998520402,4.40032536
166,5.049880034,52.54239754,0.998678556,4.489808708
167,5.563096718,52.80964484,0.998819941,4.58216843
168,6.137299436,53.15350485,0.998946252,4.677566927
169,6.777419739,53.57838522,0.999059025,4.776184025
170,7.488397703,54.08885986,0.999159654,4.878219168
171,8.275150892,54.68959843,0.999249398,4.983893467
172,9.142623246,55.38528544,0.999329393,5.093452362
173,10.09587717,56.1805283,0.999400664,5.20716806
174,11.14024665,57.07975977,0.999464137,5.325342285
175,12.28163698,58.08713646,0.999520641,5.448309451
176,13.52688254,59.20644361,0.999570923,5.57643955
177,14.88421854,60.44100946,0.999615654,5.710141273
178,16.36384648,61.79363426,0.999655436,5.849865205
179,17.97863703,63.26653823,0.999690807,5.996107115
180,19.74489938,64.86133691,0.999722249,6.149410839
181,21.6831568,66.57904206,0.999750194,6.310370672
182,23.81913755,68.4200764,0.999775027,6.479634195
183,26.18475558,70.38431631,0.999797092,6.657903532
184,28.81925643,72.47113597,0.999816697,6.845936628
185,31.77043818,74.67945836,0.999834115,7.044546824
186,35.09614616,77.0077917,0.99984959,7.254601855
187,38.86595055,79.45425029,0.999863338,7.477020907
188,43.16316363,82.01654726,0.999875555,7.712770166
189,48.08730127,84.69195425,0.999886411,7.962856502
190,53.75699767,87.47722762,0.999896059,8.228318932
191,60.31348989,90.36850362,0.999904635,8.510217927
192,67.92494082,93.36116514,0.99991226,8.809622604
193,76.79155145,96.44969355,0.999919041,9.127595755
194,87.1516987,99.62751655,0.999925073,9.465177018
195,99.28923912,102.8868678,0.99993044,9.823364575
196,113.5421343,106.2186745,0.999935218,10.20309589
197,130.3125449,109.6124895,0.999939472,10.60522815
198,150.0785127,113.0564809,0.999943262,11.03051919
199,173.4072946,116.5374911,0.99994664,11.47960969
200,200.9703562,120.0411705,0.999949652,11.95300752
201,233.5597343,123.5521864,0.999952339,12.45107502
202,272.1056196,127.0544992,0.999954737,12.9740198
203,317.6944161,130.5316942,0.999956879,13.52188962
204,371.5865788,133.9673515,0.999958794,14.09457151
205,435.2327504,137.3454319,0.999960506,14.69179531
206,510.2868322,140.6506554,0.999962039,15.31314123
207,598.6142493,143.8688527,0.999963411,15.958051
208,702.2933299,146.9872667,0.999964642,16.62584213
209,823.607536,149.9947921,0.999965746,17.31572439
210,965.0269704,152.8821434,0.999966737,18.0268178
211,1129.177703,155.6419482,0.999967627,18.75817121
212,1318.798092,158.2687665,0.999968429,19.50878094
213,1536.635403,160.7265858,0.99996915,20.27760863
214,1539.537862,62.2835963,0.999969801,21.06359793
215,1536.921187,24.55893077,0.999970388,21.86568944
216,1534.447439,10.59075025,0.999970919,22.68283403
217,1532.114165,5.363588255,0.999971398,23.51400396
218,1529.917822,3.35431924,0.999971833,24.35820212
219,1527.853977,2.531673848,0.999972227,25.21446931
220,1525.917498,2.148829456,0.999972585,26.08188964
221,1524.102738,1.931366143,0.999972911,26.95959444
222,1522.403697,1.778544778,0.999973208,27.84676459
223,1520.81416,1.653430928,0.999973478,28.74263169
224,1519.327821,1.542432323,0.999973725,29.64647821
225,1517.938385,1.44072083,0.999973951,30.5576369
226,1516.639652,1.346307225,0.999974159,31.47548931
227,1515.425576,1.258372835,0.999974349,32.39946399
228,1514.290323,1.176505233,0.999974524,33.32903439
229,1513.228299,1.100393593,0.999974685,34.26371639
230,1512.234183,1.029744758,0.999974834,35.20306574
231,1511.302934,0.964268908,0.999974971,36.14667544
232,1510.429805,0.903688817,0.999975098,37.09417312
233,1509.61034,0.847712922,0.999975216,38.04521847
234,1508.840373,0.796046134,0.999975326,38.99950073
235,1508.116017,0.748401854,0.999975429,39.95673627
236,1507.433655,0.704514786,0.999975524,40.91666637
237,1506.789932,0.664120167,0.999975614,41.87905508
238,1506.181732,0.626963,0.999975697,42.84368718
239,1505.606173,0.592804533,0.999975776,43.81036635
240,1505.060587,0.561429324,0.99997585,44.77891343
241,1504.542505,0.532628093,0.99997592,45.74916489
242,1504.049647,0.506204561,0.999975986,46.72097129
243,1503.579901,0.481978681,0.999976048,47.69419601
244,1503.131318,0.459790362,0.999976108,48.66871398
245,1502.702089,0.439486229,0.999976164,49.64441058
246,1502.290541,0.420922393,0.999976218,50.62118063
247,1501.895123,0.403974424,0.99997627,51.59892743
248,1501.514393,0.388531115,0.999976319,52.57756194
249,1501.14701,0.374479439,0.999976367,53.557002
250,1500.791723,0.361728442,0.999976412,54.53717159
251,1500.447363,0.350190888,0.999976456,55.51800024
252,1500.112837,0.339784975,0.999976499,56.49942239
253,1499.787113,0.330446464,0.99997654,57.4813769
254,1499.469222,0.322109897,0.99997658,58.4638065
255,1499.158243,0.314719191,0.999976619,59.4466574
256,1498.853303,0.308229696,0.999976657,60.4298788
257,1498.553566,0.302593593,0.999976695,61.41342254
258,1498.25823,0.297780159,0.999976731,62.39724275
259,1497.966521,0.293756014,0.999976767,63.38129546
260,1497.677686,0.290497682,0.999976803,64.36553832
261,1497.390992,0.287984064,0.999976838,65.34993028
262,1497.105716,0.28620035,0.999976873,66.3344313
263,1496.821143,0.285137657,0.999976908,67.31900205
264,1496.536559,0.284789368,0.999976942,68.30360365
265,1496.25125,0.285158208,0.999976976,69.28819741
266,1495.964492,0.286246068,0.999977011,70.27274453
267,1495.675549,0.288067166,0.999977045,71.25720583
268,1495.383667,0.2906326,0.99997708,72.24154149
269,1495.088069,0.293968522,0.999977115,73.22571074
270,1494.787945,0.298096332,0.99997715,74.2096716
271,1494.482453,0.303055105,0.999977186,75.1933805
272,1494.170705,0.308878164,0.999977222,76.17679204
273,1493.851763,0.315619089,0.999977259,77.15985856
274,1493.524633,0.323325429,0.999977296,78.14252979
275,1493.18825,0.332067521,0.999977335,79.12475245
276,1492.841475,0.341910355,0.999977374,80.10646981
277,1492.48308,0.352944058,0.999977414,81.08762118
278,1492.111737,0.365255499,0.999977456,82.0681414
279,1491.726006,0.378962578,0.999977499,83.04796024
280,1491.324317,0.394176971,0.999977543,84.02700177
281,1490.904956,0.411036667,0.999977589,85.00518361
282,1490.466044,0.429696311,0.999977637,85.98241617
283,1490.005517,0.450335012,0.999977686,86.95860173
284,1489.521099,0.473152605,0.999977738,87.93363347
285,1489.010277,0.498373072,0.999977792,88.90739433
286,1488.470266,0.52624959,0.999977848,89.87975582
287,1487.897975,0.557074529,0.999977907,90.85057657
288,1487.289965,0.591180501,0.999977969,91.81970078
289,1486.642399,0.628940264,0.999978035,92.78695647
290,1485.950986,0.670784259,0.999978103,93.75215349
291,1485.21092,0.717195903,0.999978176,94.71508132
292,1484.416802,0.768730072,0.999978253,95.67550648
293,1483.562554,0.826027585,0.999978334,96.63316976
294,1482.64132,0.889823141,0.999978421,97.58778296
295,1481.645341,0.960962294,0.999978512,98.53902525
296,1480.56582,1.040421224,0.99997861,99.48653911
297,1479.392755,1.129330375,0.999978713,100.4299256
298,1478.114739,1.229003056,0.999978823,101.3687391
299,1476.71873,1.340970298,0.999978941,102.3024812
300,1475.189769,1.467023634,0.999979066,103.2305941
301,1473.510637,1.609288202,0.9999792,104.1524524
302,1471.66145,1.770225665,0.999979342,105.0673545
303,1469.619154,1.952769917,0.999979494,105.9745124
304,1467.35691,2.160447998,0.999979656,106.8730395
305,1464.843335,2.397473894,0.999979829,107.7619376
306,1462.041548,2.668903483,0.999980012,108.6400809
307,1458.907978,2.980924884,0.999980208,109.5061978
308,1455.390846,3.34108461,0.999980415,110.3588496
309,1451.42822,3.758679221,0.999980634,111.1964051
310,1446.945491,4.245338262,0.999980865,112.0170109
311,1441.852065,4.815562678,0.999981108,112.8185556
312,1436.036974,5.487849159,0.999981363,113.5986256
313,1429.362949,6.286023711,0.999981627,114.3544521
314,1421.658329,7.241062396,0.9999819,115.0828438
315,1412.70582,8.393937398,0.99998218,115.7801029
316,1816.798705,16.37084579,0.999982463,116.4419157
317,2646.231362,28.68043976,0.999982746,117.0632104
318,3600.144623,43.32349303,0.999983022,117.6379657
319,4474.593743,60.94181944,0.999983287,118.1589502
320,5115.863402,82.4237054,0.999983531,118.6173566
321,5473.400713,109.0307783,0.999983745,119.0022771
322,5602.222934,142.6092907,0.999983916,119.2999275
323,5603.596234,185.957197,0.999984029,119.4924613
324,5552.354039,243.4938401,0.999984067,119.5560853
325,5472.808424,322.5545166,0.999984008,119.4579262
326,5357.98864,436.0744032,0.999983829,119.1505144
327,5183.559538,608.6508713,0.999983501,118.5613589
328,4897.686379,891.7923117,0.999982989,117.5713384
329,4380.330814,1404.861994,0.999982256,115.9638871
330,4380.071445,1399.596449,0.999981255,113.2817829
331,4380.061865,1393.921465,0.999979933,108.2834877
332,4380.050863,1388.083118,0.999978218,95.31419671
333,4380.038218,1382.076394,0.999976048,47.81416864
334,4380.023673,1375.896216,0.9999736,29.20641772
335,4380.006931,1369.53745,0.99997088,22.63308791
336,3069.308727,2672.463136,0.999967826,18.94239727
337,366.6711533,5353.987949,0.999964379,16.47963561
338,3.471862354,5688.461073,0.999960477,14.68398134
339,0.013214073,5661.865688,0.999956051,13.30206759
340,0.013042314,5630.945553,0.999951024,12.1989673
341,0.013042197,5599.139254,0.999945308,11.2947103
342,0.013042061,5566.424845,0.999938802,10.53819094
343,0.013041904,5532.78036,0.999931394,9.894872596
344,0.013041723,5498.184052,0.999922953,9.340389969
345,0.013041513,5462.614468,0.999913335,8.856966293
346,0.013041271,5426.050526,0.99990237,8.431273935
347,0.013040991,5388.4716,0.999889869,8.053093878
348,0.013040666,5349.857606,0.999875617,7.71445004
349,0.013040291,5310.189094,0.999859369,7.409016756
350,0.013039857,5269.447352,0.999840846,7.131716215
351,0.013039355,5227.614501,0.999819735,6.878421995
352,0.013038773,5184.67361,0.99979568,6.645755259
353,0.013038101,5140.608804,0.999768277,6.430924409
354,0.013037324,5095.40538,0.999737073,6.231606205
355,0.013036424,5049.049929,0.999701555,6.045857223
356,0.013035385,5001.530459,0.999661145,5.872041516
357,0.013034183,4952.836523,0.999615193,5.708777161
358,0.013032795,4902.959345,0.999562968,5.554890056
359,0.013031191,4851.891963,0.999503652,5.409380538
360,0.01302934,4799.629345,0.999436325,5.271392687
361,0.013027203,4746.168546,0.999359959,5.140192346
362,0.013024739,4691.508799,0.999273406,5.015146595
363,0.013021898,4635.65168,0.999175387,4.895708997
364,0.013018625,4578.601285,0.999064473,4.781407249
365,0.013014856,4520.364279,0.998939076,4.67182915
366,0.01301052,4460.949989,0.998797443,4.56661441
367,0.013005535,4400.370673,0.998637618,4.465450185
368,0.012999807,4338.641569,0.998457443,4.368060094
369,0.012993231,4275.780771,0.998254551,4.274199309
370,0.012985689,4211.809854,0.998026307,4.183654501
371,0.012977047,4146.753367,0.997769842,4.096232751
372,0.012967153,4080.639219,0.997482002,4.011763928
373,0.012955836,4013.498997,0.997159317,3.930095328
374,0.012942908,3945.36716,0.996798042,3.851089089
375,0.012928153,3876.28234,0.996394042,3.774621569
376,0.012911335,3806.285821,0.995942903,3.700579173
377,0.012892185,3735.423409,0.995439742,3.628860301
378,0.012870412,3663.743221,0.994879399,3.559370399
379,0.012845684,3591.297894,0.99425621,3.492023549
380,0.012817644,3518.142521,0.993564182,3.426740202
381,0.012785892,3444.336207,0.992796832,3.363446673
