Time,J,A,S,tau
0.0,100.0,100.0,0.726787200942058,10.1010101010101
1.0,95.97343434565711,90.12951532624193,0.7293905616391049,9.68663610188397
2.0,92.0410882364208,81.15750978115835,0.7322311565243982,9.23936879146254
3.0,88.20554178539352,73.0129038889317,0.7353165621801298,8.758888423893797
4.0,84.46835985627999,65.6265200273996,0.7386558393579259,8.244691235151219
5.0,80.83294206936499,58.9341593838227,0.742258268364386,7.696287462542969
6.0,77.30817576411086,52.87651040504125,0.7461333105737282,7.1132043960895865
7.0,73.91605825661708,47.39866935140398,0.7493519560824924,6.640392774807916
8.0,70.70436968444137,42.449944413594245,0.7505637741463947,6.482973364461065
9.0,67.7628412249743,37.98364779850591,0.7517514040701513,6.331075501057365
10.0,65.23634199525186,33.95722673545446,0.7529132964027766,6.184557170900554
11.0,63.32450238043258,30.3332589979672,0.7540474499366933,6.043292697031384
12.0,62.257281797612244,27.08341052174745,0.7551513082754487,5.90717455759959
13.0,62.23943582315363,24.197571066530095,0.7562216346339704,5.776115540199619
14.0,63.36658954874767,21.69948524514375,0.7572543604502454,5.650051358608687
15.0,65.53181108762415,19.664698110319666,0.7582444041486835,5.528943780622248
16.0,68.36486362742286,18.229050353056447,0.7591854579317439,5.412784222110614
17.0,71.25993453139321,17.573696642357543,0.7600697358560959,5.301598000049332
18.0,73.50535519904655,17.878464475106927,0.7608876829717869,5.195449136782912
19.0,74.45932759866945,19.248719868760947,0.7616276419076627,5.094445788006808
20.0,73.71258021239849,21.635667392529946,0.7622754753745673,4.998746292945089
21.0,71.21674473386834,24.790285727544727,0.7628141488558681,4.908565734909952
22.0,67.3186506991555,28.298452817351414,0.7632232730536777,4.8241830339417335
23.0,62.64044673273886,31.692799925832386,0.7634786187298962,4.745948342121456
24.0,57.88697177497557,34.56403675016724,0.763551613547294,4.674290611355069
25.0,53.68650577831087,36.63303952374758,0.7634088448472509,4.60972498523941
26.0,50.46945768119822,37.80949899504918,0.7630115910301829,4.552859741329948
27.0,48.40695934705862,38.20506326237658,0.7623154192058211,4.50440230635861
28.0,47.44581084509602,38.06287329502594,0.7612698968982775,4.465163748994817
29.0,47.390319119769835,37.66017148528282,0.7598184663405778,4.436061239965643
30.0,47.973590915758585,37.243848538283935,0.7578985396382236,4.418117848679101
31.0,48.91570296351752,36.99783711791137,0.7554418846148854,4.412458903737543
32.0,49.976203604580654,37.0270370271233,0.7523753575461254,4.420304397349489
33.0,50.991838273393334,37.3556205435319,0.7486220348799193,4.442956957208073
34.0,51.88926192324104,37.939869614984914,0.7441027867543439,4.481784958523326
35.0,52.67292144997159,38.69149150114788,0.7387382957610239,4.538200819023187
36.0,53.39742476489627,39.50470137631937,0.7324514891066716,4.613634855834124
37.0,54.136436283905226,40.279672204636334,0.7251703300581245,4.709505188479759
38.0,54.95801721021171,40.93690579216569,0.7168308426413561,4.827184907352769
39.0,55.91052800290036,41.4218333456169,0.7073802021583632,4.96796793938607
40.0,57.01777756043353,41.70264239940827,0.6967796824317907,5.1330354247977015
41.0,58.27995344542134,41.76515688885163,0.6850074231260898,5.323422821126865
42.0,59.677694352470354,41.60723411135875,0.6720604500075477,5.539992671484678
43.0,61.17678033838649,41.23446775947017,0.6579561197077439,5.783411896492717
44.0,62.73260033452117,40.6572818222033,0.6427326044081354,6.054136552169859
45.0,64.29398502772358,39.88926778749861,0.626448673503008,6.352401669398647
46.0,65.80660522239734,38.94628296701591,0.6091824341725447,6.67821984048925
47.0,67.21592296088441,37.8460286314241,0.5910291923834948,7.0313879193257
48.0,68.46981017799276,36.60776742828969,0.5720987774013632,7.41149830208712
49.0,69.520949889467,35.25197136993898,0.5525123598884251,7.817955276112187
50.0,70.32882094751697,33.799890882582886,0.5323988935937632,8.249996920666591
51.0,70.86123300565782,32.27307093591286,0.5118915882707851,8.7067180292843
52.0,71.0954077460668,30.692809015164414,0.4911244787571398,9.187093712678278
53.0,71.0183902267421,29.079616921719715,0.47022923684686363,9.690004448342538
54.0,70.62688681928934,27.452767551690243,0.44933244687912927,10.2142590197054
55.0,69.92668395075046,25.829906154965865,0.4285532966315673,10.758615255114652
56.0,68.93155759518311,24.22676749299985,0.40800176661494264,11.32179952988612
57.0,67.66190847948842,22.657018477765465,0.387777402171294,11.90252292067457
58.0,66.14334787329211,21.13217482899939,0.3679684787056864,12.499494249574031
59.0,64.40510683497561,19.661623871793015,0.3486515919186228,13.11143144025639
60.0,62.47861109806987,18.252713856821444,0.3298916760792118,13.737069328352884
61.0,60.39617715514203,16.91089499148942,0.311742293276117,14.375165310216374
62.0,58.18990134741,15.639894642639275,0.2942461521617554,15.024502788613574
63.0,55.89077591982503,14.441904840176075,0.2774357767944428,15.683892632540271
64.0,53.52794975869114,13.317799107906445,0.2613343360782352,16.352173114030318
65.0,51.12824674301297,12.267338838336387,0.24595655635355468,17.02820802632685
66.0,48.7158651447921,11.289365479453723,0.2313096399832252,17.710883519632965
67.0,46.31223547037658,10.381973590593685,0.21739416913688064,18.39910374730768
68.0,43.93592956696875,9.542693227942639,0.20420504173190313,19.09178558921494
69.0,41.60276709911424,8.768618903111225,0.19173230211776324,19.787852067562234
70.0,39.32593002331261,8.056540891475557,0.1799619572642452,20.48622486372491
71.0,37.116109453560654,7.403073477690802,0.1688767890132177,21.18581586814343
72.0,34.98176548516634,6.8047193637972505,0.15845696702008566,21.88551741902374
73.0,32.92933202115229,6.257954967866976,0.14868069867303493,22.584191419274436
74.0,30.963447873586663,5.759290921443015,0.13952478873370344,23.28065696889913
75.0,29.08718157021227,5.305321429346892,0.1309651445444635,23.97367621235787
76.0,27.302252372055126,4.892760963658343,0.12297722329580843,24.661938457440694
77.0,25.609245457922565,4.518459685993885,0.1155363837636207,25.344041310180426
78.0,24.007779875169348,4.179440194975571,0.10861829829868042,26.01846933382795
79.0,22.49668970792656,3.8729020936326117,0.10219924327872269,26.683568809240562
80.0,21.074177400383277,3.5962283551771224,0.09625638658123166,27.33751777764298
81.0,19.73794619716835,3.3469932289920656,0.09076808124937198,27.97829016858126
82.0,18.485322986133433,3.1229597234685498,0.08571412635263778,28.60361346066137
83.0,17.313362867759366,2.9220767426141134,0.08107604389943457,29.21091728345037
84.0,16.21893959340747,2.7424748831911376,0.07683738341904867,29.79727086284749
85.0,15.198823892636094,2.582460390640763,0.07298407225337253,30.35930643034988
86.0,14.249750806424945,2.440509959854709,0.06950485394024179,30.893123456944117
87.0,13.368478489482586,2.3152647047269803,0.066391837235508,31.39417098815525
88.0,12.551839568613055,2.2055218807767507,0.06364120996971843,31.857101597933365
89.0,11.796786235486348,2.1102275955209135,0.06125421316125033,32.27558789544181
90.0,11.100431153047984,2.028469092759914,0.05923848728599442,32.64209233869382
91.0,10.460085685353725,1.9594653160085984,0.0576099814328945,32.94757736240564
92.0,9.873300011071985,1.9025614509232114,0.05639569870764843,33.18113582591245
93.0,9.337900772455733,1.85721053304061,0.05563770665344566,33.32954349827245
94.0,8.852033290944343,1.822959563053109,0.055398882645533505,33.376729103069565
95.0,8.414211675807898,1.7994245494952716,0.05577187099292539,33.30312539884941
96.0,8.023373852723726,1.7862568441669848,0.05689222630416928,33.08501962525118
97.0,7.678945102364047,1.7830948757573228,0.058958470906255965,32.694006591029954
98.0,7.380904794294569,1.7895000690881708,0.062261991521302885,32.096919920506444
99.0,7.129844523622207,1.8048820524918825,0.06723004557007163,31.256952421199347
100.0,6.926991610199782,1.8284352230771268,0.07448268263748217,30.137230450336517
101.0,6.774146388301104,1.8591390122398088,0.08489319644735092,28.708634804284266
102.0,6.673465965303572,1.8959179678077938,0.09961430685192339,26.963175627825468
103.0,6.6270583674804175,1.9380759942765127,0.11998723336553288,24.930912688654914
104.0,6.636487126964262,1.9860257596478867,0.14723064429935467,22.69152022405855
105.0,6.702529604178431,2.042128456036602,0.1819165642121006,20.36706198373825
106.0,6.825640414065959,2.111235196665254,0.22349792817341413,18.091947705190382
107.0,7.00730712263837,2.2006478139024916,0.2702697745285956,15.976378653435468
108.0,7.252045768467397,2.3195681690792402,0.3198441292412185,14.085831512559043
109.0,7.5696215005884175,2.4782204660647573,0.3698031371672536,12.442669897759943
110.0,7.977278735459683,2.6865739982516064,0.4181656824687314,11.039742111347294
111.0,8.501719689769992,2.952451498315506,0.4635589861429955,9.85463016641057
112.0,9.179531238315812,3.2797821215238616,0.505180848289381,8.859595505741199
113.0,10.053689997773047,3.669965417469056,0.5426748389686967,8.027031793518795
114.0,11.166331701536782,4.128665055444939,0.575994754697096,7.33193029598949
115.0,12.55455816177235,4.673684900807067,0.6052915232153442,6.752660835870621
116.0,14.254018752789607,5.337606179589162,0.6308304182195967,6.27094145011742
117.0,16.305745792918074,6.1641280826455285,0.652933959014676,5.871498222642638
118.0,18.758923683179894,7.199331051144728,0.6719450315239921,5.541621990637945
119.0,21.659371320325672,8.483623706596234,0.688203884843001,5.2707417297722765
120.0,25.016772313489014,10.054491823433835,0.7020346223740234,5.050049777262485
121.0,28.760267806630946,11.95767990391968,0.7137378998208295,4.872185519354621
122.0,32.69826646067433,14.251645556564009,0.72358756625624,4.7309771815080195
123.0,36.493336863190656,16.995258168600284,0.7318297937431667,4.6212320154981255
124.0,39.66749672770045,20.221195727830644,0.7386836869078445,4.538567061304447
125.0,41.66343271160198,23.908388000672474,0.7443427577090099,4.479272427309518
126.0,41.97915785006312,27.96183606698233,0.7489768473462028,4.440200652717643
127.0,40.351109212032135,32.19634776385084,0.7527342409272806,4.418676738033719
128.0,36.901046842460794,36.32809742412101,0.7557438154889891,4.412424566161545
129.0,32.14699517920579,39.994985717584285,0.7581171265210022,4.419506325113629
130.0,26.847381022205564,42.8242409463296,0.7599503778093937,4.438272297128008
131.0,21.75726875190103,44.53313272829489,0.7613262442930403,4.467318975060247
132.0,17.424472009012757,45.01544156886864,0.7623155395029088,4.505453834574372
133.0,14.10724949591268,44.36577463717841,0.7629787225082776,4.551665559591246
134.0,11.813421868533466,42.82956335670776,0.7633672499107176,4.605098714242791
135.0,10.403621716259918,40.71234210239015,0.7635247836879631,4.665032038571717
136.0,9.691167381770066,38.29887114086812,0.7634882602207022,4.730859833413548
137.0,9.502309019075046,35.810910502614306,0.7632888331914874,4.80207591637054
138.0,9.696954755690308,33.40070055245458,0.7629527032782324,4.878259724766042
139.0,10.166822882485542,31.162845590205432,0.7625018431854683,4.959064288300211
140.0,10.826213682036808,29.15028805092335,0.761954628795983,5.044205805477769
141.0,11.603295048046476,27.387760094486826,0.7613263874984832,5.1334545873307835
142.0,12.434491184055323,25.881263977725762,0.7606298715805346,5.226627210377069
143.0,13.262100354416429,24.624215277977243,0.75987566500215,5.3235797283443596
144.0,14.034476779677586,23.601303578082145,0.759072533816492,5.424201765959051
145.0,14.707913592294686,22.79094447230555,0.7582277226086298,5.528411469715676
146.0,15.249188913845876,22.166986108157836,0.7573472089847081,5.636151108003158
147.0,15.637953749011054,21.700103214901908,0.7564359175582009,5.747383318286635
148.0,15.868180414202653,21.359142651996248,0.7554979012860449,5.862087875508176
149.0,15.948106786190161,21.11250470177042,0.7545364922864544,5.980258946220673
150.0,15.898737615160348,20.929611861758936,0.7535544307433124,6.101902698889934
151.0,15.751124566032697,20.78235629421698,0.7525539689081788,6.227035347582021
152.0,15.542809510056832,20.64639430674837,0.7515369599218917,6.355681417675099
153.0,15.314245868690033,20.502180370724574,0.7505049297570752,6.487872332946228
154.0,15.105605958704437,20.33559844489554,0.7494591368649074,6.623645201467577
155.0,14.95438646185563,20.13814134998141,0.7484006208315364,6.763041801398655
156.0,14.893921824084622,19.906639272535326,0.7473302419468764,6.906107733088084
157.0,14.952725760138563,19.64260872880894,0.7462487131795468,7.0528917137183145
158.0,15.154452229511566,19.351343374928994,0.7451566258642403,7.203444991082118
159.0,15.518194285942503,19.04089248638668,0.7440544699756382,7.357820874642719
160.0,16.058905446176848,18.721058366184963,0.7429426501989633,7.516074338226388
161.0,16.787747991177373,18.40250985139796,0.7418214984304718,7.678261719305952
162.0,17.71225570003737,18.096073920118812,0.7406912829147738,7.844440477819684
163.0,18.836355831373382,17.812213190599312,0.7395522151829957,8.014669026108969
164.0,20.16026425552,17.560676770599137,0.7384044550853247,8.189006592925901
165.0,21.68030924913319,17.35027595408643,0.7372481137175536,8.367513139942202
166.0,23.389012745128827,17.188777173788743,0.7360832546002382,8.550249380794796
167.0,25.27523610719542,17.082837609534216,0.734909894389243,8.737276767125222
168.0,27.324658131917083,17.037977906806482,0.7337280020162386,8.928657558425444
169.0,29.520501128987327,17.0585615208248,0.7325374970157994,9.124454920208363
170.0,31.844562435869037,17.147778883810606,0.731338246791493,9.32473308167012
171.0,34.278450932429465,17.30763748284216,0.730130063318698,9.52955753632991
172.0,36.80480663030569,17.538946139107114,0.7289126994135845,9.738995260188089
173.0,39.40855877020067,17.841314909023126,0.7276858440331277,9.95311500068964
174.0,42.07801050493639,18.2131743980579,0.726449117242277,10.171987599320037
175.0,44.805783115982045,18.65182921444735,0.7252020642731335,10.395686396696226
176.0,47.58945566406082,19.15353590412818,0.7239441484540997,10.624287716084105
177.0,50.43157422050177,19.713618078007226,0.7226747464183098,10.857871233072338
178.0,53.33978470093011,20.326632450441988,0.7213931405325105,11.09652058342973
179.0,56.32626337479418,20.986512071369393,0.7200985110796565,11.340323898435594
180.0,59.407253533854735,21.68680393108854,0.7187899286227989,11.589374532007241
181.0,62.60208878470067,22.420867206328126,0.7174663461573508,11.843771740727615
182.0,65.93209336591991,23.182081137587197,0.7161265909697245,12.103621451739185
183.0,69.41932499030966,23.9640379367137,0.7147693565867419,12.369037068501374
184.0,73.08522636843594,24.760713410979214,0.7133931947156434,12.640140334209146
185.0,76.94922227303987,25.566605953807098,0.7119965074149625,12.917062234309634
186.0,81.02733089014654,26.376836504093482,0.7105775401006692,13.199943891101299
187.0,85.33081558889417,27.18721714908888,0.7091343737470635,13.488937601897804
188.0,89.86496814090897,27.994274597305402,0.7076649189560701,13.78420779629422
189.0,94.62824366675278,28.795227635183785,0.7061669141974063,14.085931708888397
190.0,99.61145205884338,29.587964914469172,0.7046379177418483,14.394300803925804
191.0,104.79714542613102,30.37096853127355,0.703075304048678,14.709521672577734
192.0,110.16019637808674,31.143199556637395,0.7014762762566381,15.031815779486367
193.0,115.66767106070866,31.904018968315725,0.6998378575705095,15.361421146737946
194.0,121.27979549006157,32.65306695167015,0.698156901458501,15.698592513724156
195.0,126.95103827317796,33.39014222160501,0.6964301007509465,16.043601634763853
196.0,132.6314955569512,34.11508441773597,0.6946540008873631,16.39673732469498
197.0,138.26846450776915,34.82766489243637,0.6928250173749566,16.758305213724142
198.0,143.8081149129467,35.52748449348677,0.6909394578079668,17.128627164928194
199.0,149.19715818070605,36.21388670452983,0.6889935487146738,17.50804031508368
200.0,154.38442414887967,36.88588740428367,0.6869834675224001,17.89689567159913
201.0,159.3222722591649,37.54212161487772,0.684905379536442,18.29555625388522
202.0,163.96777843733847,38.180812883540355,0.6827554798450852,18.7043947498043
203.0,168.28366658043083,38.79976234930361,0.6805300398744502,19.123790664576667
204.0,172.238949846233,39.39636065159806,0.6782254575307739,19.554126950521947
205.0,175.80937741629617,39.967618192204256,0.6758383127365744,19.99578619592663
206.0,178.97753799903774,40.51021996252264,0.6733654243835894,20.44914617007102
207.0,181.73260542985244,41.02060051195383,0.6708038966612246,20.914575686557523
208.0,184.07050878826186,41.49501232968994,0.6681511998100859,21.392428979329488
209.0,185.99306882126393,41.9296447694488,0.6654052116946573,21.883040121719056
210.0,187.50739159272578,42.32071173712544,0.662564247219881,22.386719866338957
211.0,188.62568345828262,42.66455982256094,0.6596271522167814,22.90374771712781
212.0,189.36415296559906,42.95779294771962,0.6565933164882398,23.43436768325501
213.0,189.7422955487257,43.19733581454458,0.6534626784015939,23.978786212494093
214.0,189.78243924068641,43.38054596604719,0.6502358001666638,24.53716428730461
215.0,189.50879664046195,43.50530434050867,0.6469138507663704,25.109615078899584
216.0,188.94685427752626,43.57002457600434,0.6434985752638535,25.696204339595763
217.0,188.12286103020907,43.5737266391079,0.6399923342037498,26.296944254619845
218.0,187.06315348068566,43.51607691808856,0.6363980563891115,26.9117935748747
219.0,185.79377647819888,43.397335258477646,0.6327191755971532,27.54066101367565
220.0,184.34005573404687,43.2183711480298,0.6289596283847514,28.183402050373783
221.0,182.72620776025232,42.98065694002086,0.6251237853347328,28.8398214256353
222.0,180.97521400722937,42.686171096295496,0.6212163700674039,29.5096790390368
223.0,179.10854058064197,42.33736401476759,0.6172424233445302,30.19268988119518
224.0,177.14597541552547,41.937121954664946,0.6132072265674837,30.88852814487865
225.0,175.10570346239732,41.488658911370095,0.609116223787003,31.596834279221778
226.0,173.00417144162492,40.99545486628568,0.604974968623639,32.31721727959606
227.0,170.8560573997324,40.461208661842555,0.6007890522044371,33.049259317280764
228.0,167.53488293808812,20.365217104160298,0.5965640480500658,33.79252289224115
229.0,163.90634476545353,8.523871575649565,0.5923054556341497,34.54655312809596
230.0,160.41608840226212,4.120055241952476,0.5880186512970212,35.310883596362046
231.0,157.0578408895379,2.4542677746015764,0.5837088464749447,36.08504033256072
232.0,153.8253724962451,1.7977598677895734,0.579381052189075,36.86854577569617
233.0,150.71253654330968,1.5146220164198283,0.5750400502089237,37.660922320588945
234.0,147.71330365879274,1.3709459416179635,0.5706903706885835,38.46169545552191
235.0,144.8217904305426,1.2806833942086622,0.5663362759213133,39.27039647319748
236.0,142.0322826341509,1.212165969773686,0.5619817497254248,40.08656475718696
237.0,139.33925332314558,1.1537049807464483,0.5576304919254452,40.909749655297595
238.0,136.73737598348754,1.1009417230590586,0.5532859175742237,41.73951194801291
239.0,134.22153467889243,1.052271506826582,0.5489511586978841,42.57542503080847
240.0,131.78682820415403,1.0070240743110306,0.5446290718390415,43.41707562418597
241.0,129.42857247687672,0.9648412330102456,0.5403222463303904,44.26406427439413
242.0,127.14230076633655,0.9255586279995807,0.5360330145087634,45.116005631107505
243.0,124.92375912942622,0.8890208404987305,0.5317634659749009,45.97252832887273
244.0,122.76890348803829,0.8550984733005921,0.5275154594007145,46.83327489945844
245.0,120.67389155557426,0.8236858990966505,0.523290639120801,47.6979012715336
246.0,118.63507637335987,0.7946432064409269,0.5190904491264496,48.56607630995985
247.0,116.64899769698636,0.7678798191029153,0.514916148953126,49.437481148072365
248.0,114.71237233821375,0.7432681938832196,0.5107688296214296,50.311808395351214
249.0,112.82208593767757,0.720713490995195,0.506649428018705,51.188761378766706
250.0,110.97518181881334,0.7001195036432433,0.5025587432237673,52.06805314980999
