Time,J,A,S,tau
0.0,100.0,100.0,0.5978602810731317,8.19672131147541
1.0,94.00325135653077,92.26355762990902,0.5980361494703849,8.206202882084797
2.0,88.33722632907484,85.10037803540602,0.598153258011678,8.212469664060087
3.0,82.98765371853862,78.47269295603977,0.5982105544672985,8.215513793649944
4.0,77.93843834363138,72.34209053189203,0.5982071375601892,8.215335726289082
5.0,73.17429269956737,66.67278037278953,0.5981421280889324,8.211937152516088
6.0,68.68081114781083,61.43145760165476,0.5980146705782073,8.205321003358634
7.0,64.44460486867015,56.58711922523562,0.5978239349340877,8.195491452640221
8.0,60.453564657828956,52.110910304851785,0.5975691181479511,8.182453920069628
9.0,56.69730323644525,47.97602196797942,0.5970953998000345,8.157894570727166
10.0,53.16764957000449,44.15739389631949,0.5965815389865781,8.13155182092322
11.0,49.859535658324944,40.63183874309124,0.5960642886570909,8.10541985357334
12.0,46.77170494323684,37.37779801980388,0.5955437430807019,8.079506645211797
13.0,43.907423352285484,34.37526558817337,0.5950199997317098,8.05381994876915
14.0,41.27490059261775,31.605744352483825,0.5944931594370997,8.028367290309829
15.0,38.88725381449576,29.052281525176603,0.5939633265301204,8.003155965927025
16.0,36.76173186264432,26.699553779137855,0.5934306089897988,7.97819303961975
17.0,34.91814275915836,24.53406765587693,0.592895118588836,7.9534853408843205
18.0,33.37643232735601,22.544474561214493,0.5923569710431257,7.9290394624285545
19.0,32.15345074736799,20.72198128008685,0.5918162861684708,7.904861757652777
20.0,31.259185224955374,19.060794180132028,0.5912731880230203,7.880958339217079
21.0,30.69275559154405,17.55855169051035,0.5907278050993933,7.857335075211014
22.0,30.439011093055186,16.216461623533263,0.5901802703970708,7.833997591777717
23.0,30.46504177167871,15.039136186182459,0.5896307216060166,7.810951268896411
24.0,30.719698069193644,14.03414160138813,0.5890793012638597,7.7882012392308795
25.0,31.134914073419274,13.210965555097582,0.5885261568696433,7.765752388276234
26.0,31.62976583095397,12.57958375497984,0.5879714410307417,7.743609353071391
27.0,32.11660213574115,12.148595353267794,0.5874153115909335,7.721776521704753
28.0,32.508330719931415,11.923091456512177,0.5868579317484296,7.700258033264111
29.0,32.725659531785126,11.902443361119005,0.5862994701707066,7.67905777784322
30.0,32.703530479494866,12.07829356878984,0.5857401011031879,7.658179396707432
31.0,32.39645768605019,12.433163877926257,0.585180004471959,7.637626282582056
32.0,31.78258310391604,12.940106458760313,0.5846193659687436,7.61740158053292
33.0,30.86590663013646,13.563702560457155,0.5840583771264535,7.59750818907926
34.0,29.675769126530497,14.26233610555247,0.5834972353906971,7.577948761206385
35.0,28.263196708996492,14.991335173911812,0.5829361441739199,7.558725705935177
36.0,26.694691435566583,15.706263971324853,0.582375312896878,7.539841190095075
37.0,25.04489797944255,16.365841337473174,0.5818149570166099,7.521297140370156
38.0,23.389430032274266,16.93438333405625,0.5812552980397109,7.503095245625531
39.0,21.79856107359727,17.383973038860614,0.5806965635201221,7.485236959518192
40.0,20.332101695633643,17.696410628754254,0.5801389870406788,7.467723503396053
41.0,19.035848592805063,17.864542027552485,0.5795828081754062,7.450555869568859
42.0,17.93996519861691,17.892362578572605,0.5790282724422557,7.433734824584736
43.0,17.05948303960258,17.79359291138678,0.5784756312233866,7.417260913313794
44.0,16.396206997653678,17.5891005558699,0.5779251416941978,7.401134462351301
45.0,15.941537199094826,17.303900609573144,0.5773770666804722,7.385355585579758
46.0,15.678951593338658,16.964443896526618,0.5768316745604681,7.369924187683543
47.0,15.586116663233149,16.59651795174626,0.5762892390967937,7.354839969818253
48.0,15.636475766787367,16.22384244401484,0.5757500392693513,7.340102434773922
49.0,15.800529543163119,15.867198582176366,0.5752143590956821,7.325710892080327
50.0,16.046991257954545,15.543958190422094,0.574682487399687,7.311664464602602
51.0,16.343997422028057,15.267845053564152,0.5741547175920071,7.297962094156739
52.0,16.660370732894798,15.048837977165137,0.5736313474137813,7.284602547977609
53.0,16.96698199741366,14.89317560981528,0.5731126786501597,7.2715844258785705
54.0,17.23813230341532,14.80340116601344,0.5725990168482306,7.258906166595892
55.0,17.452733177070826,14.778498373829883,0.5720906709884698,7.246566055491984
56.0,17.595317638711258,14.814147370196867,0.5715879531464428,7.2345622320917355
57.0,17.656639287784866,14.903098345013483,0.571091178144158,7.222892697324951
58.0,17.63386224979098,15.035734826201258,0.5706006631653456,7.211555321757606
59.0,17.530185144970613,15.200746286575907,0.5701167273546521,7.200547854073793
60.0,17.354131154207945,15.385899994307438,0.5696396914059559,7.189867929350545
61.0,17.118483036191503,15.57884614229328,0.5691698771325203,7.179513077374206
62.0,16.83895789514507,15.76789590770813,0.5687076070139095,7.1694807315142794
63.0,16.532797601080503,15.942699349423684,0.5682532037314992,7.159768238049294
64.0,16.217413490011587,16.094802431327476,0.5678069896899943,7.150372864828933
65.0,15.90913285988596,16.218020352814012,0.5673692865211354,7.141291810512703
66.0,15.622255341344342,16.30861934952276,0.5669404145860435,7.132522214213841
67.0,15.368312774138158,16.36532189615843,0.5665206924462565,7.124061164481148
68.0,15.155684763482052,16.389104860880362,0.5661104363501218,7.115905709109799
69.0,14.989481000152205,16.382880269178713,0.565709959697192,7.108052864555163
70.0,14.87159539619362,16.351060773577046,0.5653195724803318,7.100499625314155
71.0,14.801070550409488,16.29908877810667,0.5649395807589969,7.093242973729623
72.0,14.774486791199182,16.23295683984196,0.5645702861031753,7.086279889418956
73.0,14.786459596252715,16.1587633200854,0.564211985041924,7.079607358757398
74.0,14.830173805815203,16.082329156267914,0.5638649685117116,7.073222384291949
75.0,14.897926147046867,16.008886514523798,0.563529521306283,7.067121994061359
76.0,14.981648753592003,15.942847472517055,0.5632059215297892,7.061303250797595
77.0,15.073393179510118,15.887651130517101,0.5628944400549399,7.055763260983978
78.0,15.165756832664563,15.8456849585639,0.5625953399879486,7.050499183745187
79.0,15.252237576003468,15.818272794738277,0.5623088761420378,7.045508239544374
80.0,15.327502794210531,15.805722831995357,0.56203529452183,7.040787718658372
81.0,15.387558286476558,15.80742493448501,0.5617748318259977,7.036334989404229
82.0,15.429830114506267,15.82199174557266,0.5615277149938868,7.0321475057555975
83.0,15.453198082016694,15.8474270662643,0.561294160619046,7.0282228157496345
84.0,15.457839644945418,15.88130615957753,0.5610743744571856,7.024558569646763
85.0,15.44505595175874,15.920976991676442,0.5608685512358089,7.021152524577596
86.0,15.41708698555804,15.963735422981243,0.5606768741963339,7.0180025512762425
87.0,15.376846884898345,16.00699532613604,0.5604995143994573,7.015106643245907
88.0,15.327642655853095,16.048436240722108,0.5603366304818702,7.012462921941479
89.0,15.272932665201465,16.08610968037201,0.5601883684979105,7.010069640054629
90.0,15.216095493345799,16.118508008441918,0.5600548615985665,7.00792518638528
91.0,15.160194266478973,16.144609297523232,0.5599362294358785,7.00602809343314
92.0,15.107853456315928,16.163886482360816,0.5598325779456939,7.0043770415789925
93.0,15.061159211502758,16.176267588474172,0.5597439993791862,7.00297085969901
94.0,15.021601882091725,16.18208499622876,0.5596705721333327,7.001808527944028
95.0,14.9900192610484,16.182003161423673,0.5596123604912835,7.000889180801261
96.0,14.966635198314274,16.17695502642889,0.5595694129412588,7.000212126927219
97.0,14.95116150492224,16.16800468712265,0.5595417660773011,6.999776805556995
98.0,14.942844289240362,16.156318532281574,0.5595294387876375,6.999582852050454
99.0,14.940607241536734,16.14305235840318,0.5595324383666557,6.999630030120338
100.0,14.943117784553337,16.12929220583225,0.5595507555360216,6.999918286499321
101.0,14.948911533367202,16.115994584554116,0.5595843669675019,7.0004477237822185
102.0,14.956473595932916,16.1039571497522,0.5596332354021067,7.0012185975138905
103.0,14.96437089602199,16.09377135114313,0.5596973079328831,7.002231334805412
104.0,14.971278253856507,16.08583154121433,0.5597765180593388,7.0034865123288395
105.0,14.976073354520558,16.080338395955337,0.5598707853409431,7.0049848576361615
106.0,14.977880213069636,16.07729243726723,0.5599800143833623,7.006727260127469
107.0,14.9760437727086,16.076537838705836,0.5601040968986672,7.008714748451905
108.0,14.970217219670658,16.077786905236387,0.5602429109336025,7.010948494831631
109.0,14.960255866980877,16.080642143720368,0.5603963206423923,7.013429820512944
110.0,14.946329173771923,16.084651938475062,0.560564176264805,7.016160185130144
111.0,14.928694876586707,16.08933208159454,0.5607463192848052,7.019141145427876
112.0,14.90781547822877,16.094200203374157,0.5609425728311246,7.022374437233172
113.0,14.884248755419817,16.0987945074654,0.5611527549045967,7.025861850254636
114.0,14.85860638995851,16.102729796009836,0.5613766657955549,7.0296053455846845
115.0,14.831497173647518,16.105657944280075,0.5616140990182004,7.03360694507805
116.0,14.803584832378661,16.107343851020023,0.5618648356755569,7.03786878968911
117.0,14.775349558135352,16.107615045284945,0.5621286458329989,7.0423931114698055
118.0,14.747359936092055,16.106389328138857,0.562405292941909,7.047182205150912
119.0,14.719929518627954,16.103673270247896,0.5626945267112607,7.05223847119841
120.0,14.693392677521521,16.09951857784181,0.5629960934270984,7.057564340222792
121.0,14.667926449494422,16.094067698793943,0.5633097261895046,7.063162334822312
122.0,14.643533864850266,16.08746695184089,0.563635153136252,7.069035005646332
123.0,14.620314075400099,16.079926902930826,0.5639720971536722,7.075184944146182
124.0,14.598104467528293,16.071649002529625,0.5643202687271367,7.081614789786976
125.0,14.576687909338709,16.06282578771944,0.564679376874701,7.088327185664127
126.0,14.55592662657204,16.053670655819996,0.5650491261425725,7.095324797401689
127.0,14.535600259933156,16.044351513253513,0.5654292121887091,7.102610292451966
128.0,14.515454559920347,16.03502154807407,0.5658193294479812,7.11018633622332
129.0,14.495276115216518,16.025802231408093,0.5662191678425772,7.118055582554715
130.0,14.474866359892134,16.01676459539727,0.5666284128549052,7.126220646500152
131.0,14.454030795698316,16.00796990677033,0.5670467492519415,7.134684139982857
132.0,14.432643062961434,15.999427552978869,0.5674738583086276,7.143448605089963
133.0,14.410612817067332,15.9911247956264,0.5679094199382293,7.152516540235199
134.0,14.387866846378708,15.983035679880066,0.5683531134495081,7.161890434345394
135.0,14.364420724094717,15.97509702376204,0.5688046172573931,7.171572613991568
136.0,14.340309286924262,15.967239495152715,0.569263609720516,7.1815653635549666
137.0,14.315590452818087,15.959393151410692,0.5697297688523091,7.1918709794450235
138.0,14.2903829077831,15.951486979483212,0.5702027745318519,7.202491576173385
139.0,14.26478998966785,15.943450821174928,0.5706823091871437,7.213429081720066
140.0,14.238914068714099,15.935214550378708,0.5711680552942097,7.22468542097798
141.0,14.212911036628295,15.926717774302364,0.5716596952740893,7.236262516636898
142.0,14.186968632777532,15.91793562969346,0.5721569174977558,7.2481620107232905
143.0,14.161169063519045,15.908847072152302,0.5726594150739384,7.260385333446831
144.0,14.13559234396011,15.899430899213744,0.5731668811619873,7.272933912848817
145.0,14.110376228691242,15.889682582090872,0.5736790091904066,7.2858091656684225
146.0,14.085659131786183,15.879637334054136,0.5741955020688392,7.299012152788739
147.0,14.061461123622186,15.869324441872992,0.5747160689245863,7.312543704194479
148.0,14.037800764929285,15.858772953357642,0.5752404189251177,7.3264046483941465
149.0,14.01473929937462,15.848027892878623,0.5757682597946615,7.3405958609106445
150.0,13.992327465783383,15.837151966936872,0.5762993127573198,7.355117756471922
151.0,13.97053510546495,15.826191803214279,0.5768333104093976,7.369970365532814
152.0,13.949331468004708,15.815193866133917,0.5773699854026189,7.385153716686182
153.0,13.928685802988046,15.804204620118865,0.5779090703887076,7.400667838524888
154.0,13.908560886798632,15.793275024756078,0.5784502979246833,7.416512760478936
155.0,13.888927165212548,15.782451502525655,0.578993416443697,7.432687985322118
156.0,13.869781217977588,15.771763003602157,0.5795381882686366,7.44919256203072
157.0,13.851120280352795,15.761238033693937,0.5800843759466026,7.466025532339458
158.0,13.832941587597215,15.750905098509348,0.5806317420246949,7.483185937983049
159.0,13.815207847372594,15.740787464902828,0.5811800488340578,7.5006728248654335
160.0,13.79783272561942,15.730887408354235,0.5817290730431224,7.518484751650616
161.0,13.780854575111135,15.72121138120226,0.5822786080318901,7.536619725420101
162.0,13.76432018601002,15.711766627010421,0.5828284477615786,7.555075734440353
163.0,13.74827634847835,15.702560389342239,0.5833783861934054,7.573850766977839
164.0,13.732744594079755,15.69359546627573,0.5839282179188968,7.592942785838538
165.0,13.717662379275065,15.684856941240088,0.5844777510197968,7.6123492673807025
166.0,13.70307710755052,15.676345286155799,0.5850268063050625,7.632067253269693
167.0,13.6890509807471,15.668063359140723,0.5855752050667632,7.652093770031215
168.0,13.67562901113641,15.660011643030527,0.5861227685352844,7.672425843236513
169.0,13.662779969449558,15.652183166742681,0.5866693265971881,7.693060160039196
170.0,13.650552154108082,15.64458651854014,0.5872147226689135,7.713992916351132
171.0,13.639007951734488,15.63723253249617,0.5877588010842152,7.735220276429092
172.0,13.628193751648263,15.63012996124089,0.5883014060958232,7.756738404267909
173.0,13.61806345303272,15.62327968735125,0.5888423892089143,7.778543151629254
174.0,13.608649755086958,15.616699582121285,0.5893816148173545,7.800629868936322
175.0,13.60000371103209,15.610410420587232,0.5899189483641024,7.822993868434389
176.0,13.592160742541992,15.604430985490957,0.5904542552060569,7.845630462597649
177.0,13.585044601054976,15.598767581980685,0.5909874065491652,7.86853468072355
178.0,13.578670132862843,15.59344121885559,0.5915182854928115,7.891701048822121
179.0,13.573078255700697,15.588476501409394,0.5920467762875217,7.915124048124249
180.0,13.568293285461563,15.583895837757337,0.5925727629830418,7.938798166056226
181.0,13.564195047795401,15.579701692074924,0.5930961334337403,7.962717670864278
182.0,13.560787006956733,15.575911315703738,0.5936167876419418,7.986876260660928
183.0,13.558114054534455,15.572547283301908,0.5941346271885518,8.011267565094702
184.0,13.556221082117462,15.569632169527566,0.5946495536544761,8.035885213814131
185.0,13.555051716302783,15.567173641257018,0.5951614690073507,8.060722791872957
186.0,13.55448067449364,15.56516474264739,0.5956702841891113,8.08577336516656
187.0,13.55455508228861,15.563620592420847,0.5961759159153565,8.111029714587955
188.0,13.555325017607904,15.562556716378316,0.5966782809439988,8.136484619323246
189.0,13.556825596622495,15.561986484212317,0.5971772959623832,8.16213085947417
190.0,13.558899776031016,15.561893430173193,0.5976728803055893,8.187960995821921
191.0,13.561535935329815,15.562277382051693,0.5981649617254389,8.213967077597111
192.0,13.564790017981766,15.563147337084626,0.598653469232554,8.240141088769114
193.0,13.56871796744974,15.564512292508795,0.5991383318375567,8.266475013307303
194.0,13.573286854184788,15.566368303137768,0.599619478665805,8.292960802282263
195.0,13.578361020692975,15.568694982190483,0.6000968441120034,8.31958997871571
196.0,13.583989995556879,15.571497629916209,0.6005703667743497,8.346353796865458
197.0,13.590229825217309,15.574782474680381,0.6010399853156764,8.37324350785563
198.0,13.597127732236817,15.5785544779962,0.601505638364247,8.400250363248068
199.0,13.604548325690455,15.582792506499311,0.6019672657898744,8.427365449859174
200.0,13.612465248569837,15.587491384480701,0.6024248127149964,8.454579420530957
201.0,13.620928423440247,15.592656931496398,0.6028782252561526,8.481882862572636
202.0,13.629987772866976,15.598294967102428,0.6033274495298826,8.509266363293431
203.0,13.639624820598332,15.604401651522341,0.6037724316632801,8.536720487463802
204.0,13.649699201222434,15.610956356799335,0.6042131206025384,8.564235471554502
205.0,13.660241025474999,15.617962956194479,0.6046494680767243,8.591801319162267
206.0,13.6712906979667,15.625426788011056,0.6050814258879739,8.619408029593982
207.0,13.682884337003754,15.633352582740702,0.6055089458258589,8.64704560227862
208.0,13.694897870693426,15.641722162003497,0.6059319802327037,8.674703922904701
209.0,13.707280650928904,15.650527218158105,0.6063504845258719,8.702372544128961
210.0,13.720063672573657,15.659770929493176,0.6067644148447022,8.730040960429225
211.0,13.733277930491154,15.669456474297359,0.6071737273285329,8.757698666283318
212.0,13.74690004322371,15.679579060506994,0.6075783780541341,8.78533514836292
213.0,13.760774129008075,15.690113121600065,0.6079783245581881,8.81293967750117
214.0,13.77491416677503,15.701056426268025,0.6083735264351092,8.840501321593612
215.0,13.789349644827197,15.712408956345325,0.608763943368885,8.868009142006697
216.0,13.804110051467195,15.724170693666421,0.6091495350435032,8.895452200106874
217.0,13.819172177736553,15.736333615502398,0.6095302611522336,8.92281954337519
218.0,13.83437186337218,15.748866472135976,0.6099060827315278,8.950100034394696
219.0,13.84971466177524,15.761761626675975,0.6102769623597595,8.977282404301437
220.0,13.865223238457242,15.775013951563993,0.610642862677556,9.004355381425396
221.0,13.880920258929697,15.788618319241628,0.611003746325544,9.031307694096558
222.0,13.896781735564815,15.802562428768457,0.6113595759330711,9.05812806082598
223.0,13.91265115579542,15.816812081546274,0.6117103152668013,9.084805084318162
224.0,13.928531836703252,15.831355783414162,0.6120559295707916,9.11132729274851
225.0,13.944444523904977,15.84618463653742,0.6123963841575106,9.13768321313401
226.0,13.960409963017252,15.861289743081349,0.6127316443394275,9.16386137249165
227.0,13.97644870473546,15.87666217299976,0.6130616754289105,9.189850297776086
228.0,13.992464180103552,15.892273434100238,0.6133864431492885,9.215638474304125
229.0,14.008369953863614,15.908095945567554,0.6137059149621238,9.24121437524824
230.0,14.024175495742718,15.924117800252125,0.614020058775922,9.26656650092133
231.0,14.039890275467926,15.940327091004368,0.6143288424991886,9.291683351636287
232.0,14.05552376276631,15.956711910674702,0.6146322340404291,9.316553427706006
233.0,14.071068543955583,15.973257257146756,0.6149302013381172,9.341165217453893
234.0,14.086413704195225,15.989929068522095,0.6152227134772454,9.365507210149397
235.0,14.101536946449075,16.00670938396288,0.6155097409853111,9.389568081692097
236.0,14.116437813129428,16.023584234577775,0.6157912544793145,9.413336533408458
237.0,14.13111584664858,16.040539651475466,0.6160672245762558,9.436801266624938
238.0,14.145570589418824,16.05756166576462,0.6163376218931355,9.459950982668003
239.0,14.1597969421298,16.07463523191228,0.6166024170832913,9.482774375660044
240.0,14.173725637244232,16.091730689842887,0.6168615821195697,9.505260187013914
241.0,14.187322278495389,16.10882705300589,0.6171150904781864,9.52739753155427
242.0,14.200572126438619,16.125907965322707,0.6173629156972956,9.549175593406403
243.0,14.21346044162927,16.142957070714758,0.6176050313150515,9.570583556695603
244.0,14.225972484622691,16.159958013103463,0.6178414108696083,9.591610605547164
245.0,14.23809353454833,16.176894302840825,0.6180720279122782,9.612245920950295
246.0,14.249807131386545,16.19374341879593,0.6182968572189114,9.632478738229409
247.0,14.26108938306864,16.210483591900278,0.6185158752830588,9.65229886733751
248.0,14.271914779679202,16.227095621659007,0.6187290586535087,9.671696274359862
249.0,14.282257811302822,16.243560307577244,0.6189363838790491,9.690660925381732
