Time,J,A,S,tau
0.0,100.0,100.0,0.9683703720740189,8.547008547008547
1.0,98.68770649843896,98.33645875384333,0.9688148657931601,8.33282805635047
2.0,97.36607855860134,96.69950210412183,0.9692854079454258,8.105949386885708
3.0,96.03681208181794,95.09070250925558,0.9697813663796805,7.86668131587742
4.0,94.70021755031426,93.51008975006968,0.9703026732918109,7.6150627463131135
5.0,93.35658864787808,91.95766987523784,0.9708492614343084,7.351133416654358
6.0,92.00616426770107,90.43340356497094,0.9714210650127119,7.07493616295067
7.0,90.81086447944962,88.77587635418179,0.9719400198291488,6.823951106594626
8.0,90.4192507165004,86.35137247627888,0.972078866595424,6.755322077580272
9.0,90.02911882940477,83.97015162185617,0.9722142159283512,6.688354073102076
10.0,89.64019885482541,81.63256166988427,0.9723461895742327,6.62300095822007
11.0,89.25227467324935,79.3387925691146,0.9724749037859352,6.559218400867385
12.0,88.86522988380798,77.08898550894578,0.972600461795745,6.496966493910261
13.0,88.47894579671151,74.88329212999584,0.9727229655278798,6.4362057781891995
14.0,88.09315059370367,72.72183754257829,0.9728425125892123,6.376898150381151
15.0,87.70774967873429,70.60464371577935,0.9729591867785028,6.31901011649388
16.0,87.32272077464656,68.53171528286485,0.9730730697375255,6.2625089208336195
17.0,86.93805397420304,66.50295544803836,0.9731842428047127,6.20736187845644
18.0,86.55381821186037,64.51803456021963,0.9732927778763028,6.15353933327219
19.0,86.17010958741236,62.57680410275585,0.973398738850368,6.101014301784885
20.0,85.78702395581094,60.679127481184445,0.9735021894509973,6.049759860891582
21.0,85.40464640260872,58.82472034502609,0.9736031924266748,5.999749365965165
22.0,85.02311107888397,57.01320500901579,0.973701801259496,5.950959152250934
23.0,84.64260221191834,55.24439317159765,0.9737980650659035,5.903367018545516
24.0,84.2633038884511,53.5180967157501,0.9738920329580427,5.856950765175881
25.0,83.88536494786202,51.83389351421152,0.973983752919773,5.8116885162882195
26.0,83.50906769620039,50.19143626983875,0.9740732646587149,5.767561099988586
27.0,83.13477007431318,48.590556508293254,0.974160605302473,5.72455021583886
28.0,82.76283002304737,47.03108575523646,0.9742458119786522,5.682637563400922
29.0,82.39358216428718,45.51271292135065,0.974328920935386,5.641805115226579
30.0,82.02749760455312,44.03507849838978,0.9744099628122262,5.602036697360531
31.0,81.66519852543962,42.59809836171642,0.9744889660473403,5.563316901837266
32.0,81.30729690660839,41.20166867209109,0.9745659590681841,5.525630322768877
33.0,80.95439093086378,39.84552285244724,0.9746409683611932,5.488962210669856
34.0,80.60737862594728,38.52973689345887,0.9747140166834038,5.4532991349089
35.0,80.26721565575883,37.25447537373345,0.9747851264018473,5.418627807418883
36.0,79.93481334647417,36.01982942366186,0.974854319362494,5.384935128245444
37.0,79.61119712091495,34.82604792684144,0.9749216147152514,5.352209002826369
38.0,79.29755749218826,33.67363343177459,0.9749870307489161,5.320437670008824
39.0,78.99498185685262,32.56307085155227,0.9750505850334111,5.289609658008376
40.0,78.70463276228601,31.495157455281714,0.9751122935403207,5.259714153632514
41.0,78.4276151461721,30.47075851770192,0.9751721718068094,5.230740531124013
42.0,78.16484898763964,29.490993288708548,0.9752302341729081,5.202678712150488
43.0,77.91721642494069,28.557156342956,0.9752864944937513,5.175518848843844
44.0,77.68514001232474,27.670664022040572,0.975340965859633,5.149251489719186
45.0,77.46880179034346,26.83310763848655,0.9753936608565011,5.123867458698034
46.0,77.26781237383467,26.04618166229307,0.9754445915068153,5.099357924931062
47.0,77.08130601171001,25.311618065359458,0.9754937694876952,5.075714286319561
48.0,76.90774865764541,24.631134539270764,0.9755412060604909,5.052928256343487
49.0,76.74491603832045,24.006297045088424,0.9755869122306223,5.03099176623624
50.0,76.5900025462052,23.43846305517308,0.9756308987464404,5.009897009878673
51.0,76.43945634804498,22.928561630654755,0.9756731761591972,4.989636410516259
52.0,76.28940066678248,22.47709551724472,0.9757137548842154,4.970202600734037
53.0,76.13551290860808,22.0837992330521,0.9757526451967263,4.9515884562444255
54.0,75.97350573962072,21.74778397441606,0.9757898573035487,4.933787028828881
55.0,75.79924503212017,21.467182691087952,0.9758254013257368,4.9167916032183285
56.0,75.60905728148592,21.239288004167456,0.9758592873300281,4.900595652478484
57.0,75.40001296219279,21.060486984904102,0.9758915253312644,4.8851928526664
58.0,75.17016217323848,20.92633971168852,0.9759221252952036,4.870577080328587
59.0,74.91858227983712,20.83172239149114,0.975951097121317,4.856742413739163
60.0,74.6454520645039,20.771023682808888,0.9759784506343334,4.843683134117277
61.0,74.35196447392423,20.738378503294406,0.9760041955609444,4.831393729478976
62.0,74.04016469344398,20.72792439856984,0.9760283415024519,4.819868899238741
63.0,73.71272682852438,20.73405211969303,0.9760508979021907,4.809103559717877
64.0,73.372699863473,20.751626668815526,0.9760718740083694,4.799092850471923
65.0,73.02325255852136,20.776161380593614,0.9760912788330943,4.789832141287658
66.0,72.66744771627013,20.80392986913946,0.976109121108427,4.78131703968795
67.0,72.30806639572437,20.832010347422955,0.9761254092406109,4.773543398393825
68.0,71.94748231864544,20.858279411549457,0.976140151263489,4.766507323840373
69.0,71.58759464218434,20.881350955006287,0.9761533547807739,4.760205189013474
70.0,71.22985332792373,20.900440694693888,0.9761650269456528,4.7546336265369264
71.0,70.87522448470516,20.915306594624678,0.9761751744095675,4.749789544031011
72.0,70.52432583810699,20.926065274180704,0.9761838032378889,4.745670146317727
73.0,70.17733028746952,20.933154555730233,0.97619091881846,4.742272969658434
74.0,69.83432630834835,20.937090306118133,0.9761965262499721,4.7395956894965385
75.0,69.49512251948417,20.93850835117711,0.9762006295134361,4.73763649389714
76.0,69.15943931696998,20.938039564227473,0.9762032322612624,4.736393715502891
77.0,68.82696089658434,20.936281691473024,0.9762043374080859,4.735866017827984
78.0,68.49735248187628,20.933713956356705,0.9762039469062413,4.736052480259943
79.0,68.17028243439064,20.9307855809329,0.9762020624695569,4.736952286784425
80.0,67.84548800530368,20.927800151292683,0.9761986846736692,4.738565120424793
81.0,67.52275501569419,20.924984100533255,0.9761938136330993,4.740890861558553
82.0,67.20190204675039,20.922509626444185,0.9761874489343532,4.743929628019392
83.0,66.88286650153749,20.920432885362835,0.9761795890762134,4.747682032557934
84.0,66.5656047205495,20.918793559176557,0.9761702324290714,4.752148743482042
85.0,66.25009241973224,20.91759118795085,0.9761593768655838,4.757330643113932
86.0,65.93642409922903,20.916799276044017,0.9761470189936438,4.763229295165077
87.0,65.62471546720973,20.91639357740009,0.976133155251336,4.769846365235066
88.0,65.3150822318442,20.91634984596311,0.9761177820767459,4.777183518923488
89.0,65.00764425348443,20.916646123880298,0.9761008956761805,4.785242550577757
90.0,64.70254943452052,20.917286645368954,0.9760824911899889,4.794025890837572
91.0,64.39995320283545,20.91829541400917,0.9760625637691973,4.803536020792622
92.0,64.10001236033864,20.91972360767746,0.9760411083181165,4.813775644139893
93.0,63.80287857544858,20.921631408945224,0.9760181195552644,4.824747583269486
94.0,63.50870329294105,20.924130663270127,0.975993592017315,4.836455000814507
95.0,63.21764274774469,20.92735534422669,0.9759675202493754,4.848901164335159
96.0,62.92984914025559,20.931438818441336,0.9759398987630423,4.862089355323225
97.0,62.645441974743605,20.936533270023972,0.9759107217791037,4.87602315794033
98.0,62.36456491500967,20.942838044565722,0.9758799836837454,4.890706420914444
99.0,62.087369530485205,20.95055778032542,0.9758476789254926,4.906142998480445
100.0,61.81399129886511,20.959895461673316,0.9758138018870856,4.922336805804435
101.0,61.5445427758223,20.971073788426864,0.9757783468755616,4.9392921029465064
102.0,61.279178831780236,20.984341341382404,0.9757413083885101,4.957013241534294
103.0,61.0180412929927,20.999943728107336,0.9757026808997138,4.975504598957174
104.0,60.76124566563595,21.01813244548018,0.975662458801928,4.9947708238292785
105.0,60.50896428722288,21.039186838533723,0.9756206365851587,5.014816713249139
106.0,60.261357630207144,21.06338395222342,0.9755772087281763,5.03564708346819
107.0,60.01854411843479,21.091000909509866,0.9755321695353669,5.057267013662483
108.0,59.78071838830162,21.122346312202133,0.9754855132430822,5.079681782448936
109.0,59.54806780466438,21.157727663201573,0.975437234080211,5.102896683717129
110.0,59.320719146500615,21.19744719580442,0.9753873259771649,5.126917270913532
111.0,59.09889312047681,21.241843882577285,0.9753357825294836,5.151749367540856
112.0,58.88281088793043,21.29125780218152,0.9752825973138209,5.1773988142926095
113.0,58.67261211112162,21.346018856495327,0.975227763484159,5.203871708126882
114.0,58.46854648346863,21.40649895996557,0.9751712734976166,5.231174505741946
115.0,58.27087755608064,21.473074934062996,0.9751131197470856,5.259313694647892
116.0,58.07977948466146,21.54611302520418,0.9750532940503845,5.288296031053836
117.0,57.89552769027153,21.626017674299383,0.9749917872718707,5.318128666058798
118.0,57.71838839489526,21.713194302001583,0.9749285901254259,5.3488188121815305
119.0,57.548590111379276,21.808056415828165,0.9748636922047342,5.380374109187992
120.0,57.386475888010196,21.91105264208409,0.9747970822866133,5.412802487400645
121.0,57.232299537332835,22.022617491156755,0.9747287487551402,5.446112021017127
122.0,57.08638546831988,22.14322191472399,0.9746586782495605,5.480311374377501
123.0,56.94910824414748,22.27335296922757,0.974586856973684,5.5154093546098775
124.0,56.82074365668915,22.413490253978527,0.9745132699319026,5.55141515974255
125.0,56.70171883433797,22.56416417683849,0.9744379003376682,5.588338553559224
126.0,56.59240983423562,22.725898257786707,0.9743607310812631,5.626189401058289
127.0,56.493180475162326,22.899236609216803,0.9742817427526214,5.664978274616219
128.0,56.40453873721374,23.084764913014457,0.9742009147146888,5.704716120327855
129.0,56.32685248313563,23.283049755989293,0.9741182253948658,5.745414162753999
130.0,56.26063242598617,23.49471392228032,0.9740336502430694,5.787084518128596
131.0,56.20641710660065,23.720391148304312,0.9739471641457557,5.829739469835084
132.0,56.16463551156353,23.96071470731209,0.97385873960743,5.873391998422816
133.0,56.13593247795642,24.216382757510644,0.9737683465316458,5.918055858001171
134.0,56.12085790588464,24.48808144857385,0.9736759540485372,5.963745023025943
135.0,56.119995825181604,24.77653362621993,0.9735815276752591,6.0104745266339705
136.0,56.13401200194802,25.08248917593289,0.9734850315889431,6.058259797494192
137.0,56.163516572275896,25.40671119047628,0.9733864268018523,6.107117185522305
138.0,56.20927271742361,25.750010513161076,0.973285671971688,6.157063740822426
139.0,56.27192442895765,26.11319462644697,0.9731827232039851,6.208117252109607
140.0,56.35230674922569,26.497130364900706,0.9730775329932494,6.260296586867914
141.0,56.451131473691326,26.90267654494461,0.9729700519770383,6.313621148470113
142.0,56.56926529160887,27.33075060426887,0.9728602260317823,6.368111768067456
143.0,56.70752746698018,27.782272129278812,0.9727479994600818,6.423789738896829
144.0,56.86677805150017,28.258199350256657,0.9726333112947366,6.480677939311873
145.0,57.04795664949635,28.759516664797307,0.9725160984105774,6.538799904520722
146.0,57.251911579070395,29.287218553554645,0.9723962928149448,6.598180637894913
147.0,57.47967059828075,29.842348596138198,0.9722738229388582,6.658846255199413
148.0,57.73209475626804,30.42593848502377,0.9721486133528783,6.7208240404927455
149.0,58.01024535445338,31.03907797051017,0.9720205832450143,6.784142974274221
150.0,58.31502281079842,31.682837380067138,0.9718896490438261,6.84883287673237
151.0,58.64745610676125,32.358333576534434,0.9717557202200225,6.9149257860867355
152.0,59.008505661525426,33.06667608202959,0.9716187039610521,6.982454453566249
153.0,59.399107511091074,33.80898705150919,0.9714784999139799,7.051454058019519
154.0,59.820257167066565,34.58640523884298,0.9713350046819893,7.121960772833477
155.0,60.27277682471062,35.40004212714093,0.9711881080726158,7.1940129793736185
156.0,60.75761539720314,36.251039536367045,0.9710376949806729,7.2676507115364615
157.0,61.27548536381828,37.14048743103985,0.9708836450630443,7.3429157212811775
158.0,61.82718504927904,38.069493684949535,0.970725830797959,7.4198522240076015
159.0,62.41330728759544,39.03911265601029,0.9705641210390975,7.498505637336586
160.0,63.03439553216675,40.050375519098004,0.9703983756713366,7.578924513457787
161.0,63.69088328914361,41.10427784161264,0.9702284516900432,7.66115839434952
162.0,64.38297695653512,42.2017331276706,0.9700541967468842,7.745260143939281
163.0,65.11085064592277,43.34363446239907,0.9698754547893593,7.831283966288057
164.0,65.87433507636811,44.53074683780354,0.9696920617414228,7.919286966835019
165.0,66.67320219779769,45.763798311192986,0.9695038479188871,8.009328358418715
166.0,67.50687634037028,47.04337617274138,0.9693106379478783,8.101469441417644
167.0,68.37455268464855,48.36995737246004,0.9691122473256608,8.195775077883205
168.0,69.27528069246465,49.743951046152596,0.9689084896284015,8.292310830884674
169.0,70.2075841868067,51.165520014380604,0.9686991684381568,8.391146227901311
170.0,71.16986437574754,52.634764210418126,0.9684840831477154,8.492352536288056
171.0,72.16011948510307,54.15156956509611,0.9682630279805515,8.596003105511649
172.0,73.17592072282518,55.715606869339354,0.9680357888696794,8.70217488495041
173.0,74.21466355076721,57.32643904186357,0.9678021496076651,8.810945735519462
174.0,75.27319400443412,58.98331040621478,0.9675618865581116,8.922396884954034
175.0,76.34813646491298,60.68532718160299,0.9673147730113686,9.036611011686706
176.0,77.43562647673409,62.43128008999228,0.967060576584539,9.153673621688492
177.0,78.53156894030353,64.21979446072388,0.9667990623292407,9.273671557007688
178.0,79.63141772721426,66.04915450348317,0.9665299909023221,9.396694172609502
179.0,80.7304181140381,67.9174717377462,0.9662531211478742,9.52283195331994
180.0,81.82343911086714,69.82250103356763,0.9659682090895813,9.652177470167135
181.0,82.90518008200796,71.76181347980234,0.9656750097858289,9.784824213411392
182.0,83.97008880425483,73.73264964987756,0.9653732774151864,9.920867082677136
183.0,85.01249681785528,75.73203070126362,0.9650627664536957,10.06040161592969
184.0,86.02661955146476,77.75669708553772,0.9647432320721925,10.203524207913
185.0,87.00666100295828,79.80315360889584,0.9644144317037723,10.3503313452606
186.0,87.9468431442657,81.86768380532915,0.9640761250312353,10.500919720651176
187.0,88.84152013913452,83.94633520949452,0.9637280763025288,10.655385510871408
188.0,89.68518660481062,86.03499260893032,0.963370053753232,10.813824340838279
189.0,90.47262946088748,88.1293415365012,0.9630018323507807,10.976330675434918
190.0,91.19891240756142,90.22494909535595,0.9626231935708648,11.14299749186476
191.0,91.8595054151807,92.3172525743922,0.9622339270444334,11.31391601865274
192.0,92.45032928126159,94.40161554666416,0.9618338323830309,11.489174845401559
193.0,92.96775775352418,96.47334760400058,0.961422718276936,11.66886025992178
194.0,93.40879008897694,98.5277457824874,0.9610004069730429,11.853054725683915
195.0,93.77090457520092,100.5601240710301,0.96056673143933,12.04183758350202
196.0,94.05229090969915,102.565853414213,0.9601215402979838,12.235283558593732
197.0,94.25168476560896,104.54039707042146,0.9596646963764293,12.433462856057968
198.0,94.3685149365253,106.4793342182004,0.959196078672581,12.636440713673434
199.0,94.4028043716802,108.37841595437067,0.958715584271242,12.844276301657466
200.0,94.35519382325191,110.2335570656017,0.9582231267989375,13.057023443863175
201.0,94.2269423321918,112.0409233548785,0.9577186418785546,13.274728332295208
202.0,94.01980133635406,113.796871242948,0.957202081341743,13.497431644652524
203.0,93.73613600385151,115.49809262902383,0.9566734235787845,13.725164563010962
204.0,93.37868399590616,117.14147595921749,0.956132662204915,13.957952897750843
205.0,92.95067099412756,118.72429591870551,0.9555798200739234,14.195811589160897
206.0,92.45563646598298,120.2440527682785,0.9550149367586069,14.438749483457437
207.0,91.89744712104122,121.69864194779824,0.954438081591297,14.686763976780616
208.0,91.28020598463064,123.08621020377237,0.9538493424269366,14.939845466358078
209.0,90.6081930995804,124.40528705025854,0.9532488367507798,15.197972574005975
210.0,89.88583348060222,125.65466984936828,0.9526367023146785,15.461115980735016
211.0,89.1176014799446,126.83350914402443,0.952013105770731,15.729234519521635
212.0,88.30801915054323,127.94122912394782,0.9513782356477238,16.002278132543722
213.0,87.46155925136938,128.97756567148647,0.950732308137031,16.280185072356627
214.0,86.5826473796559,129.94252273801365,0.9500755627158454,16.562883773026098
215.0,85.67559145120492,130.8363680437594,0.9494082648932209,16.850291334547936
216.0,84.74456743067292,131.6596206449917,0.9487307046206844,17.142314161585208
217.0,83.79359258219607,132.4130140047844,0.948043195982678,17.43884783490145
218.0,82.82648316245658,133.09750643518564,0.9473460783807597,17.739776437628603
219.0,81.84687825498295,133.71422338282915,0.9466397133070814,18.04497384645555
220.0,80.85816554431231,134.26448149361974,0.9459244881596415,18.35430172927461
221.0,79.86355398313691,134.74972157502242,0.9452008103577588,18.66761222367042
222.0,78.86597030096024,135.17153755465665,0.9444691135514918,18.98474464667696
223.0,77.86817164096422,135.53161066874193,0.9437298494183807,19.305529472756586
224.0,76.87262159097821,135.83173457609308,0.9429834959727859,19.629783843462793
225.0,75.881628841202,136.0737602076457,0.9422305474241645,19.95731671333108
226.0,74.89721343659916,136.25961115034067,0.9414715242492878,20.287923294606845
227.0,73.92126260086584,136.39124367774176,0.9407069612289246,20.62139136832629
228.0,72.95537609545127,136.47065075741247,0.9399374207126396,20.957493830098088
229.0,72.00105972419011,136.4998370056488,0.9391634753112647,21.295998085344674
230.0,71.05955081854344,136.4808132686302,0.9383857274235983,21.63665517466067
231.0,70.13198340266226,136.4155832291294,0.9376047894826,21.97921040884564
232.0,69.21932347337547,136.30614105021078,0.9368212973396374,22.32339621986216
233.0,68.32234817913904,136.1544399760296,0.9360359090382999,22.668932138724387
234.0,67.44179188291388,135.96242873432308,0.9352492899033175,23.01553371005626
235.0,66.57818776727649,135.73199351640716,0.9344621379579571,23.362897797928824
236.0,65.73199705388527,135.46498617241508,0.933675161715626,23.710714988690132
237.0,64.90360534214267,135.1632287926252,0.9328890866565126,24.058666346826435
238.0,64.09325742503852,134.8284552719242,0.9321046686245021,24.406415291085327
239.0,63.30117538433893,134.46238434305138,0.9313226687733996,24.753622159705568
240.0,62.52748593524524,134.06665809372274,0.9305438782036262,25.09993027399926
241.0,61.772253214906634,133.64285214366294,0.9297691086662163,25.444971047842408
242.0,61.03551818566835,133.19251995424958,0.9289991815769378,25.78837046254911
243.0,60.317247445716134,132.71710936767843,0.9282349570564792,26.129732773659885
244.0,59.617390902685955,132.21803956059284,0.9274773048473194,26.468656822048032
245.0,58.93586694192691,131.69667133738608,0.9267271192874729,26.804727872672363
246.0,58.272561082164565,131.15427737543055,0.9259853301837603,27.137511820435826
247.0,57.62735243406598,130.5921152709766,0.9252528737566742,27.46657102881463
248.0,57.000098697979965,130.01135200625365,0.9245307291216414,27.791444883786575
249.0,56.39065212304585,129.4131076761504,0.923819897884171,28.11166088529943
250.0,55.798859271558705,128.79847063405808,0.9231213983891319,28.426737635426452
251.0,55.22456754816819,128.16843893851117,0.9224363010070012,28.736166786502608
252.0,54.66762495986732,127.52399405415942,0.921765685697811,29.03943503414743
