Time,J,A,S,tau
0.0,100.0,100.0,0.8214061412384371,20.0
1.0,99.33251671225555,96.52191772300317,0.8231531318343206,20.102227146849735
2.0,98.68759205082227,93.20039653591438,0.8250033101434091,20.211800369599924
3.0,98.06478000053642,90.02984961067817,0.8269507203711549,20.328501141659444
4.0,97.46316328260801,87.00205282209689,0.8289918769928614,20.452251427759297
5.0,96.88187397211301,84.10928582871081,0.8311234104156924,20.582972521261617
6.0,96.3201022020597,81.34431984172078,0.8333420718720538,20.720585076996294
7.0,95.7770996417356,78.7003367541964,0.8356447200266651,20.865009238938132
8.0,95.2521888875899,76.17092690376774,0.8380283172522107,21.01616470489607
9.0,94.7447887593442,73.75008830671052,0.840489933678306,21.173970776290016
10.0,94.25443554894771,71.43215558777655,0.8430267367981465,21.338346461871314
11.0,93.78080718691324,69.21178604343007,0.8456359855517649,21.50921054713587
12.0,93.32378956045882,67.08398647125125,0.8483150365259217,21.686481650736848
13.0,92.88352215796908,65.04402608099392,0.8510613329384865,21.87007831554856
14.0,92.46043984386989,63.08744641205974,0.8538723989042434,22.059919062202574
15.0,92.0554233138781,61.21006985168697,0.8567458483979615,22.255922469009644
16.0,91.66982110231466,59.40792960999542,0.8596793691967157,22.458007227341252
17.0,91.30556976739238,57.67729789745693,0.8626707252738139,22.666092197383247
18.0,90.96537266032153,56.01466275669533,0.8657177590428611,22.880096495476156
19.0,90.65267247211928,54.416687113249985,0.8688183774127901,23.099939503076808
20.0,90.3719193237299,52.88024965471807,0.8719705606269788,23.32554096173534
21.0,90.1285739055534,51.40238059355288,0.8751723537494549,23.55682100432881
22.0,89.92913590748205,49.98027668658879,0.8784218612468782,23.793700155734733
23.0,89.78144645419793,48.61130229578067,0.8817172569539041,24.036099472972815
24.0,89.6943785141567,47.29294735613866,0.8850567654200449,24.283940437578657
25.0,89.67809021464822,46.02284511265681,0.8874777425912778,24.48525456561128
26.0,89.74387468064806,44.79875332359249,0.8892891947846174,24.656316335090853
27.0,89.90414536536942,43.61855327760136,0.8910598342419392,24.82769066480682
28.0,90.172275003985,42.480239489562365,0.8927901245726902,24.999347188118996
29.0,90.56245724561711,41.381914414157386,0.8944805345575686,25.171255632417246
30.0,91.0895235693317,40.32178450491476,0.8961315374358156,25.34338578712362
31.0,91.76871672425429,39.29815541763477,0.8977436102443517,25.51570745762523
32.0,92.61545150234562,38.30942945260152,0.8993172332213824,25.68819040827476
33.0,93.64506146397957,37.354104432164355,0.9008528892801427,25.860804292098855
34.0,94.87253698470799,36.43077417772131,0.9023510635360992,26.033518566508373
35.0,96.31226184212643,35.538130966985335,0.9038122428844138,26.206302394422096
36.0,97.9777529642734,34.67497027684517,0.905236915624286,26.37912452959522
37.0,99.88140231125492,33.84020049337387,0.9066255711216008,26.55195317690531
38.0,102.03424376051781,33.03285046118956,0.907978699524171,26.724755852199987
39.0,104.44573805498206,32.252085172936866,0.90929679150637,26.897499213609574
40.0,107.12365679771001,31.497218154625873,0.9105803380295859,27.070148927236012
41.0,110.07374247523545,30.76774978612849,0.9118298301158249,27.242669352679723
42.0,113.29968420073578,30.063370259800678,0.9130457587978867,27.415023451343888
43.0,116.80318507794955,29.383983027237118,0.9142286147792349,27.587172668770535
44.0,120.58316679441057,28.72978878467274,0.9153788885078714,27.759076203637502
45.0,124.63644700746364,28.10131433719701,0.9164970692401978,27.93069103598337
46.0,128.95772815766625,27.499305851231103,0.917583646293092,28.10197236549191
47.0,133.53872037369894,26.924969650620305,0.918639107728673,28.27287206849829
48.0,138.36879221849625,26.37987884998397,0.9196639407666631,28.4433392617574
49.0,143.43495763158182,25.866047251296646,0.9206586312050986,28.613319833851335
50.0,148.72158393344296,25.38596700866764,0.9216236635204992,28.7827559631413
51.0,154.2107572686536,24.942601681718227,0.9225595205765592,28.951586136381252
52.0,159.88227379737802,24.539437679826918,0.9234666832151645,29.119744638370435
53.0,165.71367598582265,24.18048044885239,0.924345630147409,29.287161301990377
54.0,171.68048042222563,23.87025561033946,0.9251968375562242,29.4537612799442
55.0,177.75630972218744,23.613799075647453,0.9260207787750387,29.61946479063667
56.0,183.91304248053183,23.41664040984949,0.9268179239004352,29.784186864239043
57.0,190.12095631943492,23.284783636430177,0.9275887392552011,29.947836997010807
58.0,196.3488146579814,23.22464718043792,0.9283336871333494,30.11031910615965
59.0,202.56398519207806,23.243027060477356,0.9290532251540843,30.27153123634222
60.0,208.7324618038496,23.34703315733166,0.9297478057702967,30.431365423157903
61.0,214.81884714890498,23.544020743844726,0.9304178757019229,30.58970755579583
62.0,220.7862945707233,23.841514631709277,0.9310638753377284,30.746437272305975
63.0,226.5964284868413,24.247127459916413,0.9316862381073533,30.90142788830125
64.0,232.20927667755643,24.768473602835456,0.9322853898262449,31.054546361305235
65.0,237.58325969688465,25.413080228496014,0.9328617480163924,31.205653292769394
66.0,242.67529044292854,26.188297042028783,0.9334157212060054,31.354602969585706
67.0,247.4410382436887,27.101206192344932,0.9339477082114356,31.501243446720206
68.0,251.83540481198256,28.15853351643253,0.9344580974047488,31.645416672393125
69.0,255.81324343802723,29.366561854001237,0.9349472659696291,31.786958656852935
70.0,259.3303278662047,30.7310477494395,0.9354155791443679,31.92569968459785
71.0,262.3445117137167,32.25714366906076,0.9358633895430869,32.061464594405344
72.0,264.81715832689304,33.94931745971873,0.9362910361741931,32.19407302272229
73.0,266.7144603675401,35.81128700429818,0.9366988439735751,32.32333983754376
74.0,268.0089256644261,37.845942193436095,0.9370871227823184,32.449075470612385
75.0,268.68027705591237,40.05531373045368,0.9374561672694811,32.57108649539886
76.0,268.7167641992776,42.440482638505664,0.93780625519473,32.68917590239209
77.0,268.11592329058357,45.00146112617714,0.9381376466096745,32.8031437461071
78.0,266.88338066876804,47.73732575564554,0.938450584855127,32.912787857902664
79.0,265.03422252743513,50.645918184692405,0.9387452934909299,33.01790430164813
80.0,262.5905792942032,53.72405106485164,0.9390219787784373,33.11828819839815
81.0,259.58180346248236,56.96722924725958,0.9392808247393621,33.21373432113382
82.0,256.04220647234416,60.369779654576035,0.9395219965410954,33.304037992689366
83.0,252.00993330600994,63.92475832039817,0.9397456380230931,33.38899580184733
84.0,247.5254004993417,67.62391915016049,0.9399518710471144,33.4684064926704
85.0,242.6299193983035,71.45768637167419,0.9401407949344711,33.5420719437886
86.0,237.36452737770915,75.41518426320907,0.9403124864728502,33.609798017353086
87.0,231.7691526910598,79.48424244242604,0.9404669993811223,33.67139545249017
88.0,225.8819571906713,83.65137361168958,0.9406043631137201,33.726680995257816
89.0,219.73904278895574,87.90178713869875,0.9407245825403009,33.77547850373146
90.0,213.37445216949928,92.21943179227596,0.9408276380427723,33.81761980866364
91.0,206.82031565641063,96.58699343157022,0.9409134850473051,33.85294569838402
92.0,200.10713630656034,100.98583801183237,0.9409820528443271,33.8813072445584
93.0,193.26430054050667,105.39595277364904,0.9410332444920158,33.90256691717355
94.0,186.32064191069952,109.79587139060298,0.9410669370030121,33.916599366290946
95.0,179.30499939335684,114.16252877387788,0.9410829809627487,33.92329240341092
96.0,172.24688082099811,118.47098832540304,0.9410811991705174,33.92254851240473
97.0,165.1770777675929,122.69427506815688,0.9410613877217595,33.91428537725606
98.0,158.12824500068433,126.8031064872769,0.9410233150868567,33.89843698657633
99.0,151.13537618187362,130.76571751480694,0.9409667221427204,33.87495443437871
100.0,144.23611877840077,134.54779391650948,0.940891322064498,33.8438066933117
101.0,137.47085042099414,138.11260268247005,0.9407968002812487,33.80498128600158
102.0,130.8824383510771,141.4214000051356,0.940682814489897,33.75848484673863
103.0,124.51560279028443,144.43419505339267,0.9405489945320112,33.704343656783394
104.0,118.41583243650781,147.11093259913068,0.9403949430303961,33.642603741169836
105.0,112.62788576377643,149.41302858190346,0.9402202352457796,33.57333113831514
106.0,107.19390945566433,151.30525557984126,0.940024419511452,33.496611831877416
107.0,102.15131747030935,152.75781586142944,0.9398070176423217,33.41255154214679
108.0,97.53061616321851,153.7484190499842,0.9395675254356229,33.32127533174653
109.0,93.3534258221875,154.26412010772094,0.9393054133119713,33.22292701157191
110.0,89.63097703109952,154.3026388847444,0.9390201270828098,33.11766829982824
111.0,86.3628451633374,153.87339141308672,0.9387110879360141,33.00567825759709
112.0,83.53735777099222,152.9968935355916,0.9383776945424089,32.8871515481413
113.0,81.13207589560125,151.7040437827021,0.9380193233612152,32.7622974388641
114.0,79.11527498510394,150.03443706242322,0.9376353295360469,32.63133841580751
115.0,77.44821191055732,148.0339401863204,0.9372250482252061,32.49450844147093
116.0,76.08762153536138,145.752074239009,0.9367877956054893,32.35205133514394
117.0,74.98838103286901,143.2392873980425,0.9363228701063371,32.20421894221536
118.0,74.1059686431174,140.54448399784542,0.9358295536178579,32.05126930130304
119.0,73.39853245350696,137.71298983678113,0.9353071127047975,31.893464764479017
120.0,72.82839778747632,134.7851190178892,0.9347547998693468,31.731070115175918
121.0,72.36297050466187,131.79536949834514,0.934171854791872,31.564350729609245
122.0,71.97507031976353,128.77220208894119,0.9335575055624528,31.393570808697103
123.0,71.64281569254426,125.73826920626584,0.9329109698307338,31.218991686740424
124.0,71.34915166006486,122.71099665188274,0.9322314559613951,31.040870266357988
125.0,71.08118711251797,119.70334315483281,0.9315181641170709,30.859457584182962
126.0,70.82945268019408,116.7246245068364,0.9307702872801342,30.674997510941367
127.0,70.58715663759808,113.78132376618755,0.9299870122790551,30.48772566976061
128.0,70.34951162391206,110.87781640713796,0.9291675207758883,30.297868860693118
129.0,70.11329806311959,108.01684704072356,0.9283109895474271,30.10564337476355
130.0,69.87627305339441,105.20013571297608,0.9274165922955475,29.91125555421685
131.0,69.63695384018811,102.42864139283007,0.9264834990566303,29.71490109083306
132.0,69.39433154956099,99.70281356052828,0.9255108784288585,29.51676419582433
133.0,69.14774132114422,97.02280920040317,0.924497895720848,29.31701766193422
134.0,68.89665983837165,94.38856863171976,0.9234437175523743,29.11582734483025
135.0,68.64077817707621,91.79991456078184,0.9223475075721975,28.91334015582387
136.0,68.3798082314657,89.25666547897427,0.9212084288703869,28.709700553173946
137.0,68.1135139009646,86.75845284905712,0.9200256481653577,28.50504511126826
138.0,67.84172630397345,84.30501074568585,0.9187983314594897,28.299490171102136
139.0,67.56428100096554,81.89611790078366,0.9175256441132456,28.0931496319069
140.0,67.28101296844741,79.53147229887045,0.916206752779276,27.886136746750665
141.0,66.99178326612675,77.21062430587521,0.914840832296404,27.678551185905352
142.0,66.69648353630375,74.93336198577003,0.9134270598908527,27.47048133792372
143.0,66.3950064410805,72.69948983474625,0.9119646127191396,27.262015311325538
144.0,66.08723714422092,70.50874050562325,0.9104526684273566,27.053240772960375
145.0,65.77307871611085,68.36061381002374,0.9088904180759616,26.84423715643533
146.0,65.45252178534261,66.25490865016013,0.9072770664754607,26.635076654669888
147.0,65.12556403704161,64.19146282711576,0.9056118190110043,26.425831216819343
148.0,64.7922022208907,62.17011117883581,0.9038938810236388,26.2165727822846
149.0,64.45239628595863,60.19039404603419,0.9021224646707915,26.00737095425993
150.0,64.10632199660202,58.251959720820466,0.9002968199529708,25.798291269261075
151.0,63.75425493136547,56.354657637238454,0.8984162071054016,25.589399042317435
152.0,63.39647066879358,54.498337229332,0.8964798863633087,25.38075958845841
153.0,63.033249029138624,52.68276973757706,0.8944871226637633,25.172437953107494
154.0,62.66509541023142,50.90750177143627,0.8924372242935765,24.964497932662766
155.0,62.292756144692575,49.17230948984435,0.8903295211722306,24.757003551543892
156.0,61.91699667374515,47.476926303828364,0.8881633483901905,24.55001877821139
157.0,61.53895014012944,45.82101892995002,0.8859380838841975,24.343607479498093
158.0,61.16000919732029,44.204357489815045,0.8836531267215004,24.137833713767066
159.0,60.7818124132473,42.62661187320933,0.8813079035280706,23.93276136652707
160.0,60.406543986927595,41.08751734891436,0.8789018826365812,23.728454406388526
161.0,60.03668546601858,39.58675107387559,0.8764345587563247,23.524976594604283
162.0,59.675508078762334,38.124046447665606,0.8739054775191867,23.322391544492024
163.0,59.326701287340754,36.69909531550756,0.8713142145575925,23.120762539304142
164.0,58.994842287938916,35.311607675803145,0.8686603977733662,22.92015240480198
165.0,58.68533050047075,33.96128576958312,0.8659437018329883,22.720623359904394
166.0,58.404498882028136,32.64785533838767,0.8631638498661603,22.522236997407084
167.0,58.15979705618212,31.371046599629743,0.8603206219743827,22.325053997113713
168.0,57.9598305724357,30.13060955900445,0.8574138547319178,22.12913406228875
169.0,57.81443192919495,28.926321479632524,0.8544434438430891,21.934535802002827
170.0,57.734812097260956,27.758006948546065,0.8514093496928551,21.741316581818737
171.0,57.73348129190267,26.62553264849112,0.8483115986261801,21.54953237884972
172.0,57.824284988783226,25.528838949510025,0.845150286595894,21.35923769741401
173.0,58.022298372498696,24.467957565783326,0.8419255819291686,21.17048545817894
174.0,58.34365520980919,23.443038373455344,0.8386377282017693,20.983326904143446
175.0,58.80527695318745,22.454383364547823,0.8352870470153567,20.79781151727103
176.0,59.424485598019906,21.50248776452213,0.8318739406700607,20.61398694580537
177.0,60.21848894320311,20.58809053553553,0.8283988948751557,20.43189894112773
178.0,61.20369930403317,19.71223457616226,0.8248624812688913,20.251591302173622
179.0,62.3948979612329,18.876335337775195,0.8212653594362374,20.073105838758547
180.0,63.80425806663342,18.082263053880343,0.8176082790216431,19.89648234303276
181.0,65.44022352118184,17.33243464913749,0.8138920816386644,19.72175856927665
182.0,67.306276175917,16.629915461802984,0.8101177025844866,19.54897022295988
183.0,69.39963801853013,15.978528262862124,0.8062861723590015,19.378150958354297
184.0,71.71003423394677,15.382974687379287,0.8023986183716098,19.20933238661362
185.0,74.21829443595419,14.848927229409577,0.7984562651480485,19.04254407715659
186.0,76.8955135325591,14.383145035159945,0.7944604358372693,18.87781359193814
187.0,79.70231335201616,13.993548113193386,0.7904125525717614,18.71516651108869
188.0,82.58836332952316,13.689248455030866,0.7863141365148533,18.554626457442332
189.0,85.49263043326266,13.480548204179689,0.7821668080996687,18.396215144125318
190.0,88.34389644168843,13.37885117927357,0.7779722865337405,18.239952415184188
191.0,91.061794641874,13.396489430984802,0.7737323894341592,18.08585628811966
192.0,93.55841392181978,13.546431807397376,0.7694490319529267,17.933943003376825
193.0,95.74063084634922,13.841867682342732,0.7651242251487513,17.784227088039806
194.0,97.51316651877949,14.295633313168974,0.7607600751184653,17.636721397528348
195.0,98.78294264331235,14.919499292900868,0.7563587808505257,17.491437185503855
196.0,99.46435797676955,15.723279026667559,0.7519226319705322,17.348384158098213
197.0,99.48591288384517,16.713810366799823,0.7474540068517963,17.207570533671387
198.0,98.79672435412381,17.89384766412367,0.7429553692877383,17.069003111971575
199.0,97.37234657774313,19.260867904059186,0.7384292656806967,16.93268732919255
200.0,95.21877771591133,20.805972036709083,0.7338783231215344,16.798627331691165
201.0,92.37215761512162,22.512848160387147,0.7293052432462496,16.666826026467366
202.0,88.89650399139227,24.357134849370265,0.7247128001657178,16.537285158424037
203.0,84.87829470537494,26.306078023637138,0.720103835814427,16.410005365974676
204.0,80.41989869566589,28.318726674389946,0.7154812560125045,16.28498624827092
205.0,75.63300887806585,30.34666997464476,0.7108480255111226,16.162226426565567
206.0,70.63316946493379,32.335265247948676,0.7062071634289196,16.04172360835953
207.0,65.53569351564325,34.22530988324806,0.7015617381865635,15.923474646132254
208.0,60.45282978237245,35.95512660884783,0.6969148623902373,15.807475599904686
209.0,55.49163217577537,37.46310555710485,0.6922696875347641,15.693721796074769
210.0,50.75179677542043,38.690913298505656,0.6876293986269444,15.58220788476331
211.0,46.322875401303975,39.587571203756816,0.6829972085604208,15.472927896131052
212.0,42.28068126818395,40.11427973346503,0.6783763524973336,15.365875295628745
213.0,38.683404968760655,40.249365490608554,0.6737700821834356,15.261043036719466
214.0,35.5685851063307,39.992183380651824,0.6691816602774273,15.158423610953696
215.0,32.95258790880512,39.3643985683248,0.664614354533333,15.058009097322829
216.0,30.83329344598817,38.407885264600935,0.6600714323662892,14.959791208203942
217.0,29.196185041184073,37.179308301482116,0.6555561546594185,14.8637613321041
218.0,28.021788060896746,35.742841924299725,0.6510717706130479,14.769910574030488
219.0,27.292889327955105,34.162785885337144,0.6466215120839104,14.678229793337874
220.0,26.99940443489474,32.49777924383898,0.6422085883765094,14.588709637138455
221.0,27.140070406890125,30.797417537995813,0.6378361808695979,14.501340570171035
222.0,27.721062094805433,29.101180860082344,0.6335074382842458,14.41611290168144
223.0,28.752357378600937,27.439056972203968,0.6292254715999274,14.333016806608123
224.0,30.242972901538128,25.83317827321334,0.6249933499260649,14.252042344468821
225.0,32.195886890771256,24.29975500240167,0.6208140957906144,14.17317947163433
226.0,34.603596995816176,22.851071239566327,0.6166906815994246,14.096418051086166
227.0,37.444518380602155,21.497286754599894,0.6126260259222994,14.021747856291206
228.0,40.680255211283765,20.248010608417495,0.6086229898224625,13.949158570453779
229.0,44.2545287458746,19.113727800057266,0.6046843742421338,13.878639781971534
230.0,48.09304992427082,18.10688993489818,0.6008129172376098,13.810180975298504
231.0,52.10511260796521,17.24269035104052,0.5970112917576567,13.743771517517912
232.0,56.18660309069749,16.539264892167157,0.5932821036119118,13.679400641158697
233.0,60.22444425342879,16.017188482734205,0.5896278900123647,13.617057424260317
234.0,64.10185902886698,15.698248559173082,0.5860511183644842,13.556730767501238
235.0,67.70347968117326,15.60356570072329,0.5825541852044255,13.498409368872238
236.0,70.91930188985033,15.75131278489378,0.5791394156888078,13.442081698055421
237.0,73.64731643580137,16.154391818000352,0.5758090633199053,13.387735970177896
238.0,75.79545502628575,16.818333668377335,0.5725653097156905,13.335360119486987
239.0,77.2841304829827,17.73970058462973,0.5694102647147898,13.2849417754881
240.0,78.05070803731395,18.90522790362645,0.5663459669138657,13.236468242383634
241.0,78.05578802027732,20.291590049478515,0.5633743835513706,13.189926479048356
242.0,77.28919770025536,21.866076035498228,0.560497411594997,13.145303089739604
243.0,75.7743620914465,23.587838636911165,0.5577168777127726,13.102584314510965
244.0,73.5683312537187,25.409907988998764,0.5550345390189741,13.061756030585848
245.0,70.7573974859844,27.281680926781096,0.5524520834622306,13.022803759993993
246.0,67.44919111011052,29.15168415000276,0.5499711299808219,12.985712685163923
247.0,63.76324114663266,30.970155913139944,0.5475932287377666,12.950467675086657
248.0,59.822371927387856,32.690846650178294,0.5453198611241067,12.917053320165138
249.0,55.746484864387924,34.271668150311186,0.5431524393658034,12.8854539761305
250.0,51.649224760838116,35.67433430164191,0.5410923060336904,12.855653818730035
