Time,J,A,S,tau
0,100,100,0.893215944,10.30927835
1,97.62719794,93.73066132,0.884952963,9.964858255
2,95.18685962,87.93053447,0.875888963,9.593659514
3,92.68318391,82.56210158,0.866008604,9.195657044
4,90.11932533,77.58842817,0.855291953,8.770552925
5,87.49947075,72.97608999,0.843722145,8.318068279
6,84.82942916,68.69481537,0.831285801,7.837946902
7,82.11760545,64.71718152,0.817973454,7.329959683
8,79.37631457,61.0182992,0.810487314,7.102311184
9,76.62347245,57.5755672,0.8046588,6.960808296
10,73.88436721,54.36859618,0.798723915,6.82396995
11,71.1928463,51.3791747,0.792682749,6.691759879
12,68.59134945,48.59154599,0.78653479,6.564161297
13,66.12908049,45.99312195,0.780278717,6.441179725
14,63.85784617,43.57572108,0.773912164,6.322846144
15,61.82540757,41.33727944,0.767431433,6.209220644
16,60.06700164,39.2837101,0.760831158,6.100396438
17,58.59641462,37.43028458,0.754103922,5.996504255
18,57.39877909,35.80180869,0.747239824,5.89771711
19,56.42721547,34.43090773,0.740225986,5.804255185
20,55.60581132,33.35426248,0.733046,5.716391631
21,54.83950247,32.6066939,0.725679367,5.634457661
22,54.02951166,32.21404937,0.718100873,5.558848254
23,53.09080606,32.18601944,0.710279978,5.490027439
24,51.96690172,32.51093192,0.702180247,5.428532847
25,50.63835411,33.15406376,0.693758805,5.37498018
26,49.12213312,34.06090062,0.684965979,5.330065644
27,47.46388981,35.16432694,0.675745088,5.294567653
28,45.72572373,36.39386726,0.66603252,5.269346312
29,43.97365183,37.68408738,0.655758178,5.25534055
30,42.2678504,38.98018699,0.644846383,5.253562629
31,40.65687482,40.24024173,0.633217316,5.265089648
32,39.17555383,41.43469472,0.620789078,5.291051966
33,37.84564528,42.54409656,0.607480427,5.332618011
34,36.67778697,43.55632284,0.593214159,5.390976568
35,35.67401738,44.46387919,0.577921137,5.467315591
36,34.83008731,45.26179462,0.561544718,5.562799213
37,34.13722116,45.94624128,0.544045493,5.678543611
38,33.58337617,46.51382569,0.525406043,5.815591601
39,33.15398373,46.96139003,0.505634984,5.974890249
40,32.83245952,47.28615603,0.484770702,6.157266931
41,32.60052282,47.48603731,0.462883628,6.363410338
42,32.43850968,47.56000072,0.440077095,6.593854717
43,32.32575442,47.50838558,0.416486453,6.848968627
44,32.24107989,47.33312963,0.392276365,7.128948484
45,32.16339452,47.03787741,0.367636348,7.433817039
46,32.07236821,46.62796709,0.342774789,7.763426437
47,31.94912856,46.11030467,0.317911748,8.11746621
48,31.77693733,45.49315681,0.293271153,8.49547379
49,31.54177884,44.78587375,0.26907277,8.896848454
50,31.23280985,43.9985696,0.245524592,9.320867148
51,30.84262717,43.14179619,0.222816133,9.766701813
52,30.36735984,42.22623317,0.201112938,10.23343653
53,29.80659198,41.26241027,0.180552358,10.7200841
54,29.16309495,40.26045266,0.161241258,11.22560232
55,28.44242715,39.22989527,0.143255169,11.74890864
56,27.65244849,38.17954141,0.126638787,12.2888931
57,26.80276703,37.11735463,0.111408163,12.84442979
58,25.90418649,36.0504276,0.097553039,13.41438583
59,24.96816084,34.98496393,0.085040451,13.99762898
60,24.00630356,33.92628709,0.073819042,14.59303346
61,23.02994583,32.87891317,0.063821656,15.19948325
62,22.04980648,31.84657242,0.054970954,15.81587515
63,21.07570838,30.83230241,0.047181914,16.44111917
64,20.11641473,29.83850553,0.040365855,17.07413837
65,19.17950154,28.86703546,0.034432734,17.71386704
66,18.27133294,27.91926393,0.02929384,18.35924796
67,17.39706468,26.99615212,0.024863501,19.00922859
68,16.56069548,26.09831497,0.021060438,19.66275627
69,15.76515978,25.22607765,0.01780883,20.31877242
70,15.01243063,24.37952722,0.015038875,20.97620584
71,14.3036397,23.55855728,0.01268711,21.63396489
72,13.63919328,22.76290704,0.010696422,22.29092867
73,13.01889504,21.99219406,0.009015931,22.94593686
74,12.44206446,21.24594197,0.007600719,23.59777826
75,11.90763809,20.52360404,0.006411432,24.24517764
76,11.41426331,19.82458242,0.00541384,24.88678074
77,10.96038445,19.14824397,0.004578369,25.52113693
78,10.54431202,18.49393321,0.003879617,26.14667925
79,10.16428094,17.86098277,0.003295884,26.76170117
80,9.818501745,17.24872161,0.002808727,27.36432923
81,9.505200156,16.65648166,0.002402546,27.95249115
82,9.222646864,16.08360291,0.002064202,28.52387798
83,8.969180577,15.52943741,0.001782678,29.075899
84,8.743227424,14.9933523,0.001548781,29.60562794
85,8.543311861,14.47473205,0.001354881,30.1097387
86,8.368063734,13.97298022,0.00119468,30.58442789
87,8.21622349,13.48752063,0.001063034,31.02532123
88,8.086644124,13.01779846,0.000955797,31.42736099
89,7.978289678,12.56328095,0.000869705,31.78467062
90,7.890233175,12.12345822,0.000802304,32.09039189
91,7.821653652,11.69784423,0.000751913,32.33649172
92,7.771831396,11.28597811,0.00071766,32.51353808
93,7.740146791,10.88742645,0.00069959,32.61043644
94,7.726066934,10.50178626,0.000698903,32.61416969
95,7.729139845,10.12869069,0.000718419,32.50952647
96,7.748987438,9.767818288,0.000763406,32.27892076
97,7.78529258,9.418908807,0.000843093,31.90240607
98,7.837780327,9.081790499,0.000973454,31.358111
99,7.906188614,8.756427969,0.001182389,30.62344874
100,7.990219761,8.44300692,0.001519469,29.67759213
101,8.089458627,8.142083806,0.002074154,28.5057259
102,8.203238421,7.854843662,0.003008678,27.10520739
103,8.330441055,7.583518922,0.00461287,25.49263827
104,8.469261863,7.331992369,0.007381677,23.7090148
105,8.61708354,7.106487408,0.012092295,21.81887869
106,8.770775131,6.916016725,0.019816689,19.90104009
107,8.927785128,6.772074338,0.031786169,18.03342435
108,9.088072962,6.687232091,0.049090096,16.27889013
109,9.256278221,6.672918086,0.07232416,14.67791359
110,9.443111137,6.737287318,0.101376845,13.24902969
111,9.665276868,6.883961718,0.13544801,11.9939509
112,9.943933217,7.112044166,0.173259761,10.90373917
113,10.30216539,7.417316742,0.213338377,9.963957124
114,10.76196267,7.794470479,0.254256871,9.158169854
115,11.34099279,8.24039333,0.294791475,8.470011038
116,12.05002812,8.757828258,0.333992517,7.884246194
117,12.89267118,9.357282542,0.371191798,7.387216442
118,13.86768975,10.05561917,0.405973059,6.966935232
119,14.97171066,10.8723472,0.438126039,6.613010026
120,16.19954971,11.82590881,0.467597708,6.316491632
121,17.54122164,12.93155375,0.494447595,6.06969736
122,18.97602717,14.20137273,0.51881041,5.86603933
123,20.46587427,15.64566239,0.540866676,5.69986498
124,21.95018524,17.27366192,0.560820787,5.56632093
125,23.34475385,19.09210844,0.578885133,5.461233569
126,24.54527754,21.10180317,0.595269224,5.381008742
127,25.43629817,23.29335457,0.610172613,5.322546897
128,25.90557807,25.64336382,0.623780618,5.283171881
129,25.86278837,28.11177246,0.636262065,5.260571091
130,25.25914851,30.64069031,0.647768449,5.252744949
131,24.10248994,33.15517304,0.658434052,5.257964156
132,22.46200307,35.56675639,0.66837667,5.274733515
133,20.45947551,37.78038033,0.677698727,5.301760931
134,18.24868455,39.70433693,0.686488564,5.337931038
135,15.9888658,41.26155366,0.694821834,5.382282352
136,13.82002024,42.39956436,0.70276288,5.433987589
137,11.84617555,43.09649519,0.710366076,5.492336551
138,10.12915349,43.36151812,0.717677076,5.556721221
139,8.691746961,43.22996553,0.724733971,5.626622724
140,7.526835247,42.75495738,0.731568328,5.701600031
141,6.608678954,41.99807797,0.738206143,5.781279748
142,5.902941247,41.02139156,0.744668664,5.865347432
143,5.374083316,39.88192357,0.750973123,5.953539859
144,4.98979193,38.62877573,0.757133386,6.04563819
145,4.722997388,37.30231319,0.763160504,6.141461992
146,4.552310622,35.93464587,0.769063195,6.240864004
147,4.461593112,34.55076032,0.774848257,6.343725522
148,4.439179138,33.16982645,0.780520923,6.449952361
149,4.477039601,31.8064329,0.786085155,6.559471348
150,4.57002479,30.47164219,0.791543901,6.672227261
151,4.715221385,29.17385078,0.796899307,6.788180093
152,4.911455287,27.91943401,0.80215289,6.907302837
153,5.158887587,26.71326596,0.807305694,7.029579419
154,5.458728921,25.55910391,0.812358406,7.155003041
155,5.812839133,24.45983509,0.817311454,7.283574533
156,6.223577305,23.41771193,0.822165094,7.415301226
157,6.693533298,22.43449629,0.826919471,7.550195825
158,7.225290096,21.51156891,0.831574674,7.688275486
159,7.821183924,20.65000627,0.836130776,7.829561046
160,8.483056364,19.85062993,0.840587868,7.97407636
161,9.212023198,19.11403751,0.844946082,8.121847778
162,10.00825461,18.44061441,0.849205608,8.272903706
163,10.87059238,17.83048446,0.853366705,8.427274141
164,11.79743953,17.28373176,0.857429739,8.584990977
165,12.78507593,16.79999714,0.861395134,8.746086894
166,13.82874591,16.3786922,0.865263412,8.910595851
167,14.92261158,16.01892208,0.869035187,9.078552902
168,16.05985361,15.71941667,0.872711158,9.249994164
169,17.23307949,15.47851372,0.876292109,9.424956926
170,18.43466716,15.29411606,0.879778905,9.603479772
171,19.65719241,15.16366476,0.883172486,9.785602772
172,20.89387576,15.08412406,0.88647386,9.971367756
173,22.13900576,15.05198396,0.889684097,10.16081864
174,23.38836615,15.06327281,0.892804322,10.35400185
175,24.63957153,15.11359194,0.89583571,10.55096683
176,25.89229243,15.19818427,0.898779476,10.75176659
177,27.14842842,15.31200758,0.901636867,10.95645839
178,28.41217553,15.44982425,0.904409158,11.16510454
179,29.6899896,15.60631151,0.907097639,11.37777326
180,30.99046564,15.77617404,0.909703616,11.59453969
181,32.32413636,15.9542608,0.912228395,11.81548701
182,33.70320057,16.13567843,0.91467328,12.04070775
183,35.14119301,16.31589558,0.917039567,12.27030511
184,36.65260735,16.49083386,0.919328532,12.50439455
185,38.25247744,16.65694084,0.921541432,12.74310546
186,39.95592599,16.8112419,0.923679494,12.986583
187,41.77768839,16.95136948,0.925743912,13.23499005
188,43.73162044,17.07556941,0.927735839,13.4885093
189,45.83020253,17.18268455,0.929656388,13.74734549
190,48.08406076,17.27211691,0.931506624,14.01172763
191,50.50150585,17.34377285,0.933287562,14.28191143
192,53.08815004,17.3979934,0.935000165,14.55818151
193,55.84666422,17.43546696,0.936645345,14.84085262
194,58.77604346,17.45713082,0.93822396,15.13027711
195,61.87238925,17.4640845,0.939736817,15.42683757
196,65.1281899,17.45751027,0.941184676,15.73095605
197,68.53265565,17.43855999,0.942568247,16.04309314
198,72.07209933,17.4082746,0.943888203,16.36374663
199,75.73013202,17.36750413,0.945145183,16.69345338
200,79.48815562,17.31684065,0.946339805,17.03278746
201,83.32584206,17.25656645,0.947472673,17.38235823
202,87.22164631,17.18661846,0.948544387,17.74280685
203,91.15331559,17.10657068,0.949555562,18.11480156
204,95.09836409,17.01563612,0.950506842,18.49903153
205,99.03449945,16.91268962,0.951398909,18.89619943
206,102.9399931,16.7963093,0.952232507,19.30701244
207,106.7939872,16.66483866,0.953008455,19.73217212
208,110.5767494,16.51646225,0.95372766,20.17236298
209,114.2698679,16.34929902,0.954391137,20.62824012
210,117.8563892,16.16150609,0.955000015,21.1004168
211,121.3209611,15.95138151,0.95555555,21.58945101
212,124.6498799,15.71746987,0.956059129,22.0958346
213,127.8311549,15.45866051,0.956512275,22.61998227
214,130.8546918,15.17423772,0.956916647,23.16221939
215,133.71224,14.86401754,0.957274035,23.72277304
216,136.3972433,14.52831045,0.957586336,24.30177852
217,138.9055042,14.16793779,0.957855576,24.89925168
218,141.2342831,13.78429719,0.958083852,25.51511812
219,143.3828738,13.37927464,0.958273338,26.14919557
220,145.3524216,12.95521077,0.958426263,26.80120155
221,147.1456816,12.51481193,0.958544881,27.47076696
222,148.7670113,12.06107774,0.958631454,28.15743893
223,150.2221678,11.59719948,0.958688231,28.86069286
224,151.5181132,11.12647343,0.958717428,29.57994307
225,152.6627998,10.65221373,0.958721208,30.31455403
226,153.6649478,10.1776666,0.958701664,31.06385195
227,154.5338242,9.705936032,0.958660809,31.82713574
228,155.2790293,9.239922691,0.958600562,32.60368735
229,155.9102978,8.782275892,0.95852274,33.39278115
230,156.4373199,8.335359132,0.958429053,34.19369229
231,156.8695843,7.901229708,0.958321101,35.005704
232,157.2162435,7.481634073,0.958200368,35.82811375
233,157.4860243,7.077995627,0.95806823,36.66023819
234,157.687149,6.691428194,0.957925949,37.50141705
235,157.8272825,6.322753527,0.957774681,38.351016
236,157.9134948,5.972529703,0.957615478,39.20842874
237,157.9522313,5.641027296,0.957449297,40.07307804
238,157.2459195,2.681540502,0.957276999,40.94441649
239,156.4990094,1.410525361,0.957099358,41.82192656
240,155.7833838,0.924488829,0.956917069,42.7051201
241,155.0966651,0.728642157,0.956730751,43.59353751
242,154.4365897,0.640897518,0.956540952,44.48674673
243,153.8010066,0.594202507,0.956348158,45.38434188
244,153.1878748,0.56382406,0.956152798,46.28594185
245,152.5952588,0.540599291,0.955955245,47.19118873
246,152.0213232,0.521093539,0.955755828,48.0997462
247,151.4643267,0.50400558,0.955554831,49.01129792
248,150.9226155,0.488791722,0.955352499,49.92554581
249,150.3946163,0.475209876,0.955149043,50.84220848
250,149.8788293,0.463114533,0.954944643,51.76101957
251,149.3738205,0.452427169,0.954739451,52.68172617
252,148.8782146,0.443072439,0.954533594,53.60408728
253,148.3906875,0.43500093,0.954327182,54.52787231
254,147.9099588,0.428164756,0.954120301,55.45285961
255,147.4347846,0.422523912,0.953913024,56.378835
256,146.9639499,0.41805265,0.95370541,57.30559042
257,146.4962612,0.414720808,0.953497508,58.23292252
258,146.0305396,0.412519774,0.953289355,59.16063127
259,145.5656125,0.41143344,0.953080983,60.08851864
260,145.1003065,0.411466213,0.952872417,61.01638725
261,144.6334396,0.412620504,0.952663679,61.94403893
262,144.1638134,0.414910328,0.95245479,62.87127341
263,143.6902044,0.418360111,0.95224577,63.79788687
264,143.2113559,0.422994302,0.95203664,64.72367042
265,142.7259686,0.428858841,0.951827424,65.64840866
266,142.2326917,0.43599341,0.951618152,66.571878
267,141.7301124,0.444463167,0.95140886,67.49384503
268,141.2167453,0.454329691,0.951199592,68.41406471
269,140.6910211,0.465674843,0.950990403,69.33227848
270,140.1512741,0.478589765,0.950781357,70.24821221
271,139.5957294,0.493172442,0.950572537,71.1615741
272,139.0224881,0.509548693,0.950364035,72.0720522
273,138.4295124,0.527838951,0.950155967,72.97931205
274,137.8146085,0.548203494,0.949948465,73.88299381
275,137.1754086,0.570795947,0.949741684,74.7827094
276,136.5093519,0.595815864,0.949535803,75.67803932
277,135.8136628,0.623454235,0.949331027,76.56852918
278,135.0853287,0.653939336,0.949127587,77.45368604
279,134.3210755,0.687520815,0.948925748,78.33297439
280,133.5173417,0.724473127,0.948725802,79.20581189
281,132.6702503,0.76510322,0.948528076,80.07156476
282,131.7755791,0.809752325,0.948332932,80.92954282
283,130.9535354,1.341072983,0.948140763,81.77899433
284,130.2115436,1.974825016,0.947951998,82.61910037
285,129.5167317,2.561086545,0.947767099,83.44896889
286,128.8651547,3.114571917,0.947586558,84.26762844
287,128.2547221,3.647960206,0.947410894,85.07402153
288,127.6851058,4.172314023,0.947240649,85.86699763
289,127.1576878,4.697424857,0.947076383,86.64530569
290,126.6755366,5.232093444,0.946918663,87.4075862
291,126.2433951,5.784359212,0.946768054,88.1523626
292,125.8676626,6.361683806,0.946625109,88.87803194
293,125.5563462,6.971098035,0.946490353,89.58285469
294,125.3189508,7.619323291,0.946364272,90.26494255
295,125.1662995,8.312843429,0.946247292,90.92224496
296,125.1101758,9.057990228,0.946139764,91.55253235
297,125.1628554,9.860951113,0.946041951,92.15337602
298,125.3363165,10.72781833,0.945954007,92.72212136
299,125.6412416,11.66456903,0.945875971,93.25585654
300,126.0856608,12.67702449,0.945807756,93.75136728
301,126.6731497,13.77084754,0.945749153,94.20507975
302,127.4008021,14.95143242,0.94569984,94.61298547
303,128.2567499,16.22383747,0.945659409,94.97053684
304,129.2176232,17.59260868,0.945627408,95.27250896
305,130.2458853,19.06165481,0.945603412,95.51280581
306,131.2877568,20.6339375,0.945587121,95.68419725
307,132.2719167,22.31113541,0.945578508,95.77794781
308,133.1097511,24.09303213,0.945578023,95.78328648
309,133.6977569,25.97677691,0.945586892,95.68663827
310,133.922848,27.95561353,0.945607532,95.47048757
311,133.671089,30.01694978,0.945644176,95.11162588
312,132.8405332,32.13933387,0.945703836,94.57831423
313,131.3578524,34.28780279,0.94579776,93.82576854
314,129.1993913,36.40647578,0.945943894,92.78814073
315,126.4163164,38.40728086,0.946171081,91.3639514
316,123.164322,40.153281,0.946526721,89.38759907
317,119.7362976,41.43747937,0.947091353,86.57013529
318,116.5853674,41.96939934,0.948006424,82.37161876
319,118.0505318,38.00745517,0.949513935,75.76742587
320,121.0612361,33.50337752,0.95187805,65.41771389
321,124.4243903,29.58320007,0.954700245,52.84886523
322,128.1276765,26.16582877,0.95685421,42.9956672
323,130.6869179,24.5395448,0.95807279,36.61757411
324,129.5903282,26.26098635,0.958617956,32.37000243
325,125.555697,29.84360568,0.958708183,29.34351946
326,118.7063352,34.80761497,0.958473752,27.05982001
327,109.3948758,40.76929961,0.957991974,25.25919431
328,98.27924061,47.26758871,0.957310774,23.79058186
329,86.18233197,53.74924376,0.956461223,22.5602936
330,73.95026506,59.61629155,0.95546423,21.50703322
331,62.35730088,64.31244917,0.954334268,20.58891098
332,52.02283271,67.42638226,0.953081559,19.7762742
333,43.32887317,68.78063004,0.951713407,19.04752277
334,36.36489437,68.47414678,0.950235053,18.38655536
335,30.92993018,66.86029498,0.948650233,17.78113111
336,26.49954376,64.56184309,0.946961562,17.22180088
337,21.68963948,62.95635653,0.945170801,16.70117404
338,16.23041929,62.22509288,0.943279051,16.21340848
339,10.34926086,62.06739288,0.941286896,15.75384319
340,5.427299042,61.10689939,0.939194506,15.31873027
341,2.353852544,58.56871155,0.937001725,14.90503633
342,0.922821507,54.78185836,0.934708133,14.51029135
343,0.413379973,50.53035586,0.932313098,14.13247271
344,0.268408744,46.37301664,0.929815826,13.76991531
345,0.247332682,42.52284441,0.92721539,13.42124094
346,0.279747905,39.01757633,0.924510767,13.08530245
347,0.354618919,35.84024154,0.921700864,12.7611394
348,0.48026929,32.96208384,0.918784544,12.4479424
349,0.674209208,30.35347166,0.915760647,12.14502462
350,0.962010979,27.98518233,0.912628013,11.85179871
351,1.374006232,25.83143166,0.9093855,11.56775825
352,1.942770149,23.87140137,0.906032002,11.29246268
353,2.702538913,22.08814178,0.902566465,11.02552519
354,3.687349992,20.46813954,0.898987906,10.76660285
355,4.927035307,19.00215072,0.895295424,10.5153887
356,6.442122278,17.68610807,0.891488215,10.27160531
357,8.237504787,16.52223883,0.887565589,10.03499966
358,10.29566929,15.52011475,0.883526977,9.805339108
359,12.57024154,14.69709685,0.879371945,9.58240785
360,14.98192788,14.07827705,0.8751002,9.366004506
361,17.41813096,13.69539702,0.870711603,9.155940023
362,19.73782271,13.58430779,0.866206171,8.952036106
363,21.78178,13.78095675,0.861584081,8.754124041
364,23.387556,14.31586072,0.856845677,8.562043848
365,24.40892272,15.20701055,0.851991458,8.375643722
366,24.73904306,16.45165662,0.847022079,8.194779728
367,24.33407986,18.01835599,0.841938339,8.019315751
368,23.22937109,19.84202153,0.836741159,7.849123634
369,21.54065536,21.82461383,0.831431561,7.684083536
370,19.44808272,23.84278705,0.826010632,7.52408452
371,17.1685694,25.76131433,0.820479476,7.369025352
372,14.92489517,27.45014571,0.81483916,7.218815541
373,12.91623804,28.80399975,0.809090635,7.073376627
374,11.29285195,29.76186204,0.803234642,6.932643743
375,10.14079381,30.31883443,0.797271593,6.796567475
376,9.483090005,30.52242992,0.79120143,6.665116053
377,9.295528057,30.45446561,0.785023445,6.538277913
378,9.526481333,30.20919697,0.778736071,6.416064575
379,10.11063205,29.87776346,0.772336628,6.298513974
380,10.97470253,29.54131065,0.765821022,6.185694221
381,12.03891794,29.26952324,0.759183402,6.07770772
