Time,J,A,S,tau
0.0,100.0,100.0,0.6173813301874066,30.3030303030303
1.0,98.13048956931726,95.99844399938021,0.6159165980761344,30.26569045947832
2.0,96.283421397996,92.14794071755303,0.6143965281943209,30.226967446949793
3.0,94.46037315151096,88.44609736896342,0.6128233275129542,30.186914050611534
4.0,92.6613528667482,84.88742350572858,0.611197546343527,30.145540882830886
5.0,90.88637898050027,81.46670278859911,0.6095197716513732,30.102858980850957
6.0,89.13548519577314,78.17883285914135,0.607790630219039,30.058879833650735
7.0,87.40872912053412,75.01888848891628,0.6060107809682465,30.013615302076623
8.0,85.70622416429927,71.98217302954934,0.6041809234804674,29.96707772215515
9.0,84.0281481672364,69.06406800700944,0.6023017900864429,29.919279807671536
10.0,82.37478976470291,66.26019869107766,0.6003741482190179,29.870234693114995
11.0,80.74660995300377,63.56629225459266,0.5983988021882461,29.819955948616883
12.0,79.1442565058511,60.97822491180474,0.5963765859054283,29.768457502707363
13.0,77.56872933911822,58.49206684176498,0.5943083703622817,29.71575374086751
14.0,76.02138948240768,56.10395467703483,0.5921950561609545,29.661859411420927
15.0,74.50412696899726,53.81023042399238,0.5900375752747123,29.60678966487482
16.0,73.01954606082991,51.60732339517039,0.5878368923216097,29.550560068028602
17.0,71.57094653870287,49.491788125422275,0.5855939978223416,29.493186528758162
18.0,70.16278733876595,47.46034344002925,0.5833099143461876,29.434685388680506
19.0,68.80055399031554,45.50976467167917,0.5809856897617967,29.37507333330277
20.0,67.49119706156702,43.63700982404996,0.5786223987124423,29.314367433720633
21.0,66.24314934805778,41.83909238555778,0.5762211416020531,29.25258513091011
22.0,65.06654516612372,40.11314720749787,0.5737830426009669,29.189744226051943
23.0,63.97337326933975,38.456421246401376,0.5713092486751001,29.125862877262435
24.0,62.97756419589256,36.86625319892139,0.5688009287665594,29.060959598547058
25.0,62.095065056973446,35.34008149428029,0.5662592722493841,28.995053251130706
26.0,61.34384397507811,33.875438770868136,0.563685487717305,28.928163038601852
27.0,60.743776607666845,32.469944176505365,0.5610808015003993,28.86030849687007
28.0,60.316575332858754,31.121305152344927,0.5584464565925485,28.791509493297912
29.0,60.08561146369734,29.827317102194552,0.5561531743431362,28.73224499376289
30.0,60.07553160154395,28.58585352407049,0.5548361200896503,28.700577419739904
31.0,60.31202737350915,27.39486731477377,0.5535371184828987,28.669429813393705
32.0,60.82144841888056,26.252393426426476,0.5522566521047982,28.638809531062172
33.0,61.630313897389954,25.156544251899366,0.5509951964905782,28.60872374643275
34.0,62.764844349043834,24.105511972181105,0.5497532198715052,28.579179450479504
35.0,64.25044743857988,23.09757181029782,0.5485311829286819,28.550183451650447
36.0,66.11116958058969,22.13108794973825,0.5473295385411594,28.52174237586156
37.0,68.36920590232103,21.204525937018108,0.5461487315520093,28.49386266675237
38.0,71.0443120253528,20.316466199711176,0.5449891985449107,28.46655058621689
39.0,74.15331300322264,19.465626969302168,0.5438513676423944,28.439812215152
40.0,77.70951632071703,18.6508934055431,0.5427356582556196,28.413653453208813
41.0,81.72222170652343,17.871356185334626,0.5416424809206102,28.388080020150625
42.0,86.19624494412055,17.12635343622332,0.5405722372273398,28.36309745876438
43.0,91.13145494491955,16.415561753655176,0.5395253190406682,28.338711124366203
44.0,96.52179515290973,15.739019515306936,0.5385021090810342,28.314926200274915
45.0,102.3556059503736,15.097225966185068,0.5375029805353693,28.291747693861318
46.0,108.61401291870274,14.491230252790666,0.5365282965452746,28.26918043143324
47.0,115.27097736379477,13.92272122320086,0.535578410273613,28.24722906322165
48.0,122.29277985403886,13.394095682801337,0.534653664936108,28.225898067250377
49.0,129.63741826100363,12.908565001125483,0.5337543933601042,28.205191745152025
50.0,137.25447271160184,12.470222898541055,0.5328809179601148,28.185114225086373
51.0,145.0849517141328,12.084098622850489,0.5320335506405062,28.1656694631863
52.0,153.06122204449352,11.756197683960998,0.5312125926112681,28.1468612435244
53.0,161.10733262894288,11.493513668522061,0.5304183342841733,28.128693179363722
54.0,169.1390987410862,11.303998178437942,0.5296510552224428,28.111168715015957
55.0,177.06416100694128,11.196511900868588,0.5289110239695453,28.09429112579621
56.0,184.78193483967868,11.180735271672559,0.5281984979484945,28.078063519036274
57.0,192.18317037167694,11.26703631337637,0.5275137234198576,28.062488835814577
58.0,199.14935085045536,11.466307944763873,0.5268569354028716,28.047569852018164
59.0,205.55244440345624,11.789777195059624,0.5262283575494028,28.033309178667903
60.0,211.25595851009055,12.248787153888411,0.5256282020953396,28.019709263320067
61.0,216.11786763287728,12.854556373738808,0.5250566698331283,28.00677239159976
62.0,219.99637281967873,13.617924131014625,0.5245139500410259,27.99450068801969
63.0,222.75925122835864,14.54909284696582,0.5240002203851644,27.982896116428275
64.0,224.29549771291718,15.657371858960891,0.5235156469290416,27.971960481803606
65.0,224.52764340364698,16.95092543262645,0.5230603841113781,27.96169543148282
66.0,223.42259152436705,18.43652339598617,0.5226345746841238,27.952102455753522
67.0,220.9982053724703,20.11932148744425,0.5222383496525664,27.94318288855088
68.0,217.32280559741847,22.00264999421921,0.5218718282996324,27.93493790904799
69.0,212.50812693320344,24.08781062417452,0.5215351181887383,27.927368542845393
70.0,206.6969132312873,26.3738760431843,0.5212283151302364,27.920475662600825
71.0,200.04756981313338,28.857517724244808,0.5209515031938172,27.914259989306426
72.0,192.71919366403247,31.53281947081403,0.520704754706739,27.908722093136255
73.0,184.85946705838205,34.39108611303292,0.5204881302269586,27.9038623939993
74.0,176.59717554956492,37.42068536399515,0.5203016785898739,27.899681162897636
75.0,168.03942858236778,40.606883542853296,0.520145436935146,27.89617852293279
76.0,159.27262546060498,43.93171267997196,0.5200194307306026,27.893354450188127
77.0,150.36580102160153,47.373879419872715,0.5199236737710982,27.891208774221806
78.0,141.37509229481117,50.90874284179499,0.5198581682106931,27.88974117894244
79.0,132.34814258224264,54.508370281178685,0.5198229046285106,27.888951203751233
80.0,123.32778938794935,58.14166049807487,0.5198178620717222,27.88883824433567
81.0,114.35487775479879,61.774498725846314,0.5198430080949317,27.8894015533139
82.0,105.47026804320261,65.36989377230353,0.5198982987766612,27.8906402405808
83.0,96.71622756936127,68.88804041713394,0.5199836788079297,27.89255327441904
84.0,88.13745461578146,72.28622443105084,0.5200990815605541,27.89513948227148
85.0,79.78191601552493,75.51857173254842,0.5202444291519756,27.898397551390932
86.0,71.70153863442349,78.53573024785643,0.5204196324856636,27.90232602911247
87.0,63.95257179176339,81.28474247220771,0.5206245913099495,27.90692332333216
88.0,56.59523969949786,83.70954792832543,0.5208591943639269,27.912187703899853
89.0,49.69231789556844,85.75250906261775,0.5211233194277455,27.91811730273963
90.0,43.30618108997564,87.35737452709192,0.5214168333516944,27.92471011376713
91.0,37.49428978780062,88.47373127594547,0.521739592244505,27.931963994579203
92.0,32.30336226584053,89.06266666888175,0.5220914414699891,27.939876665712056
93.0,27.763416645866336,89.10242804654078,0.522472215821493,27.948445712113134
94.0,23.88259363309039,88.59322980974567,0.5228817395853419,27.957668582996963
95.0,20.64439273156393,87.55950409695733,0.523319826602451,27.967542591934208
96.0,18.008196874288434,86.04898573852033,0.5237862804959843,27.978064918449004
97.0,15.912915438274991,84.12860908088159,0.5242808946911283,27.989232607394836
98.0,14.28342533671877,81.87778369024853,0.524803452555607,28.001042569586353
99.0,13.03828928724942,79.38054105470648,0.5253537275253918,28.013491582200007
100.0,12.097260621085361,76.71805347790931,0.5259314832272046,28.026576289074956
101.0,11.387312963106105,73.96276898979634,0.5265364736050014,28.040293201006513
102.0,10.84646092132611,71.17485570860593,0.5271684430615305,28.054638696173043
103.0,10.425325431951604,68.40095124335139,0.5278271265855935,28.069609020308583
104.0,10.086812136822253,65.67481036255349,0.5285122499013467,28.085200287120195
105.0,9.804598772506788,63.01912168882026,0.5292235296106764,28.101408478544094
106.0,9.56107477188426,60.44783734750745,0.5299606733417872,28.118229445039475
107.0,9.345260216073028,57.96848454956455,0.5307233798909132,28.135658905707132
108.0,9.150989606162433,55.584172671981726,0.5315113394211965,28.15369244920448
109.0,8.975550613933365,53.29512492924524,0.5323242335901419,28.172325533559675
110.0,8.818734004225218,51.0997979024278,0.5331617356082358,28.19155348471228
111.0,8.682192797272306,48.99566961163997,0.5340235106109165,28.21137150031767
112.0,8.569110712996036,46.97965426771611,0.5349092157261095,28.23177464787053
113.0,8.484052460044225,45.04843881787494,0.5358185002387273,28.2527578652148
114.0,8.432906892748004,43.1986382861482,0.5367510057900693,28.274315961030375
115.0,8.42291357066153,41.426898181677196,0.5377063665513873,28.296443615042044
116.0,8.462695446093567,39.72993980102127,0.5386842094359656,28.319135378764738
117.0,8.562332967202146,38.10459182797819,0.539684154229537,28.342385674781852
118.0,8.733385827058337,36.54779877685816,0.5407058138522911,28.366188798331862
119.0,8.988931945372393,35.05662726528444,0.5417487944876417,28.39053891638147
120.0,9.343535708073023,33.62826358326652,0.5428126958457675,28.41543006922089
121.0,9.813218136171267,32.26001318429944,0.5438971113159561,28.440856169845585
122.0,10.415363006362307,30.949296516229833,0.5450016281944048,28.466811004774847
123.0,11.168593761704537,29.693645619056582,0.5461258278930735,28.49328823447266
124.0,12.092614589352829,28.490700868104845,0.5472692861383267,28.52028139347681
125.0,13.207999803233538,27.338206940738363,0.5484315731913784,28.54778389096659
126.0,14.535959995807335,26.234010460346372,0.549612254069234,28.575789011324865
127.0,16.09808158266134,25.17605885829118,0.5508108887533025,28.604289914348143
128.0,17.916024180968243,24.16239968424062,0.5520270324115952,28.633279635749503
129.0,20.011207099922903,23.191182416176556,0.5532602356292738,28.662751087867015
130.0,22.40449155676733,22.260663651386746,0.5545100446243791,28.69269705991221
131.0,25.1158120512957,21.369213725415086,0.5557760014736804,28.723110218497933
132.0,28.163849846040424,20.515328616763057,0.557057644352066,28.75398310851249
133.0,31.56562791219708,19.69764492293046,0.5583545077437709,28.785308153156336
134.0,35.33616886364304,18.914960764974325,0.559666122686849,28.817077654920837
135.0,39.48807656113961,18.166260238276507,0.5609920170026153,28.849283796205473
136.0,44.03111991925269,17.45074439108884,0.5623317155245097,28.881918639840872
137.0,48.97179462241167,16.767866711533422,0.5636847403354069,28.914974129989194
138.0,54.312870893294,16.11737160809074,0.5650506110080624,28.948442093459068
139.0,60.05273413700959,15.499369747256324,0.5664288447401465,28.982314233623587
140.0,66.18542771233452,14.91433352771012,0.5678189568332197,29.016582146074434
141.0,72.69925943765054,14.3631936329294,0.5692204606674202,29.051237305205504
142.0,79.57664663293207,13.84738631933583,0.5706328680450173,29.08627106966414
143.0,86.79358840835717,13.368881789509489,0.5720556894439569,29.121674686664704
144.0,94.31899002155936,12.930257259485971,0.5734884342023587,29.157439288311664
145.0,102.11430860932971,12.534730809243971,0.5749306107732662,29.19355589434151
146.0,110.13312859380441,12.186196810666894,0.5763817269501426,29.23001541265879
147.0,118.32089149932638,11.889243955939106,0.57784129009506,29.266808640878526
148.0,126.61460063158327,11.649167872708855,0.579308807361003,29.303926266615804
149.0,134.94280527293768,11.471964413030564,0.5807837859218875,29.341358868943317
150.0,143.2254602925539,11.364306677630154,0.5822657331926299,29.379096919382516
151.0,151.37382966039291,11.333504634360299,0.5837541570486329,29.417130783021264
152.0,159.29044019797527,11.387447805931872,0.5852485660445746,29.455450719558833
153.0,166.86928385043365,11.534530886042317,0.5867484696312812,29.494046884564067
154.0,173.9962846890994,11.78355747158418,0.5882533783625244,29.532909330780015
155.0,180.5508975092188,12.143636088951627,0.5897628041043642,29.572028009596668
156.0,186.4088061134303,12.624057124705555,0.5912762602415611,29.611392772024285
157.0,191.446759969044,13.234163810607221,0.5927932618860631,29.65099337000889
158.0,195.54913236765606,13.983209716326305,0.594313326064224,29.690819458311584
159.0,198.6161198942898,14.88020898271402,0.5958359719106923,29.730860595791075
160.0,200.5730073706897,15.933785508299602,0.5973607208723516,29.771106246528916
161.0,201.3781697508155,17.152018404119353,0.5988870968790655,29.811545781946
162.0,201.02871520834125,18.542285643223032,0.6004146265308792,29.85216848221451
163.0,199.5619014729221,20.111099056215167,0.6019428392691999,29.892963537946894
164.0,197.05179994901596,21.863950455771214,0.6034712675642644,29.93392005172527
165.0,193.60105538840872,23.805140234734576,0.6049994470672281,29.975027040134595
166.0,189.32974232856742,25.937607648579917,0.6065269167768126,30.01627343551963
167.0,184.36320261909518,28.262751524930373,0.6080532191963236,30.05764808787726
168.0,178.8211581144395,30.780240645739088,0.6095779004854657,30.09913976680613
169.0,172.8097916525172,33.487812979033095,0.611100510606857,30.14073716351447
170.0,166.41757881219684,36.38105282198707,0.6126206034671521,30.18242889288719
171.0,159.71465760919796,39.45317760795955,0.6141377370526919,30.224203495612972
172.0,152.7549022018891,42.69480726427924,0.6156514735596094,30.266049440372328
173.0,145.57954641530168,46.09373897845473,0.6171613795119895,30.307955126152684
174.0,138.22123546236503,49.63473363543571,0.6186670259005344,30.349908884344778
175.0,130.7078660101051,53.2993333720189,0.6201679882756377,30.391898981350238
176.0,123.06566812066654,57.0657068743476,0.6216638468617922,30.43391362093555
177.0,115.32150168161616,60.908536953623106,0.6231541866589984,30.47594094674156
178.0,107.50442459325613,64.79895159709497,0.6246385975386316,30.517969044853842
179.0,99.64670542960049,68.7044830085374,0.6261166743335289,30.559985946439127
180.0,91.78446494642199,72.58903197795874,0.627588016932832,30.60197963038336
181.0,83.95804562071866,76.41287337899088,0.6290522303236479,30.643938026306266
182.0,76.21231435697992,80.13259181668366,0.6305089247094829,30.685849017065824
183.0,68.59681062358028,83.70109180667716,0.6319577155637139,30.727700441797968
184.0,61.165731818175075,87.06772704938984,0.6333982236735931,30.769480099002184
185.0,53.97764582194485,90.1786821134794,0.634830075199511,30.811175749519997
186.0,47.09471581533554,92.9778150332782,0.6362529017556889,30.852775119487756
187.0,40.58113771325105,95.40824017773619,0.6376663404160585,30.89426590375609
188.0,34.500645762088126,97.41481912288714,0.6390700337780773,30.935635768975335
189.0,28.91301276606381,98.9475548976716,0.640463629980382,30.976872357015015
190.0,23.869642968843205,99.96582700473863,0.6418467827538449,31.017963288256613
191.0,19.408885254519248,100.44279136141446,0.643219151416658,31.058896165148145
192.0,15.551590369562643,100.36943684218353,0.6445804009171046,31.09965857566045
193.0,12.297981705496584,99.7572495389291,0.6459302018367136,31.140238096922456
194.0,9.62655176583488,98.63882740947024,0.6472682303945326,31.180622298868805
195.0,7.495377033192509,97.06607730168626,0.6485941684592829,31.220798747974534
196.0,5.845914832649024,95.10601596975177,0.6499077035440598,31.260755011058468
197.0,4.6086168119804825,92.83487852198151,0.6512085288031416,31.300478659151125
198.0,3.7094064058915697,90.33151808570865,0.6524963430212981,31.33995727142807
199.0,3.075894705483187,87.67122250128062,0.6537708506016758,31.379178439215696
200.0,2.642380804378775,84.92088105771278,0.6550317615462263,31.418129770053078
201.0,2.353073950291384,82.13602086975602,0.656278791435544,31.45679889182827
202.0,2.1634256939581817,79.35977947292598,0.6575116614021981,31.495173456969322
203.0,2.039865834153252,76.62347538216993,0.6587300981024293,31.533241146704718
204.0,1.9584486015665963,73.94823915250215,0.6599338336834095,31.570989675382773
205.0,1.9029666154619456,71.34712922458208,0.6611226057468976,31.608406794846342
206.0,1.8629957040498064,68.82726501777199,0.6622961573115622,31.645480298883392
207.0,1.8321646303783792,66.39168727090876,0.6634542367692764,31.68219802770546
208.0,1.8067948394987616,64.04081095719586,0.6645965978432519,31.718547872531655
209.0,1.7849198199955223,61.77347104322717,0.6657229995302834,31.754517780071726
210.0,1.7656404436628226,59.58761569056555,0.6668332060653432,31.790095757323428
211.0,1.748729589817292,57.48074690302379,0.6679269868791432,31.825269876524093
212.0,1.7344107183336464,55.45017666492826,0.6690041165101354,31.860028279421773
213.0,1.7232578147461481,53.493169512771765,0.6700643745792052,31.894359182520226
214.0,1.7161614944198624,51.607018413911796,0.6711075456950307,31.928250881314863
215.0,1.7143446648778942,49.78908258424389,0.6721334194363474,31.961691755855004
216.0,1.7194023682559196,48.03680729788022,0.6731417902632518,31.994670275307193
217.0,1.7333603468073906,46.347728156122265,0.6741324574765496,32.02717500325557
218.0,1.7587428581392595,44.719474033625794,0.675105225124606,32.05919460220413
219.0,1.7986521125554868,43.149765184679076,0.6760599019684382,32.09071783921212
220.0,1.8568461887565093,41.63640993185413,0.6769963013960936,32.12173359050447
221.0,1.9378233814220718,40.17730247197143,0.6779142413635476,32.15223084676525
222.0,2.046904809251475,38.77041965171705,0.6788135443306759,32.182198718352694
223.0,2.190309034446085,37.41381689115269,0.6796940371892168,32.21162644024946
224.0,2.375225031647942,36.10562577085948,0.6805555511986082,32.240503377366956
225.0,2.609872312902324,34.84405073679425,0.6813979219180228,32.26881902968968
226.0,2.9035489007134068,33.627366160778415,0.6822209891393725,32.296563037471394
227.0,3.2666636005449154,32.453913519335096,0.6830245968205201,32.32372518643593
228.0,3.7107501010393005,31.322098710742548,0.6838085930189459,32.35029541298355
229.0,4.2484607152250975,30.230389516821628,0.6845728298259882,32.37626380939784
230.0,4.893538050781306,29.177313227138246,0.6853171633018021,32.40162062904937
231.0,5.66076342804788,28.161454455165416,0.686041453411177,32.426356291592086
232.0,6.565881437267051,27.181453192001907,0.686745563960347,32.450461388148575
233.0,7.62550061120954,26.236003163744908,0.6874293625349359,32.473926686479814
234.0,8.856970750822743,25.323850583633973,0.6880927204391596,32.4967431361353
235.0,10.278237280255636,24.44379337692259,0.6887355126360971,32.518901873548806
236.0,11.90767712276245,23.594681237308063,0.689357617690765,32.5403942272194
237.0,13.763911727802038,22.7754163296619,0.6899589177136153,32.56121172273492
238.0,15.865604940154997,21.98495522431827,0.690539298304196,32.5813460876925
239.0,18.231248216961536,21.222312411646723,0.6910986484994576,32.60078925678859
240.0,20.8789211782016,20.4865652813275,0.6916368607284085,32.61953337699979
241.0,23.826050070658297,19.77686128079261,0.6921538307503874,32.6375708116483
242.0,27.089145486840245,19.092428532425497,0.6926494576294082,32.654894146714426
243.0,30.683529898846448,18.432587812376227,0.6931236436633398,32.67149619363673
244.0,34.623035596336194,17.796769566633152,0.6935762943647371,32.68736999554926
245.0,38.91969168307327,17.184534308597335,0.6940073184169334,32.702508831665526
246.0,43.58339540692894,16.595596961407807,0.6944166276289485,32.71690622129784
247.0,48.621529170863695,16.02985573196873,0.6948041369097788,32.73055592877757
248.0,54.03853221773944,15.487426144539569,0.6951697642475737,32.743451968557856
249.0,59.83548490019551,14.968662225547476,0.6955134305912549,32.75558859942003
