Time,J,A,S,tau
0.0,100.0,100.0,0.1953876164847181,25.0
1.0,90.95236892649662,97.55587839306692,0.19292813058541583,24.741596567716115
2.0,82.66612581378868,95.16646643302144,0.19043951845936186,24.47775109761219
3.0,75.08599466392734,92.83149731073736,0.18792527281947527,24.208653758570396
4.0,68.15715086169492,90.54989906346769,0.18538768578630058,23.934373405658093
5.0,61.828471996909116,88.32061584516721,0.18282906293409418,23.654981316478057
6.0,56.052341440351114,86.14260773152257,0.18025171807459264,23.37055119280443
7.0,50.78455571230481,84.01485114657231,0.17765796787307303,23.081159141274497
8.0,45.98403316332724,81.93633810503,0.17505012667750702,22.78688364536644
9.0,41.61265784800417,79.90607613649892,0.17243050129261786,22.48780556162149
10.0,37.63517661875597,77.9230886011705,0.16980138585132648,22.184008091184133
11.0,34.01895090906763,75.98641395010095,0.16716505691116004,21.875576747915144
12.0,30.733836530120826,74.09510576699128,0.16452376841519037,21.56259934847072
13.0,27.75207741278247,72.24823296125254,0.16187974703521013,21.245165975091144
14.0,25.048099389318335,70.4448790580365,0.1592351876696831,20.923368939989206
15.0,22.598420060683786,68.68414235066862,0.1565922487883761,20.597302768686713
16.0,20.38154385836867,66.96513596253914,0.1539530484217477,20.26706415466493
17.0,18.37779369663106,65.28698717925708,0.15131966017040688,19.93275192013588
18.0,16.569243598313896,63.648837698947354,0.14869410911817219,19.594466992094805
19.0,14.939617312135555,62.04984356270704,0.14607836858684856,19.252312349709896
20.0,13.474169638555999,60.48918149004339,0.14507693628818788,19.133037900308366
21.0,12.159556176182846,58.96603409924641,0.14444245499272085,19.064761480395795
22.0,10.9838396586048,57.47960066795497,0.14382483293314433,18.998411273215016
23.0,9.936329121228335,56.029096220386734,0.14322412865495004,18.933983527255187
24.0,9.007521367663774,54.61375107786971,0.1426403953474429,18.871474295780505
25.0,8.188999556648415,53.2328110671771,0.14207368108520615,18.810879454075856
26.0,7.473381030044476,51.88553865041001,0.14152402897999397,18.75219471284589
27.0,6.854212226041302,50.57121338517877,0.14099147741659968,18.695415634350898
28.0,6.325892682450246,49.28913308035105,0.14047606020173714,18.640537645263976
29.0,5.883607896822068,48.03861527753419,0.13997780677205354,18.587556050650434
30.0,5.5232352569846075,46.81899855453065,0.13949674236324988,18.536466046787954
31.0,5.241278266710014,45.629644577292666,0.13903288817221715,18.487262733107354
32.0,5.034790963029499,44.46994011332364,0.13858626153522263,18.439941124178706
33.0,4.901283144315207,43.339298925062664,0.1381568760987502,18.39449616133492
34.0,4.838661871125816,42.237164517023345,0.1377447419576023,18.35092272278273
35.0,4.845153585411676,41.1630125436912,0.13734986581506595,18.309215633986202
36.0,4.919233016100194,40.11635330082802,0.13697225113325143,18.269369677326345
37.0,5.059565308325517,39.09673441133415,0.13661189826416234,18.231379600857686
38.0,5.264942057267543,38.103743612890604,0.13626880455619622,18.19524012674641
39.0,5.534103479260907,37.13700916032066,0.13594296456146282,18.160945962751068
40.0,5.865820114834418,36.19619981303299,0.13563437030799697,18.128491805895138
41.0,6.2589512019007705,35.28104118353628,0.1353430105908078,18.097872347272112
42.0,6.712044826129666,34.39128500754981,0.13506887275864007,18.06908228481469
43.0,7.223144140452152,33.526746982933055,0.1348119407998477,18.04211634054537
44.0,7.79227959956437,32.687304836160926,0.13457219587404476,18.016969194489374
45.0,8.416704127148776,31.87284363981534,0.13434961855697541,17.993635607617204
46.0,9.094204698862063,31.083311611451435,0.13414418641554282,17.97211035004764
47.0,9.82216163527227,30.318692863630933,0.1339558752572243,17.95238822581963
48.0,10.597800035387683,29.579011282570917,0.1337846588698424,17.934464069586195
49.0,11.418100094773036,28.864325732596154,0.13363050914009372,17.918332751713205
50.0,12.279763911931804,28.17472605347552,0.13349339608295083,17.90398918296084
51.0,13.179118955913182,27.510325944572774,0.1333732880055258,17.891428319432542
52.0,14.112215950400463,26.871258449452785,0.13327015153851143,17.880645161508184
53.0,15.074796368359248,26.2576700936702,0.13318395165773525,17.871634758423042
54.0,16.062364863581408,25.669714948400276,0.13311465172179132,17.86439220778668
55.0,17.07020308355654,25.107547988035577,0.13306221350960687,17.858912657206073
56.0,18.093384173400192,24.571318084831333,0.13302659726468777,17.85519130566049
57.0,19.126810580308824,24.06116117949403,0.13300776172597528,17.853223403880015
58.0,20.165261805900027,23.577193556850297,0.13300566414553192,17.853004254265443
59.0,21.203439019155024,23.119505048999258,0.13302026030562386,17.85452921066807
60.0,22.236011967493187,22.688152415131015,0.1330515045309644,17.857793677845358
61.0,23.25766700805071,22.28315313340686,0.1330993496962253,17.862793110600357
62.0,24.263157242375474,21.904478687936702,0.13316374722809216,17.86952301258375
63.0,25.24735865405454,21.55204939113185,0.1332446470930335,17.877978934551933
64.0,26.205299199034403,21.22572876149603,0.133341997807083,17.88815647324021
65.0,27.132199801375062,20.92531895130246,0.1334557464354127,17.900051269336355
66.0,28.023544136693655,20.650556407832283,0.13358583853861125,17.913659004377394
67.0,28.875087628781863,20.401109016518095,0.13373221819907108,17.92897539865055
68.0,29.682880601942987,20.17657298812217,0.13389482800924582,17.94599620927263
69.0,30.443397281334214,19.9764720801605,0.1340736089168727,17.964717222163053
70.0,31.15341476280658,19.80025373231329,0.13426850035623294,17.98513425610638
71.0,31.81009013094006,19.64729046112493,0.13447944016955785,18.007243156458234
72.0,32.411004724265965,19.51688537707301,0.13470636460060814,18.031039787899097
73.0,32.954242532984416,19.408264092963694,0.13494920794758708,18.0565200294159
74.0,33.438109818099946,19.32058576389405,0.13520790323136408,18.083679786166652
75.0,33.861640801313406,19.25294534408528,0.13548238108366215,18.112514948840385
76.0,34.223992597058704,19.20437208494363,0.13577257092026296,18.143021438753784
77.0,34.524977376085296,19.173845405580053,0.13607839982372033,18.175195151956782
78.0,34.76466295021477,19.16028606407137,0.13639979323965698,18.209031999842946
79.0,34.9436223184267,19.162579758132097,0.1367366745235946,18.24452786573211
80.0,35.06278456583236,19.179566060570618,0.13708896489662084,18.281678626404066
81.0,35.123452337519076,19.210061973909173,0.1374565837691631,18.320480133506596
82.0,35.12731729035037,19.252855916218948,0.13783944791841157,18.360928204590518
83.0,35.076374799131514,19.306724402361457,0.13823747250265014,18.403018636405356
84.0,34.97294836184586,19.37043465136237,0.1386505696994785,18.446747165058436
85.0,34.819656597329946,19.44275294064835,0.13907865003757608,18.49210950426278
86.0,34.61932011370645,19.522453550813715,0.1395216209314181,18.539101286996747
87.0,34.37504547124018,19.608322765603365,0.13997938785117225,18.587718110213434
88.0,34.09007957783551,19.699166822352684,0.14045185350690936,18.63795549393218
89.0,33.76784416660111,19.793820266824078,0.14093891787678672,18.689808883699
90.0,33.41189222389363,19.89114765418399,0.1414404784733551,18.743273653138917
91.0,33.025798934273006,19.990052194046676,0.14195642985076193,18.798345078880008
92.0,32.61324138794373,20.089481832413615,0.14248666373117783,18.855018347065915
93.0,32.1778991759184,20.188428249322644,0.14303106912984617,18.913288549153116
94.0,31.723380148711865,20.285938544899153,0.1435895318276125,18.97315065583385
95.0,31.253309866519114,20.38111514461105,0.14416193467569158,19.034599530310828
96.0,30.77119239039685,20.473115993587275,0.14474815753711406,19.09762991544744
97.0,30.280410398960388,20.561166402422806,0.14534807682106282,19.162236411746946
98.0,29.78427642208823,20.644553040911227,0.1459615658972432,19.22841349407034
99.0,29.285889726207145,20.7226274665776,0.1465884948293368,19.296155488341988
100.0,28.788212543865313,20.794814368522157,0.14722873008362106,19.365456559995504
101.0,28.29405892191886,20.860601937723615,0.14788213494592034,19.43631072827403
102.0,27.805990481042823,20.919549407846628,0.14854856907250125,19.508711834066506
103.0,27.326425784952924,20.971287806359538,0.14922788843809426,19.582653541815937
104.0,26.8575864686298,21.015511035440195,0.14991994566451614,19.658129346859585
105.0,26.401448793471957,21.05198463812348,0.15062458944127155,19.735132537599906
106.0,25.959846251881768,21.080539031949993,0.1513416647409904,19.813656211917884
107.0,25.534403744072353,21.101063672697737,0.15207101299210943,19.89369327440697
108.0,25.12652127359783,21.113515508031096,0.15281247133673279,19.975236389242106
109.0,24.737484343861986,21.117902640318267,0.15356587341634687,20.058278031984997
110.0,24.368343063647362,21.1142898742945,0.15433104879074588,20.142810433594143
111.0,24.02004733321336,21.102794801616998,0.15510782276654408,20.22882558912467
112.0,23.69333072328279,21.0835754012623,0.1558960172300245,20.31631527193454
113.0,23.388858162894167,21.056840153145185,0.15669544912290073,20.405270977415636
114.0,23.10707988692257,21.02282798679052,0.15750593222703957,20.495683974154876
115.0,22.84844446810153,20.98181718946096,0.15832727542985403,20.587545268531027
116.0,22.61315098361814,20.93411696544228,0.15915928330865575,20.68084552856977
117.0,22.401431042235814,20.880052863738786,0.16000175787484427,20.775575311433382
118.0,22.213372394622958,20.819986769828407,0.16085449396875906,20.87172467968293
119.0,22.048963883224353,20.754285764807896,0.16171728496373114,20.96928355044696
120.0,21.90820008745316,20.68333663727514,0.16258991899830927,21.0682415755161
121.0,21.790964864068027,20.607538717395112,0.16347217836109615,21.168587921155872
122.0,21.697112427148596,20.527293193524923,0.16436384421184994,21.270311677507234
123.0,21.62644604436714,20.4430117794609,0.1652646903925127,21.37340148301083
124.0,21.57875625673438,20.355103443801195,0.16617448730319193,21.47784561916589
125.0,21.553776307670322,20.263979383344044,0.16709300289201548,21.583632252535182
126.0,21.551209764956983,20.170046299982445,0.16801999726166758,21.69074896421782
127.0,21.5708063512513,20.073705347677574,0.16895522906456528,21.79918314075383
128.0,21.612182263261424,19.975355319725505,0.1698984520683933,21.90892190079165
129.0,21.675032217295737,19.875380144943943,0.1708494137386193,22.019951783057465
130.0,21.759057261039885,19.77416062938036,0.1718078605708091,22.132259230314514
131.0,21.863800965702975,19.672065535671234,0.17277353204177026,22.245830211881717
132.0,21.988985503586846,19.569448546862482,0.17374616380194408,22.360650251399655
133.0,22.134226552029155,19.46665992614608,0.17472548953775094,22.476704761549872
134.0,22.299066630055837,19.36402939738948,0.17571123517482745,22.593978518230944
135.0,22.48324634146536,19.26187753264091,0.17670312504216373,22.712456037599754
136.0,22.686255425111934,19.160516089930425,0.17770087931676506,22.83212158497858
137.0,22.90770864007545,19.06023500221786,0.17870421177794488,22.95295876138674
138.0,23.14730106120175,18.961320116139277,0.17971283540267566,23.07495104492378
139.0,23.40443767960699,18.8640408093077,0.18072645698480047,23.19808144435613
140.0,23.678797702249025,18.76865068594889,0.1817447793427819,23.322332429528213
141.0,23.969964088239568,18.675399330785396,0.18276750387962812,23.447686364501948
142.0,24.277330968780824,18.584515317052375,0.1837943250020084,23.574124948242083
143.0,24.600603381642678,18.496219476589488,0.18482493544992945,23.701629540966728
144.0,24.93916163514934,18.410724289453434,0.18585902484954472,23.83018129663418
145.0,25.292473813041923,18.32822235608711,0.18689627674117154,23.95976059181428
146.0,25.6602305984822,18.248903468647782,0.18793637414209355,24.090347624303035
147.0,26.041695942370804,18.17294588453834,0.1889789960697896,24.22192228051973
148.0,26.436316508261665,18.100510975483314,0.19002381642155589,24.354463645050785
149.0,26.843722894935002,18.03175892293701,0.19107050890522165,24.48795067363404
150.0,27.263079089803057,17.966836579144932,0.1921187429600549,24.62236192211835
151.0,27.693819670798373,17.905877761067973,0.1931681841797456,24.75767515649956
152.0,28.13549951180212,17.849015573123506,0.19421849802088614,24.893868043115067
153.0,28.5871920805137,17.79636845434703,0.1952693456765509,25.030917749995236
154.0,29.048313990680196,17.748045456390987,0.19632038580546599,25.16880067971021
155.0,29.51833328641879,17.704154779480803,0.19737127688131592,25.307493153134637
156.0,29.996248898488833,17.664789109289615,0.1984216734534909,25.44697088510749
157.0,30.48145608316864,17.630034906378736,0.19947122881072946,25.58720885920894
158.0,30.973330608594484,17.59997717278003,0.20051959594579635,25.72818198332329
159.0,31.47081881218859,17.57468500889769,0.20156642464681906,25.869864442399436
160.0,31.973294333265795,17.554223842859976,0.20261136460499818,26.012229732266626
161.0,32.480041496585486,17.53865669941069,0.20365406509004677,26.155251265870316
162.0,32.989980783367876,17.52803073127156,0.20469417329244208,26.29890160718246
163.0,33.502467272350145,17.522391342931417,0.20573133729238954,26.443152680035343
164.0,34.01670108489587,17.521780349460773,0.20676520466917328,26.587976303015836
165.0,34.53160671117769,17.526224100752593,0.2077954224502104,26.73334331105734
166.0,35.04652683923571,17.53574853933819,0.20882163930572425,26.879223954303153
167.0,35.56059069079954,17.550374653321473,0.20984350344491914,27.025588337118826
168.0,36.07275773231124,17.570108733328066,0.2108606644127265,27.172405438634538
169.0,36.58236705406649,17.594957494268762,0.21187277387727638,27.3196437147009
170.0,37.088495579773294,17.62492119045588,0.21287948328977302,27.467271412503553
171.0,37.5901676193161,17.659986523895608,0.21388044759668867,27.615255509430053
172.0,38.08672875051384,17.700141000750527,0.21487532405901444,27.76356252692017
173.0,38.57722833174692,17.745364111463175,0.2158637702731725,27.91215868635501
174.0,39.060780126489995,17.795623302788925,0.2168454496050547,28.06100879997453
175.0,39.53674479297712,17.850886760046887,0.21782002765630515,28.210077295499953
176.0,40.00418165473039,17.9111132323629,0.21878717136421708,28.35932817196431
177.0,40.46230351482626,17.97625106900255,0.21974655555892647,28.508723899934424
178.0,40.910499084430555,18.046249170003456,0.22069785707571693,28.658226633778355
179.0,41.347874232595125,18.121045711811515,0.221640755564286,28.807797931869928
180.0,41.773746003593914,18.200570212322795,0.22257494036471423,28.95739773298186
181.0,42.187544672545215,18.284752447536864,0.22350010252021174,29.106985721637404
182.0,42.58845427083185,18.37351043725536,0.22441593783315383,29.256520780579233
183.0,42.975898574663226,18.466755331248088,0.2253221531288705,29.405960117730324
184.0,43.34936210150374,18.564398111557313,0.22621845664473997,29.555260738484723
185.0,43.70813208744844,18.666337462209718,0.2271045637226159,29.704378605604404
186.0,44.05173877637951,18.772466898707567,0.22798020149051568,29.853267995063046
187.0,44.37972865928252,18.88267923098008,0.2288450981574544,30.00188303625732
188.0,44.69149563461528,18.996854891722176,0.22969899145978095,30.150176577583434
189.0,44.98668244202482,19.11487035761548,0.23054163231652883,30.29809964458204
190.0,45.26494842472115,19.2366018724674,0.231372772403957,30.445603163060984
191.0,45.525785631524805,19.361914417607434,0.2321921718570089,30.59263702035836
192.0,45.76890963118264,19.490667281461985,0.23299960889592558,30.739148667378284
193.0,45.994100525624496,19.622720381195045,0.23379486374276534,30.8850852705461
194.0,46.20104016682231,19.757928216582567,0.23457771966075255,31.03039369406477
195.0,46.38944024771182,19.89613411131336,0.23534798080234678,31.175018152775223
196.0,46.559172256765955,20.037182500932836,0.23610545947208356,31.318901707041686
197.0,46.710089485076004,20.180916762192048,0.236849968335222,31.46198740543535
198.0,46.8419812427291,20.327170085674105,0.23758133440474283,31.604216661409936
199.0,46.95478321987608,20.47577380107937,0.23829940261094257,31.745528452886813
200.0,47.04845434107596,20.626559821389634,0.23900401894904227,31.885861588041053
201.0,47.12292068220016,20.779355029671354,0.23969503490585775,32.02515438159882
202.0,47.178169893857294,20.93398073199323,0.24037232490367014,32.1633422336225
203.0,47.21424037175862,21.090259556027874,0.24103576916171207,32.300359656368855
204.0,47.23117036381213,21.248012972158314,0.24168524891288315,32.436141115160545
205.0,47.229028035687804,21.407056471857732,0.2423206629093085,32.57061911598472
206.0,47.2079201208082,21.5672064365135,0.2429419245175247,32.70372404911438
207.0,47.167955951212306,21.72827950611372,0.24354894755769085,32.835386222621544
208.0,47.10929222063952,21.890089082383486,0.24414165384487765,32.96553525400662
209.0,47.03210962443077,22.052448110387136,0.24471998566403594,33.09409805514681
210.0,46.93657737158595,22.215170692837077,0.24528388852190688,33.221000964946214
211.0,46.82289637472472,22.378070132830732,0.24583330987204927,33.34617022601022
212.0,46.69134508479147,22.540958688530417,0.24636821457187966,33.46953016500445
213.0,46.54214825943527,22.703650868782464,0.2468885766263673,33.59100361755683
214.0,46.375533436654976,22.86596122307553,0.24739437027789807,33.7105133939865
215.0,46.19184633028374,23.027703963743694,0.2478855789949337,33.827981584070855
216.0,45.991389014007765,23.1886962610756,0.24836220003969847,33.94332837615351
217.0,45.77442666179122,23.348756044223624,0.24882423176131602,34.05647368358408
218.0,45.541298189685406,23.507701367288035,0.24927167536239714,34.167337309094954
219.0,45.29242075907988,23.66535357929437,0.24970454494241714,34.27583782378645
220.0,45.0281001590281,23.82153622900265,0.2501228577451466,34.381893124250716
221.0,44.748658796184735,23.97607294138117,0.2505266314494447,34.48542110045192
222.0,44.45458350094268,24.12879027634362,0.2509158915513503,34.58633932614624
223.0,44.14625109549678,24.279518993667732,0.2512906681054756,34.684564835260396
224.0,43.82399908886598,24.428090172028625,0.25165099091830967,34.780014612900466
225.0,43.4882865972696,24.57433645326897,0.25199689300409805,34.87260566471748
226.0,43.139612097299995,24.718096423559125,0.2523284114871561,34.96225529124514
227.0,42.778344539822164,24.85921003865486,0.25264558178920105,35.0488809319643
228.0,42.40489007823418,24.997517666909722,0.25294844014414314,35.13240003098441
229.0,42.019835555951666,25.13286530134925,0.25323702579690155,35.21273084599958
230.0,41.623609819504324,25.265102615834667,0.25351137315059674,35.28979279902587
231.0,41.2166120636502,25.39407931522845,0.25377151587182634,35.36350538553615
232.0,40.79940828024675,25.519648531601206,0.25401748992423157,35.43378859040759
233.0,40.37254097035069,25.6416698796895,0.254249324040908,35.5005650473141
234.0,39.93643659185435,25.760003371893795,0.2544670425981246,35.563758134928335
235.0,39.491581500595174,25.874510087428764,0.25467067096562057,35.623291319813866
236.0,39.038629334777085,25.985058653600888,0.2548602297034131,35.67909093005592
237.0,38.57805184079713,26.091519885858286,0.2550357273443507,35.73108613478549
238.0,38.11030702069474,26.193764577381415,0.25519717183431484,35.77920620636936
239.0,37.636026806942056,26.29166892679577,0.255344569227579,35.82338227331841
240.0,37.155778612324,26.385114416953392,0.25547791011025744,35.86355025436583
241.0,36.67005419920929,26.473982253115942,0.255597181314474,35.899646811796245
242.0,36.179489670237125,26.558158429706555,0.2557023673069341,35.9316104755245
243.0,35.684657791763414,26.637534152031794,0.25579343469294386,35.95938552498211
244.0,35.18606882041404,26.712000584118346,0.255870345864325,35.98291725094729
245.0,34.68437489504295,26.781454006810165,0.2559330598983376,36.00215322998851
246.0,34.18016130804005,26.845796162533937,0.2559815158100665,36.01704784962318
247.0,33.67395291855223,26.90492875321065,0.2560156481628186,36.02755666200057
