Time,J,A,S,tau
0.0,100.0,100.0,0.6510406561416919,27.027027027027028
1.0,98.68184631627746,97.82929010296519,0.6518964249962675,27.106994297852992
2.0,97.38057115653076,95.70305909621995,0.6527591659539854,27.187683749920517
3.0,96.09780406048795,93.62369210152185,0.6536266787719611,27.26887103359705
4.0,94.83321380315951,91.59009862020051,0.6544987743207595,27.350530334899158
5.0,93.58648690499393,89.60125346005833,0.6553752636112208,27.432635602205078
6.0,92.3573074874498,87.65609755964304,0.6562559576436268,27.5151606978992
7.0,91.14538741825882,85.75363546065303,0.6571406673819262,27.598079102704737
8.0,89.95045035265487,83.89291477025722,0.6580292037848308,27.681364200059132
9.0,88.77221899613689,82.07294509134164,0.6589213776987258,27.76498926828943
10.0,87.61045196981581,80.29280556891369,0.6598169995820294,27.848927264826212
11.0,86.46491869700898,78.55160897878434,0.6607158798185938,27.933151088704147
12.0,85.33539082478902,76.84843326201579,0.6616178285206766,28.017633536534092
13.0,84.22168526757694,75.18242777961517,0.6625226550351057,28.102347164774287
14.0,83.12362863791792,73.55276542953509,0.6634301685896938,28.18726449567215
15.0,82.04105474267865,71.95858851570547,0.6643401779099621,28.27235796191238
16.0,80.97385368292305,70.39911042253785,0.6652524905829622,28.357599837695773
17.0,79.9219239187649,68.8735595573681,0.6661669140533125,28.44296237936059
18.0,78.88517815347397,67.38113873524222,0.6670832549549502,28.528417778242297
19.0,77.86359741972598,65.9211197743065,0.668001318439492,28.613938145722962
20.0,76.85716927792528,64.49278237101494,0.6689209095055615,28.699495585686247
21.0,75.865904646968,63.09538613911169,0.6698418319544772,28.785062174042267
22.0,74.88989479822233,61.72825628109952,0.6707638878128345,28.870609978645465
23.0,73.92923497156137,60.39071991780134,0.6716868789462824,28.95611106623287
24.0,72.98405452343381,59.082089899881296,0.6726106055642495,29.041537525044326
25.0,72.0545739920919,57.80174024918357,0.6735348658787165,29.126861497704855
26.0,71.14101434472111,56.54904196850435,0.6744594579238053,29.21205513021088
27.0,70.24364222007608,55.323357741845896,0.6753841775590195,29.297090651159944
28.0,69.3628239687877,54.124106279809986,0.6763088185063144,29.381940394441603
29.0,68.49893529875807,52.950706039797886,0.6772331740279911,29.46657671859445
30.0,67.65236616303899,51.80260480780564,0.6777307524224583,29.512708977377173
31.0,66.82357817691144,50.679261143132535,0.6777619858087662,29.516736707274955
32.0,66.01312574896369,49.58010257429869,0.6777864235321649,29.519890930768657
33.0,65.2215913662374,48.50460276647649,0.6778040565552036,29.52216843142554
34.0,64.44963175105639,47.45226491697829,0.6778148754970496,29.523566513915767
35.0,63.69788292199137,46.42257519451576,0.677818870998564,29.52408279229517
36.0,62.96710891662692,45.41506550895159,0.6778160331063322,29.52371594167602
37.0,62.25810964413261,44.4292831243547,0.6778063517136738,29.522464829027648
38.0,61.57164741944401,43.464757488115495,0.6777898167278912,29.520328765420174
39.0,60.90861554478406,42.521069183719064,0.6777664174916285,29.517308157971478
40.0,60.26994034651725,41.59781273588593,0.6777361432253228,29.51340356723392
41.0,59.656489727528104,40.694568912466366,0.6776989831848628,29.508616050059445
42.0,59.069253534072466,39.81097407501341,0.677654926181222,29.50294774032272
43.0,58.50924859661581,38.946676161189906,0.6776039609410658,29.496400904548643
44.0,57.97740467743399,38.10131456874014,0.67754607628562,29.488978352634188
45.0,57.47475753407578,37.27458984797049,0.6774812607713366,29.480683934432957
46.0,57.002362063751974,36.46621208794409,0.677409502908681,29.471521613312763
47.0,56.56114811099443,35.675889299653896,0.6773307914077188,29.461495935572668
48.0,56.1521290439015,34.903396974754244,0.6772451149454611,29.450612433846715
49.0,55.776327550353166,34.14851832520657,0.6771524621896856,29.438876737394196
50.0,55.434592318736634,33.4110420687204,0.6770528221659136,29.426295088200114
51.0,55.12782752530651,32.690830878116095,0.6769461841389502,29.41287464648603
52.0,54.85693453863738,31.98775344885342,0.6768325373986573,29.39862265483734
53.0,54.62257927606086,31.301692273414623,0.6767118718093957,29.38354698661098
54.0,54.42545138116517,30.632609581939562,0.6765841777752188,29.36765635339486
55.0,54.26622268746537,29.98047196661708,0.6764494457572526,29.350959537654507
56.0,54.14525470036227,29.34526807769716,0.6763076670698538,29.333465957331693
57.0,54.06290032236513,28.727070479565214,0.6761588338820185,29.315185779618336
58.0,54.01947426410975,28.125951797287854,0.6760029384176074,29.29612921710139
59.0,54.01487676155668,27.542009293372807,0.6758399740683124,29.276307089804153
60.0,54.048963575063155,26.975442862312065,0.6756699356560188,29.2557309964572
61.0,54.12160285805372,26.426460250106377,0.6754928180783927,29.234412578069982
62.0,54.23224202830883,25.89526963163645,0.6753086171390271,29.21236380509565
63.0,54.38000527945928,25.382170372178113,0.6751173308392867,29.18959744626456
64.0,54.564067870680915,24.88748970172222,0.6749189575299878,29.166126395065987
65.0,54.783145655815346,24.411566971702975,0.6747134968670132,29.141963892433964
66.0,55.035731677503136,23.95481279632548,0.6745009504892289,29.117123699801898
67.0,55.32012578833909,23.51764590102592,0.6742813206783419,29.09161972151399
68.0,55.63419560029815,23.100537738778343,0.6740546121676873,29.065466353824984
69.0,55.97573213767077,22.703987535630862,0.6738208306224688,29.038678169064564
70.0,56.34202168131437,22.328514914368075,0.6735799838570985,29.011270078906854
71.0,56.73019885002576,21.974674124089788,0.6733320812760294,28.98325723341086
72.0,57.13698242296036,21.643036506036193,0.6730771344951604,28.95465505802747
73.0,57.55892157261949,21.334196878529184,0.6728151567777532,28.92547917110772
74.0,57.99215773649362,21.048760383142522,0.6725461639269275,28.895745439580704
75.0,58.432671503347834,20.78734519994697,0.6722701734293295,28.865469882175532
76.0,58.87608042692738,20.550570759885744,0.6719872056196439,28.834668731449682
77.0,59.317856769308705,20.33905937549751,0.6716972826228733,28.803358339527353
78.0,59.753181708007546,20.1534213251309,0.671400429462531,28.771555221980613
79.0,60.17705160896419,19.99425275600804,0.6710966733899434,28.73927599869103
80.0,60.58434987537583,19.86213242772415,0.6707860443873384,28.706537398394236
81.0,60.96978273576926,19.757602895669486,0.6704685751964865,28.67335623424287
82.0,61.327998864522286,19.68117577170202,0.6701443010464598,28.639749381773203
83.0,61.653621881208544,19.633310698538565,0.6698132603395389,28.605733772236384
84.0,61.94123799972334,19.61441084744814,0.6694754941202116,28.57132636624042
85.0,62.185550311365745,19.624819330364815,0.6691310464399569,28.536544143309644
86.0,62.38134764644021,19.664791375322263,0.6687799645641206,28.501404082398455
87.0,62.52358142366306,19.734506124056683,0.6684222984990806,28.46592315036355
88.0,62.60749997967518,19.834036926098175,0.6680581017514108,28.430118280914083
89.0,62.62859315137751,19.963345874553553,0.6676874308318935,28.394006364656256
90.0,62.58275827211874,20.122282072468344,0.6673103454296357,28.357604235918796
91.0,62.46633970268507,20.31054765601945,0.6669269088197266,28.320928648782516
92.0,62.276108864097125,20.527717110146295,0.6665371871931571,28.283996282457426
93.0,62.009511826493615,20.773197304120927,0.6661412505381237,28.246823705083827
94.0,61.66448629531277,21.046237823961217,0.6657391719284179,28.209427383079465
95.0,61.23976091754129,21.345913650933927,0.6653310281280925,28.171823651807994
96.0,60.73463772731713,21.67111910207054,0.6649168991488971,28.134028719487315
97.0,60.14926038912441,22.02056141925621,0.6644968686880138,28.096058642341905
98.0,59.484428221733836,22.39275500395883,0.6640710238133642,28.057929326061043
99.0,58.74169850245941,22.78603062710894,0.6636394550146885,28.019656517712487
100.0,57.92342384138955,23.198502331130403,0.6632022566817686,27.981255771422543
101.0,57.03257513506524,23.628118420526725,0.6627595262492438,27.942742484440974
102.0,56.072881416878786,24.072617019664367,0.6623113651179164,27.904131841484112
103.0,55.04864608022206,24.52956544006546,0.6618578780035391,27.865438840606085
104.0,53.964742609507205,24.996361430510664,0.661399173119721,27.82667827853215
105.0,52.826558212781144,25.47023587864773,0.6609353623524145,27.78786473117292
106.0,51.63988589434643,25.94828381937926,0.6604665609322755,27.749012567477454
107.0,50.41086909589224,26.427472995147475,0.6599928875786145,27.71013593496668
108.0,49.14592503765904,26.904663399802576,0.6595144646058245,27.671248745388294
109.0,47.85164938782163,27.376640269877168,0.6590314176198699,27.632364688659543
110.0,46.5347483950576,27.840133044667084,0.6585438755776577,27.593497224304492
111.0,45.201959479710325,28.291846115176092,0.6580519709597288,27.554659562724297
112.0,43.85998079441427,28.728495644792282,0.6575558394546096,27.515864681475307
113.0,42.51540865487364,29.14683552807092,0.6570556199399338,27.477125322626158
114.0,41.17465575191822,29.54370133616475,0.6565514546825143,27.43845397188211
115.0,39.8439094706214,29.916048977868638,0.6560434890510126,27.399862873969578
116.0,38.52908448491489,30.260982438646817,0.6555318714218697,27.361364036142138
117.0,37.23574210389355,30.575807940104813,0.655016753368098,27.322969207839193
118.0,35.96906858501321,30.85807291009885,0.6544982894333801,27.28468989209194
119.0,34.73385052551423,31.105586254827703,0.6539766369686584,27.24653735512673
120.0,33.53440335393632,31.31647228366104,0.653451956282918,27.208522608716763
121.0,32.37456195956257,31.489205710402484,0.652924410493552,27.170656415669747
122.0,31.25768522461864,31.622613497271935,0.6523941653067484,27.132949304813597
123.0,30.186608098124168,31.715910831235693,0.6518613891142305,27.095411557607843
124.0,29.163641662103462,31.768726925244575,0.6513262529117644,27.058053207646868
125.0,28.190614857442597,31.781077779954195,0.6507889300506611,27.02088405861981
126.0,27.268852658121563,31.75337000633753,0.650249596261367,26.983913678522764
127.0,26.399179826587734,31.68643029559347,0.6497084297537403,26.9471513779127
128.0,25.582057753119887,31.581376455092126,0.6491656105182648,26.9106062805117
129.0,24.817442217737874,31.439741415138574,0.6486213212324188,26.874287214724124
130.0,24.105029659484156,31.263258581459272,0.6480757459848813,26.838202850992783
131.0,23.44416029120343,31.05397284582856,0.6475290711899747,26.802361584169223
132.0,22.83396436875877,30.814092769486603,0.6469814847531663,26.76677162694526
133.0,22.27333169250349,30.54599890336429,0.6464331765367243,26.73144094534293
134.0,21.76104090313865,30.252168151903728,0.6458843378372683,26.696377308877224
135.0,21.295750491745363,29.935138149078288,0.6453351614807438,26.661588277121034
136.0,20.876082711875487,29.59746325591246,0.6447858417531265,26.627081187433898
137.0,20.500639932832033,29.24168156039111,0.6442365740577064,26.592863202423544
138.0,20.16805099661924,28.870268281276005,0.6436875551571072,26.558941253769166
139.0,19.87699383341711,28.485629338161637,0.6431389826994431,26.52532210561702
140.0,19.626213131383615,28.09006119827761,0.6425910553908137,26.49201231518119
141.0,19.41454622793719,27.685743245361316,0.6420439727262124,26.45901825365273
142.0,19.240909473387553,27.27473684282694,0.6414979349001733,26.426346122460966
143.0,19.10433108842044,26.85895239782881,0.6409531427761651,26.39400191953855
144.0,19.003912894395512,26.440186190551557,0.6404097976306714,26.36199149521537
145.0,18.938859609319167,26.02008318976482,0.6398681011911953,26.330320503744794
146.0,18.908436791310685,25.600170695418907,0.6393282553908388,26.298994446499197
147.0,18.911981355006272,25.181853393843273,0.6387904623497854,26.26801865925815
148.0,18.948872048685256,24.76641487991433,0.6382549241889649,26.237398306840376
149.0,19.018514463241058,24.355047814596116,0.6377218429777415,26.207138418412327
150.0,19.120332984650165,23.9488366492883,0.6371914205548382,26.177243846341728
151.0,19.253724803533835,23.54879287902103,0.6366638584751322,26.147719316909917
152.0,19.41808790234677,23.15584656168508,0.6361393578402871,26.118569390982724
153.0,19.6127355643619,22.77086732397496,0.6356181192277006,26.089798504042555
154.0,19.836952736897995,22.39466900517634,0.6351003425669486,26.061410944773787
155.0,20.089887216946938,22.02801502483942,0.634586226974143,26.033410868586607
156.0,20.370646484563,21.671634873915707,0.6340759707443775,26.005802300622623
157.0,20.678140749345797,21.326218912447562,0.6335697711238599,25.978589138217835
158.0,21.011221451367273,20.99243720237415,0.6330678242835717,25.95177515140934
159.0,21.368512508419524,20.670931095112714,0.6325703251652157,25.925363992233624
160.0,21.748527853821905,20.362328273924405,0.6320774674594916,25.899359196886014
161.0,22.149558901222743,20.067237059638618,0.6315894432466446,25.873764174301982
162.0,22.569746320696726,19.78625488938482,0.631106443330373,25.848582238828854
163.0,23.007028893434065,19.51996667301182,0.6306286565671799,25.82381657516572
164.0,23.459144399273207,19.26894410964478,0.6301562703153198,25.7994702775095
165.0,23.92365130100815,19.03374815919847,0.6296894699853918,25.775546329192547
166.0,24.397896916508156,18.814924534153857,0.6292284389645656,25.752047609355227
167.0,24.879047857568686,18.613003989507767,0.6287733587152047,25.72897690437546
168.0,25.3641152624438,18.428501374196802,0.6283244084787052,25.70633690038535
169.0,25.84992117264777,18.26190794744936,0.6278817651785491,25.684130187335548
170.0,26.333146299552972,18.113691739681443,0.6274456035400998,25.662359268989977
171.0,26.81036637194855,17.984293844940794,0.6270160957460087,25.64102655523112
172.0,27.27802752354969,17.87411893605491,0.6265934113979587,25.620134367475316
173.0,27.732503549840267,17.783536181162475,0.626177717636518,25.599684946792095
174.0,28.170145397565804,17.71287188549095,0.625769178751341,25.579680446204055
175.0,28.587264005172685,17.662399803081705,0.6253679562105579,25.560122937178477
176.0,28.980193982250512,17.632342558794523,0.6249742087688542,25.54101441598548
177.0,29.345356271506525,17.62286028970302,0.6245880920385241,25.52235679617264
178.0,29.679244820525568,17.63404242347278,0.6242097585923695,25.50415191587404
179.0,29.97849299187126,17.665909242613637,0.6238393580484174,25.486401542534416
180.0,30.239946570433613,17.718396854443192,0.6234770366107065,25.469107365717605
181.0,30.460648842584884,17.79135204631424,0.6231229372480511,25.452271004991488
182.0,30.63790489138937,17.88453380040465,0.6227771997444992,25.4358940131501
183.0,30.76935838510161,17.997595797045907,0.6224399602214643,25.41997786949888
184.0,30.852968317574078,18.130085642847053,0.622111351391858,25.404523988107417
185.0,30.887052047371515,18.281447876376994,0.6217915026265433,25.389533720762117
186.0,30.870406362883987,18.45099990822286,0.6214805392092079,25.375008346091178
187.0,30.802161050867845,18.63795219397339,0.6211785832708808,25.36094908884406
188.0,30.682016869026945,18.841384066240295,0.620885752632548,25.347357101038554
189.0,30.510015102652435,19.060262281009337,0.6206021618795983,25.334233483449818
190.0,30.286770425517396,19.293423417644632,0.6203279212448479,25.32157926766286
191.0,30.01327790698282,19.53958939834339,0.6200631374438538,25.30939543289447
192.0,29.691061019118518,19.797360863038495,0.6198079128880595,25.297682893720843
193.0,29.322030500861057,20.065229401224226,0.6195623462241555,25.286442511598448
194.0,28.908521020179045,20.341584287966572,0.6193265321126388,25.275675091546606
195.0,28.45328126729633,20.624708957537496,0.619100560712167,25.26538137731936
196.0,27.959374010686382,20.91281080526439,0.6188845184869782,25.255562063488995
197.0,27.430185514471503,21.204018717390934,0.6186784875345654,25.24621778748759
198.0,26.86936777590115,21.4964011469244,0.6184825456514348,25.237349131962706
199.0,26.28078282831082,21.787984522612064,0.6182967665074919,25.228956628029707
200.0,25.668460019470984,22.076766886339076,0.6181212195426792,25.221040754757126
201.0,25.036548422868513,22.360736618269534,0.6179559697097915,25.213601937115197
202.0,24.389265548499363,22.637894484564352,0.6178010777017439,25.20664054976844
203.0,23.730852027635482,22.9062703173544,0.6176565999671615,25.200156917825762
204.0,23.065519791883823,23.163945175056966,0.6175225884379132,25.194151314356006
205.0,22.397415083100697,23.40907582079504,0.61739909061008,25.188623962328023
206.0,21.730582224158432,23.639910386775355,0.617286149696863,25.183575036817686
207.0,21.068919088099435,23.854808939598104,0.6171838044599107,25.179004663521464
208.0,20.416142809868678,24.052270867723198,0.6170920890654836,25.174912917929078
209.0,19.77577525006465,24.230945575896467,0.6170110333390862,25.171299828610813
210.0,19.151115207897075,24.38964577817791,0.6169406627286427,25.16816537704794
211.0,18.54520160245443,24.52737256314066,0.6168809980341577,25.165509495106967
212.0,17.960821293176533,24.643321668425436,0.6168320556222513,25.163332067899535
213.0,17.40049941844742,24.736885124011412,0.6167938475184878,25.16163293485433
214.0,16.866475523429674,24.80766321051136,0.6167663811852933,25.160411887473856
215.0,16.36071323411431,24.85547135731316,0.6167496595324732,25.15966866990288
216.0,15.884916551772319,24.880325092679282,0.6167436811428799,25.15940298134492
217.0,15.440523174322328,24.88243873219764,0.6167484401799371,25.159614475039437
218.0,15.028712119939662,24.862224445225333,0.6167639262171459,25.16030275665144
219.0,14.650433356076906,24.820274233773596,0.6167901244096513,25.161467386172628
220.0,14.306428381302092,24.757332719899598,0.6168270158403919,25.163107881273508
221.0,13.99720211613094,24.67431244204508,0.6168745765006322,25.165223706497766
222.0,13.723135804800336,24.572233628736846,0.6169327789280038,25.167814290906005
223.0,13.4843825388887,24.45224542090755,0.6170015902366683,25.170879005976982
224.0,13.281027199286697,24.315570317635206,0.6170809743491845,25.17441719055582
225.0,13.112973357066465,24.163513005525875,0.6171708897965608,25.17842812554244
226.0,12.980079242452554,23.99742168965708,0.6172712918550343,25.182911058113376
227.0,12.882069674071465,23.818681045380952,0.6173821306197024,25.187865178856043
228.0,12.818641529832364,23.628691895991334,0.6175033528345052,25.193289643035154
229.0,12.789396529032171,23.428855082541784,0.6176349002981153,25.19918355081912
230.0,12.793917039795666,23.220563672648776,0.6177767113557379,25.205545965150662
231.0,12.831717183315439,23.005185215436875,0.6179287196630308,25.21237589547252
232.0,12.902290642353103,22.784060388067967,0.6180908553191893,25.219672311820112
233.0,13.005079074256122,22.5584891271125,0.6182630440038822,25.22743413239592
234.0,13.139492699419081,22.329731281673208,0.6184452077417505,25.23566023355824
235.0,13.304896923275772,22.098999460505063,0.6186372644168238,25.24434944153724
236.0,13.500606587090601,21.86745816527835,0.6188391281688784,25.253500538049106
237.0,13.725892021660407,21.636224805073926,0.6190507092797074,25.263112256391043
238.0,13.97994785026874,21.40636522265117,0.6192719142115926,25.27318328246536
239.0,14.261920402981463,21.17890220038266,0.6195026458502819,25.28371225543403
240.0,14.57085134182656,20.954807556301173,0.6197428032050007,25.294697763994407
241.0,14.905728949905265,20.735015556300866,0.6199922819157623,25.30613835067241
242.0,15.265414122251112,20.52041392664112,0.620250973870301,25.31803250656368
243.0,15.648682925602408,20.31185636415463,0.6205187678139517,25.330378677928998
244.0,16.054194157409103,20.11015659396855,0.6207955486189478,25.34317525413959
245.0,16.480481417714948,19.916096406323494,0.6210811981980389,25.356420580085477
246.0,16.925975105826875,19.730426825342306,0.6213755950107411,25.37011294672228
247.0,17.388951457267915,19.55386585238224,0.6216786142098083,25.384250591840093
248.0,17.867577107129996,19.387106595567264,0.6219901281242827,25.398831706279985
249.0,18.359882322682406,19.230811939623496,0.6223100055915672,25.4138544204282
