Time,J,A,S,tau
0.0,100.0,100.0,0.931459433325456,10.0
1.0,0.0,380.4393754487581,0.9278801968226565,9.811698440046733
2.0,0.0,636.4181019740296,0.9238226519926657,9.60342110346852
3.0,0.0,868.4636116234796,0.919264090343222,9.374951278535926
4.0,0.0,1077.2050227836405,0.9141819855303377,9.126073155963955
5.0,0.0,1263.3614372871664,0.9085542055661701,8.856574996184257
6.0,0.0,1427.7410704058768,0.902359198302238,8.566249755355102
7.0,0.0,1571.2231724099797,0.8955761855861425,8.25489566338827
8.0,0.0,1675.6998664507473,0.8883977517155611,7.934172416195598
9.0,0.0,1473.0164193825535,0.8843109854894466,7.7972949708139625
10.0,0.0,1289.4574455637837,0.8801183644507679,7.663907314358175
11.0,0.0,1123.9590672403235,0.8758205520355294,7.533932079639336
12.0,0.0,975.4247610679411,0.8714184332309017,7.407294990725656
13.0,0.0,842.7396311758733,0.8669131227723249,7.283924329357544
14.0,0.0,724.7795863264997,0.8623059730909233,7.163750539387002
15.0,0.0,620.4214617033865,0.85759858208707,7.046705933754679
16.0,0.0,528.5567874663426,0.8527927981437498,6.932724470254815
17.0,0.0,448.10443650931927,0.8478907271637492,6.821741603872216
18.0,0.0,378.01213374558694,0.8428947338201499,6.7136941441836475
19.0,0.0,317.2698173991973,0.8378074458870742,6.608520184932638
20.0,0.0,264.915580579897,0.832631755570219,6.506159041127877
21.0,0.0,220.0400026775606,0.8273708197030066,6.406551204989934
22.0,0.0,181.79074328158842,0.8220280589045799,6.30963831819584
23.0,0.0,149.3755863908033,0.8166071555820998,6.215363154339747
24.0,0.0,122.06365114213078,0.8111120504104915,6.123669606218253
25.0,81.95245500795447,99.18715390897813,0.8055469382219003,6.034502682859629
26.0,3077.859636361584,80.14060039276744,0.7999162620956176,5.947808505484629
27.0,8144.187338975616,64.42878512584579,0.794224706417172,5.863534306836239
28.0,14524.8038479068,54.40086641089522,0.7884771887439976,5.7816284315363555
29.0,20695.11353771163,96.18429950348373,0.7826788504933198,5.702040336679636
30.0,21756.6129322177,461.1192986324809,0.776835046553165,5.624720592518339
31.0,19159.219699448735,1769.2071815154136,0.7709513338188065,5.5496208825890925
32.0,14814.415279528039,4451.225512843237,0.7650334587202692,5.476694003087745
33.0,8986.086767904677,8029.123610228353,0.7590873438376492,5.405893861482175
34.0,2808.6078264692296,11320.08468435448,0.7531190736118857,5.3371754739633275
35.0,0.0,11654.584899575852,0.7471348793186535,5.270494962199457
36.0,0.0,8930.784327422216,0.7411411233096002,5.205809549424903
37.0,0.0,6749.14570567338,0.7351442825619123,5.143077557652573
38.0,0.0,5068.226829417895,0.7291509314706438,5.0822584138645235
39.0,0.0,3781.8545820043496,0.7231677222653181,5.023312694081997
40.0,0.0,2804.078300331337,0.7172013577052814,4.966202328920127
41.0,522.6196321872978,2065.8979869583222,0.7112585328768195,4.910891450645027
42.0,3929.8288512750887,1512.3829284873855,0.7053457553267444,4.857349701874084
43.0,9731.690587287083,1100.1640349584504,0.6994687004606511,4.805564678386504
44.0,15971.211010750252,799.5894436688686,0.6936298520443699,4.75558712571769
45.0,20857.042969144004,719.8540081314924,0.6878200383840962,4.707689506789204
46.0,24528.301780441456,1562.1443350057302,0.6819890937304536,4.662901917871922
47.0,25707.6863092562,3933.3803119119684,0.6759487247126572,4.624742540308482
48.0,23003.60549104338,6820.449994202107,0.6690742991456504,4.604412779124929
49.0,19609.033304993405,8629.819414919972,0.6595319372777909,4.634081650071758
50.0,17924.47523551179,8959.546878046409,0.6430830736433845,4.7880206712478905
51.0,18417.928396885545,8405.858118333805,0.6140698931004914,5.171341241860124
52.0,21333.81105102585,7032.272145178194,0.5716896748255755,5.821977207486207
53.0,25552.341755896232,5323.955932942262,0.5220931285854681,6.663177451370816
54.0,29090.840375602238,3805.256785095364,0.47162379463688847,7.598959967845266
55.0,30841.325556474305,2637.6887377600706,0.4234869806896016,8.57384723399033
56.0,30807.506317371066,1796.6806848356405,0.37880487154500975,9.563952691329671
57.0,29496.60283154235,1210.1096374513472,0.3378296956349512,10.559959394409894
58.0,27446.43857239827,808.346416411037,0.3004987238419941,11.5582981586604
59.0,25057.589137317707,536.3695195874409,0.2666389020786281,12.557584097046362
60.0,22585.28777256485,353.8333241923208,0.23603911660097543,13.557266635938158
61.0,20177.212591070183,232.1832547033621,0.20847656604524403,14.557120582068244
62.0,17911.61140507737,151.6183634939854,0.18372747866919537,15.5570414442104
63.0,15824.894581035687,98.58176967947179,0.16157198063322092,16.556966251277327
64.0,13929.31264402846,63.83863914625417,0.1417961471941564,17.55689105835328
65.0,12223.570409044009,41.18463940519272,0.1241945894011236,18.55681586543829
66.0,10699.11473370433,26.478396767515203,0.10857162121463347,19.556740672532314
67.0,9343.766917950787,16.97142085595425,0.09474209485316078,20.55666547963531
68.0,8143.801964380141,10.84949963405284,0.08253197778779295,21.556590286747298
69.0,7085.130224602643,6.921539064047406,0.07177870929949152,22.556515093868295
70.0,6153.9609639260125,4.409493216156389,0.06233134626499878,23.556439900998292
71.0,5337.165915050257,2.8075732813778065,0.05405052564734437,24.556364708137288
72.0,4622.468043656358,1.7884903527809828,0.046808271181943764,25.556289515285272
73.0,3998.527343147687,1.1413828585875936,0.04048766948271267,26.556214322442244
74.0,3454.9651686623406,0.7309534439920845,0.03498243951943059,27.556139129608205
75.0,2982.3516096129356,0.47071976471523697,0.03019641979213887,28.556063936783147
76.0,2572.170536627293,0.3055953707569539,0.02604299496591314,29.555988743967063
77.0,2216.7713252849085,0.20060277186812386,0.02244448163906594,30.55591355115995
78.0,1909.3130128203186,0.13359473333045993,0.01933149104912632,31.55583835836181
79.0,1643.7045976076597,0.09058087903898444,0.016642283305543803,32.55576316557264
80.0,1414.5440528764627,0.06273987568530812,0.014322126122156643,33.55568797279242
81.0,1217.0578206712864,0.04451664195103461,0.012322668477025846,34.555612780021164
82.0,1047.041997258688,0.03241483989601875,0.010601337199104428,35.55553758725888
83.0,900.8061354349107,0.024233204468519367,0.00912076340499758,36.55546239450557
84.0,775.1201349415968,0.018583813518201632,0.0078482421460341,37.555387201761214
85.0,667.1646443404867,0.014589100480200973,0.0067552287376987505,38.55531200902578
86.0,574.4852164113029,0.01169170428751569,0.005816873749010576,39.5552368162993
87.0,494.9502184075142,0.009535289723876293,0.005011596389754583,40.55516162358175
88.0,426.7124639169992,0.007889952878533415,0.0043206957982179755,41.555086430873146
89.0,368.17457732023774,0.006605584931062636,0.0037280002465124294,42.55501123817344
90.0,317.9578287672891,0.005582678796290423,0.0032195515548623745,43.55493604548265
91.0,274.8741881242063,0.004754035430589708,0.0027833221358921135,44.554860852800786
92.0,237.90162360289204,0.004073300733109923,0.002408964910326745,45.55478566012783
93.0,206.16208960187976,0.003507724080831531,0.002087590459575374,46.55471046746378
94.0,178.90217106602776,0.0030335780473787328,0.0018115710779745722,47.554635274808646
95.0,155.47611237972268,0.002633235365947577,0.0015743689676503889,48.55456008216242
96.0,135.33102057143162,0.002293283554538289,0.0013703864458692804,49.554484889525085
97.0,117.99373549681059,0.0020032871128595245,0.001194833027723683,50.554409696896656
98.0,103.05976346881916,0.0017549752279581528,0.001043613397694642,51.55433450427713
99.0,90.18337347985828,0.0015416838333908057,0.0009132271496779966,52.554259311666485
100.0,79.069243242237,0.0013579740954060737,0.000800684215938012,53.55418411906472
101.0,69.4651535399053,0.0011993595808290425,0.0007034309078385683,54.55410892647185
102.0,61.1557315248798,0.0010621088842070621,0.0006192865749401824,55.554033733887835
103.0,53.957031486577726,0.0010387530079757124,0.0005463908881028339,56.55393138850986
104.0,47.71185455561427,0.001332073480943453,0.00048315624651494923,57.553713393340416
105.0,42.286194056186034,0.0021553940595579702,0.00042822836816642883,58.55323107550886
106.0,37.56580858409965,0.004029138074976311,0.000380455681655185,59.552127046218544
107.0,33.45388103591979,0.008172388895043977,0.0003388666763963901,60.54951440298063
108.0,29.870260150045777,0.017451306842030126,0.0003026607451770963,61.54313257284297
109.0,26.754745293844497,0.03865538176873838,0.0002712252075881351,62.527105340634876
110.0,24.082303478210395,0.0875573484284883,0.00024420717162530764,63.486150522496715
111.0,21.91295437383116,0.19692809730659633,0.00022167979790871576,64.3824986986294
112.0,20.51848897125766,0.4105371838357657,0.0002043220173541195,65.13825696979869
113.0,20.516803464770554,0.707018221652716,0.00019301806349761893,65.65393850344594
114.0,22.530309805928376,0.9548108449853947,0.00018752791123494993,65.9025985463506
115.0,26.723389171367128,1.1518518101516726,0.00018663159233048467,65.9421391870761
116.0,33.979734349094635,1.570790269401679,0.00019144506764019034,65.72584843666324
117.0,50.94448070732341,6.324799998951341,0.0002634686935945389,62.790618851976596
118.0,157.6116924217172,9.972381689182345,0.633590616364585,4.9032160466500825
119.0,289.70886930823883,10.77308743838262,0.6578951643093848,4.64447977032321
120.0,467.746429008712,12.66513616118775,0.6683326412623516,4.604259813632039
121.0,740.066597179203,17.081162073215992,0.6752257715725642,4.621475517712027
122.0,1356.361859437456,49.028302160627874,0.6810987249333955,4.6570303637270545
123.0,3513.442338443214,110.31196280596379,0.6866945760779667,4.6992393479260315
124.0,7498.609198783066,177.95357377377525,0.6922368928099403,4.744472613536516
125.0,13062.935025326118,267.92984656993684,0.6977893257229341,4.791619661037931
126.0,18974.387909963374,412.65433061336586,0.7033664616460641,4.840358150068737
127.0,21849.193617388235,837.6567550881456,0.7089681662823,4.890607696915113
128.0,19219.514971785833,2185.3931986832263,0.7145900294010913,4.942360514048547
129.0,15075.212985630944,4404.640097153999,0.7202264662304914,4.995630209665209
130.0,9959.031711280822,7250.293766731497,0.7258716199820873,5.050436722218506
131.0,4544.584988432156,10013.991836285964,0.7315196243840203,5.1068020012951525
132.0,626.1135423225888,11086.732447506112,0.7371646851006899,5.164748794721382
133.0,3.1250488516249013,9180.848452085156,0.7428011111037732,5.224300308161661
134.0,1.5634893262288165,7225.365169745298,0.7484233323046195,5.285480102700988
135.0,1.4897622019455645,5719.72084763137,0.7540259131634743,5.348312055077014
136.0,1.422282459430414,4554.830996953597,0.759603564915398,5.412820333810418
137.0,1.3604363001343664,3648.566757909499,0.7651511567363327,5.479029378226734
138.0,1.3036805840422043,2939.636763013344,0.7706637262369392,5.54696387799176
139.0,1.2515316382259567,2382.0638937666413,0.7761364890955518,5.616648751947735
140.0,1.2035580733136775,1941.1845990725851,0.7815648478480547,5.688109126286819
141.0,1.159374538846808,1590.7363967397469,0.7869443998368783,5.761370312190831
142.0,1.1186362792162432,1310.721678640566,0.7922709442164206,5.836457782746649
143.0,1.081034379306486,1085.8388074858237,0.7975404880047368,5.913397149511117
144.0,1.0462916206562438,904.3229219190207,0.8027492512303676,5.992214138775284
145.0,1.0141588523638145,757.0855430392568,0.8078936711065414,6.072934567830238
146.0,0.9844118100075364,637.0719817791617,0.8129704051871043,6.155584321248974
147.0,0.9568483320726605,538.7812747288212,0.8179763336472081,6.240189327887065
148.0,0.9312859120910963,457.90418370391745,0.8229085605643482,6.326775538650363
149.0,0.9075595462440781,391.04963222850813,0.8277644142516978,6.415368905584027
150.0,0.8855198417006035,335.5374966512761,0.8325414467651778,6.505995363220551
151.0,0.8650313455727412,289.24010807434763,0.8372374324375357,6.598680812350223
152.0,0.8459710709875298,250.4610523480173,0.8418503655692056,6.693451107382882
153.0,0.8282271958493695,217.8422284296117,0.8463784573906988,6.790332048945482
154.0,0.811697913104837,190.2917763393492,0.8508201322151331,6.889349381842987
155.0,0.7962904066922397,166.92815354283556,0.8551740226625678,6.990528800674471
156.0,0.781920001297679,147.0370702489194,0.8594389646418956,7.093895966422391
157.0,0.7685101499953855,130.0371741068535,0.8636139910654773,7.199476532876913
158.0,0.7560032111971183,115.45367978332519,0.8676983255656516,7.30729618998511
159.0,0.7444970352075978,102.89731294542513,0.8716913752306017,7.417380725459611
160.0,0.7355971547111274,92.04772268722782,0.8755927229907302,7.529756108822188
161.0,0.7432724328847109,82.64026405781429,0.8794021193280296,7.644448602402756
162.0,0.8643111304001989,74.45558272591083,0.8831194737458713,7.761484909188897
163.0,1.6449451088210878,67.31123709286939,0.8867448457662016,7.88089236232449
164.0,5.59564055605702,61.05495617599089,0.8902784354464871,8.002699165667813
165.0,22.10492947715152,55.559223227665704,0.8937205735338085,8.126934697424298
166.0,79.741354412464,50.716905648839514,0.8970717112472997,8.253629890327778
167.0,249.24996399398648,46.43774891281126,0.9003324096891201,8.382817704712433
168.0,673.0504093777928,42.64579915071954,0.9035033288801062,8.514533714166145
169.0,1582.988614156109,39.2790592507848,0.9065852164068239,8.648816827357383
170.0,3278.744762610121,36.29873689190466,0.9095788956584376,8.78571017426085
171.0,6048.24653785529,33.74008258093526,0.9124852536185564,8.925262190250521
172.0,10033.263932356234,31.917573861841856,0.9153052281828463,9.067527938780916
173.0,15062.959953383022,32.102442862123844,0.9180397949510589,9.212570719417007
174.0,20498.504696066193,38.36877143653672,0.9206899533625402,9.360464014098909
175.0,25023.393738304916,61.713819506012676,0.9232567122441927,9.511293842283795
176.0,26991.86594368447,127.44326780568308,0.9257410745816401,9.665161595136158
177.0,26977.592548364806,285.3490883243738,0.9281440214810036,9.82218743691037
178.0,26476.001232310755,619.1713312510282,0.9304664952428214,9.982514370948428
179.0,25656.86297028397,1248.7082542141259,0.93270938148734,10.14631307913749
180.0,24365.744231172706,2317.579601601344,0.9348734902918991,10.31378765379959
181.0,22441.913382317125,3963.615601032807,0.9369595363376925,10.485182346744566
182.0,19771.36470837087,6274.7133600383295,0.9389681181173846,10.660789462311206
183.0,16343.086256400797,9236.657071862002,0.9408996963856694,10.840958532197364
184.0,12304.490122576623,12683.45562327878,0.9427545720125718,11.026106825864666
185.0,8001.601357035379,16263.806473363667,0.9445328638043362,11.216731304185265
186.0,4034.5445733881375,19392.582401205458,0.9462344868321302,11.413421992116154
187.0,1279.3259232855085,21237.049290803738,0.9478591322483997,11.616876652390939
188.0,186.3468762096244,21414.03394098877,0.9494062498615837,11.8279165007609
189.0,11.34711723798701,20719.99438969059,0.9508750351634186,12.04750248140475
190.0,3.1940065813077982,19919.56211789888,0.9522644229948952,12.276751346677516
191.0,3.250457563893301,19168.163032797216,0.9535730905309966,12.516950424397423
192.0,11.248660912198003,18468.799337756183,0.9547994727398392,12.769569541156955
193.0,133.76659691067707,17817.031969390067,0.9559417938138485,13.036268107082826
194.0,889.7976488612145,17208.7945467548,0.9569981181582304,13.318894933318418
195.0,3295.484434480962,16640.42641339234,0.9579664241581591,13.619478012317447
196.0,8037.9108054035505,16108.62686616273,0.9588447029503632,13.940201399362449
197.0,14678.19124408484,15610.414977302087,0.9596310826516262,14.283366636244233
198.0,21979.616583432296,15143.094347387447,0.9603239756299287,14.651336996242515
199.0,28758.043636086757,14704.222199204207,0.9609222430464373,15.046464393984976
200.0,34351.24009266645,14291.582173319362,0.9614253666016721,15.471000966285942
201.0,38602.952542682775,13903.160463307524,0.9618336144066354,15.926999852733667
202.0,41654.22636445739,13537.124619180235,0.9621481831946442,16.41621276718328
203.0,43755.59507774691,13191.804898253718,0.9623713006319186,16.93999336622882
204.0,45158.76409525471,12865.677656564641,0.9625062715252616,17.499217400877317
205.0,46072.409152869746,12557.350793326596,0.9625574600782039,18.094228097474748
206.0,46653.48654522866,12265.550685939403,0.9625302031326514,18.724814410828262
207.0,47013.51724449692,11989.11064771097,0.962430662261775,19.39022427116803
208.0,47228.96448913989,11726.960591093888,0.9622656271852131,20.08921130030894
209.0,47351.048598412184,11478.11774502215,0.9620422908873433,20.820108868248564
210.0,47413.49172770548,11241.678703098714,0.9617680167010252,21.580920848721007
211.0,47438.281041265735,11016.811777157996,0.9614501175234302,22.369422803682586
212.0,47439.61862106049,10802.750463255621,0.9610956632843646,23.18325967925241
213.0,47426.60948464005,10598.787588969133,0.9607113260453203,24.020034980991735
214.0,47405.05307836795,10404.270068037633,0.9603032659788022,24.877386368113783
215.0,47378.61259197781,10218.594722700169,0.9598770486136868,25.753047799629517
216.0,47349.62053460041,10041.202104469334,0.9594376365776798,26.644885423706068
217.0,47319.516640337,9871.574331912258,0.9589893676881219,27.55092857162894
218.0,47289.18222143838,9709.23210111392,0.9585359547889286,28.469390540112993
219.0,47259.165542097966,9553.728609229453,0.9580805748302101,29.39865604827222
220.0,47229.778971216874,9404.649828466634,0.9576258667041043,30.337293370073077
221.0,47201.198206940455,9261.611428631011,0.9571739863735159,31.28404535373825
222.0,47173.516415266495,9124.252720670813,0.9567267214885772,32.23779362102112
223.0,47146.76524781465,8992.24202883978,0.9562854311746012,33.19758924208111
224.0,47120.94957493621,8865.264883844144,0.955851235288068,34.162581398207124
225.0,47096.049813076635,8743.032815382821,0.9554249207151208,35.13206171566654
226.0,47072.042788349885,8625.271070060224,0.9550071113400628,36.105394072861685
227.0,47048.9033633797,8511.7282327025,0.9545981844757329,37.08205712389674
228.0,47026.59649849739,8402.164755572308,0.954198405057684,38.06158422989536
229.0,47005.054288556676,6538.008199890093,0.9538078931863624,39.04358190204864
230.0,46984.18954787796,2405.173388407497,0.9534266651260004,40.02771254155594
231.0,46964.02337612653,884.8045144792986,0.9530546527650204,41.01368667347174
232.0,46944.515767365905,325.49797643841976,0.9526917202958435,42.00125614144008
233.0,46925.62890726227,119.7427723680146,0.9523376784245549,42.99020811316956
234.0,46907.32703241867,44.0504607933547,0.9519922962107864,43.980359925679615
235.0,46889.576298313,16.20510862448544,0.9516553108806065,44.97155466679741
236.0,46872.34465527456,5.9614832285195805,0.9513264359148975,45.96365739772417
237.0,46855.601731969175,2.1931027951211868,0.9510053676785319,46.95655192998141
238.0,46839.31872589539,0.8068066880541805,0.9506917908204989,47.950138079207115
239.0,46823.46830042448,0.29682120141381557,0.9503853826429143,48.944329327404326
240.0,46808.02448794559,0.10920901862702911,0.9500858166079417,49.93905083392214
241.0,46792.96259870379,0.04019015278472912,0.9497927651261607,50.93423774344285
242.0,46778.25913494314,0.014798932782515335,0.9495059017477032,51.929833746448466
243.0,46763.89170999042,0.005457321460503439,0.9492249028583034,52.925789854021886
244.0,46749.8389719361,0.002020028739118451,0.9489494489659877,53.92206335442592
245.0,46736.08053158986,0.0007548597644986403,0.9486792256501495,54.91861692375494
246.0,46722.59689440537,0.00028881917954817857,0.9484139242328888,55.9154178671198
247.0,46709.369396088085,0.00011681366619316261,0.9481532422225135,56.91243747041805
248.0,46696.38014161493,5.302894117508427e-05,0.9478968835706596,57.90965044577922
249.0,46683.6119474097,2.9105579083270607e-05,0.9476445587774338,58.907034456372116
250.0,46671.04828643258,1.9892657146387296e-05,0.9473959848730508,59.90456970845449
251.0,46658.67323595389,1.613482059227329e-05,0.9471508852994849,60.90223860040004
252.0,46646.47142779799,1.4424480590378602e-05,0.9469089897115631,61.90002542001801
