Time,J,A,S,tau
0.0,100.0,100.0,0.5560611891665244,7.4074074074074066
1.0,92.58272406471445,92.03771643811952,0.5568354599519869,7.416705759840531
2.0,85.65150678670588,84.68393687904327,0.5573509392894339,7.422860899454749
3.0,79.18198798205904,77.89693259338057,0.5576030089086127,7.425855397888175
4.0,73.14799212622748,71.63468200430624,0.5575880184882358,7.425679482394708
5.0,67.52484267361149,65.8581676752121,0.5573027473389822,7.422324293013317
6.0,62.28962527281234,60.531165702619965,0.5567444223706501,7.415781890587602
7.0,57.421659753310614,55.62004103610363,0.5559107358632206,7.406045266395399
8.0,52.903306709864964,51.09361342835408,0.5542759425195051,7.3867895814899365
9.0,48.720817829286915,46.922817879134726,0.5522649992418592,7.363136166638439
10.0,44.86592850746755,43.08084382133,0.5502509604198957,7.3395814102569625
11.0,41.336899291005786,39.54282846323872,0.5482344901481422,7.316131983393066
12.0,38.13961067628635,36.285853409890535,0.546216257188758,7.292794448266015
13.0,35.28787455234463,33.288972160809,0.5441969346027421,7.269575257869496
14.0,32.802641155097305,30.533339693690507,0.5421771993850659,7.246480755311643
15.0,30.709840881665308,28.00252825747924,0.5401577321112873,7.223517172715328
16.0,29.036838560704858,25.68306254283005,0.538139216577591,7.200690630643082
17.0,27.807245610599733,23.56503668225148,0.5361223394070922,7.17800713809116
18.0,27.034483719945165,21.64278777210616,0.5341077896651916,7.1554725920770235
19.0,26.714839983346852,19.915522108870334,0.5320962584922364,7.1330927767055385
20.0,26.82134961825838,18.3875472594538,0.5300884387111912,7.110873363970749
21.0,27.298247662020152,17.06791327947199,0.5280850244013882,7.088819913396564
22.0,28.060032714026292,15.9694838871353,0.5260867105264442,7.066937872018842
23.0,28.9947959681359,15.107163208199497,0.5240941925318262,7.045232574693752
24.0,29.972204864776216,14.495335034631946,0.5221081659322815,7.023709244397559
25.0,30.855620742965666,14.14468703159294,0.520129325910198,7.002372992673564
26.0,31.51566476138578,14.058626593606732,0.5181583669039188,6.981228820164885
27.0,31.843479744582357,14.2297619252018,0.516195982196899,6.960281617235386
28.0,31.762207469935017,14.63716733629611,0.5142428635057443,6.939536164768993
29.0,31.23569236893712,15.245234803691481,0.5122997005656121,6.918997135107421
30.0,30.273026101732853,16.004765797898845,0.5103671807115131,6.898669093091534
31.0,28.927174678256648,16.85640788684827,0.5084459884593571,6.878556497286805
32.0,27.28700868231962,17.73575549714587,0.5065368050828435,6.858663701374848
33.0,25.464391123185198,18.579001062176967,0.5046403081874801,6.838994955776695
34.0,23.579491765190056,19.32825588696324,0.5027571712758042,6.819554409485358
35.0,21.747115888728793,19.93625339923413,0.500888063309591,6.800346112143548
36.0,20.065723540318224,20.37035636962386,0.49903364826104524,6.78137401641943
37.0,18.61012170045886,20.615312293975084,0.49719458465613026,6.762641980808302
38.0,17.42833755517081,20.67381352878972,0.495371525099305,6.744153772740892
39.0,16.5424946148434,20.564296107370048,0.4935651157884672,6.725913072144259
40.0,15.95275394132187,20.316583438111845,0.4917759959926558,6.707923475459991
41.0,15.642425376835508,19.96674148020837,0.49000479754800264,6.690188500619711
42.0,15.582618128429667,19.552525154554115,0.48825214426143015,6.6727115920383655
43.0,15.735944273146545,19.11000756703243,0.4865186513396646,6.655496126919926
44.0,16.05921738848761,18.671459218545042,0.4848049247537451,6.6385454220202496
45.0,16.505671202348648,18.264177853144446,0.4831115605688549,6.621862741394679
46.0,17.027064652554746,17.909926426033284,0.4814391442287564,6.60545130504661
47.0,17.575925367450647,17.6247160446584,0.47978824979017853,6.5893142985426225
48.0,18.107949743442198,17.418772662343592,0.4781594391113882,6.573454883627468
49.0,18.58443219248542,17.29662689522877,0.4765532609909614,6.557876209804945
50.0,18.974447075019444,17.25734150952611,0.4749702502583547,6.5425814268387095
51.0,19.25650173013823,17.294941957540672,0.47341092684154257,6.5275736980244
52.0,19.41955934806693,17.399084356237125,0.4718757946912257,6.512856214397419
53.0,19.462909838538227,17.55602874087513,0.47036534090577287,6.498432208850087
54.0,19.39529905344203,17.749781394139124,0.46888003462022826,6.484304970873405
55.0,19.23331128877652,17.963415956719192,0.4674203259736179,6.470477861059106
56.0,18.999073121742395,18.180376743594344,0.4659866453157508,6.456954323864943
57.0,18.71780762641623,18.385692460247522,0.46457940213506577,6.443737900586181
58.0,18.415326565617903,18.56694588261993,0.4631989844740414,6.43083223856123
59.0,18.115832395185624,18.714981002817808,0.4618457581946435,6.418241099011463
60.0,17.840187874179332,18.82422165193841,0.4605200667738583,6.405968359522528
61.0,17.604734271758645,18.89269575696027,0.4592222310634503,6.3940180133862805
62.0,17.42070160666497,18.921695266913016,0.45795254969799387,6.382394161635134
63.0,17.29414232492665,18.915242568053728,0.4567112996444182,6.371100999617818
64.0,17.226204387955022,18.879367378808723,0.4554987373349224,6.360142795074329
65.0,17.213896439985337,18.82135728297061,0.45431510036496203,6.349523857681607
66.0,17.25087607186627,18.749017396087467,0.45316060967514915,6.339248499468195
67.0,17.328379343148256,18.67001717586207,0.45203547235706604,6.329320985166274
68.0,17.436167663064897,18.59136048440491,0.4509398850952039,6.319745472967941
69.0,17.563417758418865,18.518987651577522,0.44987403821183414,6.310525944667805
70.0,17.69954156166183,18.457520743896776,0.4488381203022714,6.301666127194771
71.0,17.834864591269888,18.410137706359688,0.4478323233927773,6.293169405772356
72.0,17.961158657105567,18.37855886037979,0.4468568485694074,6.28503872947427
73.0,18.072021355625072,18.363137383212546,0.4459119119641482,6.277276511753724
74.0,18.163071688874556,18.36303239373704,0.4449977508600823,6.269884530305972
75.0,18.231959221209237,18.376432904839284,0.4441146299852296,6.262863823498677
76.0,18.278277883890542,18.400834094461892,0.44326284684909933,6.2562146068406985
77.0,18.303268360757844,18.433297308439794,0.44244273811863344,6.249936164992429
78.0,18.309465686342605,18.470731177544412,0.44165468402818336,6.244026786604037
79.0,18.300339723065182,18.51013849622316,0.4408991119727971,6.238483709795002
80.0,18.2799006089826,18.54881405787853,0.4401764990965276,6.233303084196582
81.0,18.252306572531968,18.584497331452194,0.4394873737117394,6.2284799518202405
82.0,18.22150887081489,18.61547726205502,0.43883231549298723,6.224008246890844
83.0,18.191020126009867,18.64063246339237,0.4382119527383601,6.219880851074139
84.0,18.16372033941307,18.659419004659366,0.4376269580954607,6.216089670744495
85.0,18.141751803864157,18.67182398470023,0.4370780428093831,6.212625738009494
86.0,18.126455266262234,18.678277062476745,0.43656594893712714,6.2094793480433275
87.0,18.118320155985742,18.67957048785729,0.43609144045387005,6.206640185353375
88.0,18.11732702905817,18.676719878477268,0.4356552904936225,6.204097598253797
89.0,18.12266516855853,18.670859469828777,0.43525826881442437,6.201840727866
90.0,18.1333095788738,18.66316783673722,0.43490113000682096,6.199858795612229
91.0,18.14781311505719,18.65474095525271,0.43458459628640567,6.198141311008028
92.0,18.164669473153804,18.6465587703452,0.43430934479786537,6.196678341417703
93.0,18.182309459778104,18.639426983734243,0.4340759972725641,6.1954606630977045
94.0,18.19929349736649,18.633927031028552,0.43388509436487255,6.194480162445219
95.0,18.214321322267953,18.63044294676002,0.43373709826880513,6.193729836650489
96.0,18.22636027223854,18.62914911790424,0.4336323746426665,6.193204058011105
97.0,18.234653148920078,18.630020901396517,0.4335711743835706,6.192898868858912
98.0,18.238687535398526,18.632903942075732,0.43355365976410143,6.192811605513257
99.0,18.2382956172243,18.637489490388724,0.43357983998521327,6.192941834401594
100.0,18.233495585175508,18.643420025954672,0.4336496579751107,6.193290099785857
101.0,18.224538959753005,18.650276927526217,0.43376288740607816,6.193859407459981
102.0,18.21178662574256,18.657624872789007,0.43391922799130167,6.194653810028793
103.0,18.195808056324726,18.665075294217203,0.4341182749736879,6.195678891153518
104.0,18.177055832509772,18.672258441209088,0.4343594981268531,6.196941949614082
105.0,18.156184898666762,18.678867191926795,0.43464233035012567,6.198450821888109
106.0,18.13371332735667,18.684692964052342,0.43496608976735535,6.200214830264833
107.0,18.110044881116544,18.689547234168923,0.4353300638431734,6.20224366713424
108.0,18.085746794055705,18.693374643881533,0.43573349105606235,6.204547571820403
109.0,18.060965021221097,18.69613463143622,0.4361755754735368,6.207137028822404
110.0,18.03613358760349,18.697876935964402,0.43665551254509677,6.2100226049935126
111.0,18.011311050297806,18.698686952310243,0.4371725023835883,6.213214283685801
112.0,17.986335514081606,18.69862874938343,0.43772574911147977,6.216721849810718
113.0,17.96140337110194,18.697860260418683,0.43831446912491284,6.220554800754502
114.0,17.936439877941496,18.696514159972857,0.43893794506211087,6.224721012525167
115.0,17.911169234826435,18.69468386655207,0.4395954746077263,6.229227989273274
116.0,17.88559746373664,18.69252039585049,0.4402863839982901,6.2340826739874515
117.0,17.85959449456043,18.690111799772886,0.4410100976610495,6.239289867598269
118.0,17.832897085934633,18.687508834213443,0.4417660587442296,6.24485394301398
119.0,17.80547483191994,18.684799493271363,0.4425537448976419,6.250778607803927
120.0,17.77723609578736,18.68200429834495,0.44337273156347856,6.257065439529923
121.0,17.747996750813748,18.679112487432008,0.4442226107633473,6.26371562743916
122.0,17.717793653062277,18.676145377766474,0.4451030055481669,6.270729745226383
123.0,17.686609018817734,18.673074695849348,0.4460136129596541,6.2781066340500145
124.0,17.654342103261943,18.669848427727914,0.44695414090019847,6.285844847513116
125.0,17.621156019932535,18.666459252475175,0.44792431738793237,6.293942535512104
126.0,17.587088924600227,18.662866148451783,0.4489239129307325,6.302396564737316
127.0,17.552054344862366,18.659003396361644,0.4499527034233912,6.311203570557529
128.0,17.516106989589417,18.654830082598316,0.45101046915619575,6.320360126876848
129.0,17.479572621852956,18.65036331033247,0.4520970020510171,6.329862217789747
130.0,17.442372285567956,18.645560145437713,0.4532120848308847,6.339705500915302
131.0,17.404398392269826,18.64037297070257,0.4543554994342001,6.3498856305547715
132.0,17.365770070509896,18.63479687724297,0.45552702985170934,6.360398207450831
133.0,17.326803467561465,18.628882016712147,0.45672643456544987,6.37123874216903
134.0,17.287378067042944,18.62261067546239,0.4579534462178287,6.3824028134381585
135.0,17.24736227065014,18.615963228206382,0.45920779708337206,6.393886002177173
136.0,17.206903995156278,18.608973684723104,0.46048921559475214,6.405683899795611
137.0,17.166207068736597,18.601696628959793,0.46179738164077216,6.417792343565858
138.0,17.12513257867991,18.594126578706355,0.4631319521567673,6.430207299048592
139.0,17.08354242117018,18.58625820818803,0.46449258408042227,6.44292473185833
140.0,17.04160638452769,18.578143156314404,0.46587892400947334,6.455940677832693
141.0,16.999428302266832,18.569816986949323,0.46729056644244404,6.46925147144138
142.0,16.956887304668935,18.561272138305284,0.4687270916534847,6.482853521633808
143.0,16.913872277812754,18.552502873476676,0.47018807993410927,6.49674323797713
144.0,16.870572684952567,18.543556709242335,0.47167309619563885,6.5109171208248355
145.0,16.827039851718922,18.53444733974337,0.47318166234092185,6.5253718545795945
146.0,16.78318529390962,18.525161024257226,0.4747132931537172,6.540104145766002
147.0,16.73894286286743,18.515688108462637,0.47626750320726435,6.555110703577812
148.0,16.69451899420013,18.50606688259654,0.4778437893832907,6.570388298643549
149.0,16.649940000201,18.496298609900315,0.47944161828706705,6.585933741087571
150.0,16.605147185365922,18.486368525313402,0.48106045359032007,6.601743838003175
151.0,16.560122433242274,18.476269471571552,0.48269975852973396,6.617815401962336
152.0,16.51509150518086,18.466040594777162,0.48435897947226914,6.6341452501716
153.0,16.470058762623022,18.45568049827363,0.48603754146725797,6.650730122926253
154.0,16.424975362394147,18.445177887993573,0.48773486823427076,6.667566749567084
155.0,16.379797037348887,18.434522402402774,0.48945038344861685,6.6846518603455785
156.0,16.334711405903477,18.423752248090675,0.491183501713964,6.7019821797262935
157.0,16.289810456769096,18.41289001660273,0.49293361841537314,6.719554259942045
158.0,16.245056032078637,18.401932473633956,0.49470012657540724,6.7373645997829765
159.0,16.200409973964987,18.390876384879355,0.49648241921662917,6.755409698039227
160.0,16.15587778086536,18.37972912109149,0.49827988801970957,6.773686059580443
161.0,16.111652354651483,18.36854513896147,0.5000919105447224,6.79219007787929
162.0,16.0677411971283,18.3573361145723,0.5019178579670044,6.810917921862169
163.0,16.02412020277829,18.34610618655085,0.5037571016804714,6.829865743670622
164.0,15.98076526608393,18.334859493523993,0.5056090130790389,6.8490296954461956
165.0,15.937680452199897,18.323609610950736,0.507472961689218,6.8684059394514705
166.0,15.89498823690409,18.312407800304022,0.5093483046975537,6.887990496658952
167.0,15.852706315435961,18.301267450809746,0.5112343999497105,6.907779093040474
168.0,15.810835054915028,18.29019598465776,0.5131306060718775,6.927767433271922
169.0,15.76937482246081,18.279200824037932,0.5150362816902438,6.947951222029181
170.0,15.728325985192825,18.268289391140115,0.5169507854309981,6.968326163988137
171.0,15.687698764682265,18.257482968143346,0.5188734701944866,6.988887930437171
172.0,15.647529124094362,18.246812631745275,0.5208036838569227,7.009631887961026
173.0,15.607851635975692,18.236289052246192,0.5227407820417019,7.030553255915087
174.0,15.568700765167812,18.2259226351928,0.5246841204774014,7.051647253086871
175.0,15.530110976512281,18.215723786131807,0.526633054892598,7.072909098263892
176.0,15.492084593542307,18.205703919779882,0.5285869382367854,7.094334003922029
177.0,15.454562543938854,18.19587841834063,0.5305451204480722,7.115916945540959
178.0,15.417592141138279,18.18626159334904,0.5325069632191802,7.1376526692062034
179.0,15.381228888443786,18.176867578929617,0.5344718290407596,7.159535913818754
180.0,15.34552828915858,18.167710509206856,0.5364390804034608,7.1815614182796015
181.0,15.310523588303264,18.158802812180234,0.5384080789894243,7.203723913165898
182.0,15.27611519902604,18.150147463152447,0.540378186261357,7.226017924528364
183.0,15.242330233855451,18.141758366341467,0.5423487759739966,7.248437767245661
184.0,15.209225918603135,18.13365183259096,0.5443192235975752,7.270977746555785
185.0,15.176853104283918,18.125843466312258,0.5462889043733572,7.293632168093797
186.0,15.14512128478799,18.11833308269664,0.548257192906404,7.316395247399908
187.0,15.114030831878658,18.111130253894938,0.5502234782572655,7.3392609451281094
188.0,15.083645721960698,18.104251553996413,0.5521871534294563,7.362223181038376
189.0,15.054029878121924,18.097713550959327,0.5541476114246734,7.385275874898451
190.0,15.025111509540283,18.0915170846842,0.5561042444369013,7.408412901440289
191.0,14.996831786161556,18.085664016310634,0.5580564597787926,7.431627884405276
192.0,14.969258494524036,18.080170654206338,0.5600036726034057,7.454914369270755
193.0,14.942459421166024,18.075053306739022,0.561945298063799,7.478265901514071
194.0,14.916408466574966,18.070316664967347,0.5638807507572863,7.501676007923489
195.0,14.890980335655142,18.06595229201246,0.5658094587881198,7.525138002931564
196.0,14.866239214661283,18.061974478703945,0.567730863243595,7.548645076591235
197.0,14.842255253485002,18.05839824313622,0.5696444054224112,7.572190417735946
198.0,14.819045697939446,18.0552317698295,0.5715495262150918,7.59576720977815
199.0,14.796445272671207,18.05245875192924,0.5734456773195639,7.619368479605544
200.0,14.77449692806953,18.05008855347511,0.5753323283956251,7.642987090914397
201.0,14.753271922615642,18.04813412945412,0.5772089501968003,7.6666159004259224
202.0,14.732820561445395,18.04660563633393,0.5790750132500028,7.690247764238324
203.0,14.712973370673465,18.045483189657833,0.5809299955311078,7.713875439830395
204.0,14.693732861022905,18.044768475807533,0.5827733968804989,7.737491502319897
205.0,14.675169816836705,18.044472145037894,0.5846047200887634,7.761088508126224
206.0,14.657351974825323,18.04460442707518,0.5864234679009783,7.784659013740361
207.0,14.640143925957616,18.04514709923598,0.5882291473125075,7.808195524373088
208.0,14.623489811792096,18.04609161997971,0.5900212889087967,7.8316903709727805
209.0,14.607458187200569,18.047446370492576,0.5917994293603156,7.855135849035523
210.0,14.592117607054844,18.049219731960783,0.5935631053375343,7.878524254057395
211.0,14.577398491978222,18.051400148339294,0.5953118556455236,7.901847859583273
212.0,14.563175685893126,18.05396703190221,0.5970452412793028,7.92509880015959
213.0,14.549512694657134,18.05692638259619,0.5987628338822766,7.9482691575445275
214.0,14.536474243529891,18.060284374325658,0.6004642051221111,7.971351013427009
215.0,14.524048046860646,18.064035675412804,0.6021489275392958,7.994336441844863
216.0,14.512067651284601,18.068151203145433,0.6038165923128247,8.01721742586038
217.0,14.500577737232664,18.072632656698786,0.6054668061513389,8.039985889233565
218.0,14.489638059697631,18.077483963755203,0.6070991761492343,8.06263375472895
219.0,14.479274363535175,18.082703765283455,0.6087133096258769,8.085152943012488
220.0,14.469315155936002,18.088259504523624,0.610308827904517,8.107535327912311
221.0,14.459772156267691,18.094146220646913,0.6118853719487974,8.129772737637156
222.0,14.450699560616892,18.10036548621393,0.6134425840796374,8.151856998544526
223.0,14.44214259062259,18.10691741326259,0.6149801066300478,8.173779936515063
224.0,14.433956864819672,18.113770873059334,0.6164975911668203,8.195533360512455
225.0,14.4261108295666,18.12091214606549,0.6179947113607738,8.217109068534215
226.0,14.418652953187381,18.12834039749612,0.619471144003711,8.238498860369186
227.0,14.411631593099942,18.136054773524233,0.6209265658869395,8.259694535796726
228.0,14.404954978437328,18.144030128332357,0.6223606590475588,8.280687891555248
229.0,14.398542505044007,18.152242355025887,0.6237731277442573,8.301470759029735
230.0,14.392436947535066,18.160688323156684,0.6251636820149805,8.322034988083978
231.0,14.386681080525584,18.169364902276612,0.626532031897674,8.342372428581763
232.0,14.381233153953994,18.178253439636315,0.6278778894736554,8.362474927371002
233.0,14.375966282401258,18.187318962192812,0.6292009868741065,8.382334405311967
234.0,14.37091865762114,18.196556246453934,0.6305010670766044,8.401942852695255
235.0,14.366133259586826,18.205960940491728,0.6317778731464118,8.421292260853548
236.0,14.361647449460213,18.215527630582272,0.6330311482086721,8.440374620252902
237.0,14.357332214519769,18.22521924760317,0.6342606449996095,8.459181956721288
238.0,14.353144962293383,18.23501447717081,0.635466136297401,8.477706472623481
239.0,14.349122497882853,18.24490691674045,0.6366473973827753,8.49594040864175
240.0,14.345301626389974,18.25489016376735,0.637804203536461,8.513876005458364
241.0,14.341677376183231,18.26494980098858,0.6389363314478241,8.531505504009957
242.0,14.33811900833144,18.27504697260412,0.6400435748377199,8.54882130112048
243.0,14.334640719126527,18.285170238974406,0.641125738569382,8.565815987128092
244.0,14.331273470850622,18.295311358866872,0.6421826276858157,8.582482161304997
245.0,14.32804820897639,18.30546208745204,0.6432140472300651,8.598812422912063
246.0,14.324890999150607,18.31559187415519,0.6442198073709877,8.614799386225211
247.0,14.321732280092656,18.325671637282873,0.6451997372971766,8.630436002830272
248.0,14.318601788875943,18.33569367317323,0.6461536706017803,8.645715372754772
249.0,14.315529262573879,18.34565027816439,0.647081440877947,8.660630596026238
