Time,J,A,S,tau
0.0,100.0,100.0,0.6510406561416919,27.027027027027028
1.0,99.74325434552408,36.788817300999746,0.6496860333947456,27.996285724195875
2.0,99.49008549750083,13.533706183120362,0.6483411179502581,28.966743727858073
3.0,99.24030131685635,4.978722039843614,0.6470057840398179,29.938279998350186
4.0,98.99371068393515,1.8315533665224086,0.6456798131821522,30.91080379645703
5.0,98.75012814458661,0.6737871690523988,0.6443629493375991,31.88423056898259
6.0,98.50937357259738,0.24787329585651532,0.6430549036433748,32.858481369913946
7.0,98.2712718456621,0.09118993243112039,0.6417553586734486,33.833482325567765
8.0,98.03565253408185,0.033549872442745154,0.6404639722676408,34.80916413988579
9.0,97.80234960142269,0.01234542132724898,0.6391803809718857,35.785461636229016
10.0,97.57120111640667,0.004544743575898849,0.6379042031289375,36.762313332208095
11.0,97.34204897534552,0.0016749925036740555,0.6366350416561912,37.73966104427502
12.0,97.1147386344628,0.0006192159045922518,0.6353724865447762,38.71744951898293
13.0,96.88911885148386,0.00023076298391901194,0.6341161171117248,39.69562608799392
14.0,96.66504143590596,8.780961169702256e-05,0.6328655040348037,40.67414034407828
15.0,96.44236100738824,3.517619829325201e-05,0.6316202111975652,41.652943835496245
16.0,96.22093476173033,1.577569260965417e-05,0.6303797973703227,42.63198977628955
17.0,96.00062224394009,0.0,0.6291438177510815,43.61123277013413
18.0,95.78128512791041,0.0,0.6279118253889898,44.5906285455055
19.0,95.56278700224539,0.0,0.6266833725115746,45.57013369999907
20.0,95.34499316180138,0.0,0.6254580117758672,46.54970545172721
21.0,95.12777040461896,0.0,0.6242352974627807,47.529301395784636
22.0,94.91098683366005,0.0,0.6230147866328343,48.50887926377123
23.0,94.69451166279919,0.0,0.6217960402573987,49.48839668486947
24.0,94.47821502953533,0.0,0.6205786243688268,50.467810943987644
25.0,94.26196780557576,0.0,0.6193621111656062,51.447078743109806
26.0,94.04564141976442,0.0,0.618146080259224,52.42615594563298
27.0,93.82910767522415,0.0,0.6169301198437933,53.404997328276906
28.0,93.61223857578317,0.0,0.6157138280088584,54.38355631558196
29.0,93.39490615299928,0.0,0.6144968141155047,55.361784705468764
30.0,93.17698229600092,0.0,0.613278700275835,56.3396323814744
31.0,92.95833858368592,0.0,0.612059122953628,57.317047009393974
32.0,92.7388461190873,0.0,0.610837734705886,58.29397371587089
33.0,92.51837536573373,0.0,0.6096142060858676,59.27035474634509
34.0,92.2967959858525,0.0,0.6083882277291967,60.246129099620354
35.0,92.07397667794936,0.0,0.607159512683768,61.221232129807696
36.0,91.84978502686522,0.0,0.6059277987834042,62.195595149788296
37.0,91.62408733540103,0.0,0.6046928516372161,63.16914494235936
38.0,91.39674847349427,0.0,0.6034544675878754,64.14180328677138
39.0,91.16763172606312,0.0,0.6022124770414747,65.11348643521768
40.0,90.93659864107669,0.0,0.6009667481530282,66.08410454264592
41.0,90.7035088744151,0.0,0.5997171909830976,67.05356103238479
42.0,90.46822003744464,0.0,0.5984637620109174,68.02175191705564
43.0,90.23058755405742,0.0,0.5972064689152655,68.98856508919752
44.0,89.9904645147425,0.0,0.5959453759018827,69.95387953745747
45.0,89.74770152993442,0.0,0.5946806095888955,70.9175644875531
46.0,89.50214657768602,0.0,0.5934123655923135,71.87947844698823
47.0,89.25364487523528,0.0,0.5921409151302359,72.83946825869235
48.0,89.0020387398206,0.0,0.5908666124931409,73.7973680314622
49.0,88.74716743395436,0.0,0.5895899036347756,74.75299791061867
50.0,88.48886705955849,0.0,0.5883113340287737,75.70616296883024
51.0,88.22697039990189,0.0,0.5870315588517738,76.65665175261651
52.0,87.96130681185458,1.0172245952575237e-05,0.5857513521866102,77.60423498294595
53.0,87.69170209848679,1.075370890712313e-05,0.58447161772633,78.54866403295122
54.0,87.41797837823555,1.138422646602569e-05,0.5831934001520774,79.48966930778077
55.0,87.13995399880868,1.2067544855584014e-05,0.5819178956425297,80.4269587490775
56.0,86.85744339422497,1.2807961341632582e-05,0.5806464651354258,81.36021592635348
57.0,86.57025701493677,1.3610604076331395e-05,0.5793806450830509,82.28909848787345
58.0,86.27820121576606,1.4479773804821453e-05,0.5781221606359358,83.2132362349823
59.0,85.98107818225134,1.542069605312893e-05,0.5768729370170672,84.13222944287216
60.0,85.67868583678695,1.643930770948471e-05,0.5756351120773157,85.04564697612456
61.0,85.3708177854822,1.7541168413110182e-05,0.5744110467716119,85.95302467190626
62.0,85.05726325968746,1.8732617971160876e-05,0.5732033350871606,86.85386375818034
63.0,84.73780705869076,2.0020252324217267e-05,0.5720148132798675,87.74762931207557
64.0,84.41222953693587,2.1410357528172714e-05,0.5708485653378836,88.63374920791165
65.0,84.08030657221681,2.2910304764179157e-05,0.5697079274276172,89.51161312993565
66.0,83.74180956562496,2.4526931043866846e-05,0.5685964885109577,90.38057204919136
67.0,83.39650546920521,2.6267075945471867e-05,0.567518086096333,91.23993831652618
68.0,83.04415680053384,2.813840867505004e-05,0.5664767989047231,92.08898606748616
69.0,82.68452171250983,3.0147364511872954e-05,0.5654769323292904,92.92695256009337
70.0,82.31735406819357,3.23008207138005e-05,0.5645229980716735,93.75304021827311
71.0,81.94240637560989,4.0775640043879165e-05,0.5636196872824858,94.56641942673362
72.0,81.55944385459067,7.812248498872328e-05,0.562771834152556,95.36623262530851
73.0,81.16820368595174,0.00011755234963629197,0.5619843729236377,96.15159909969809
74.0,80.76842616403223,0.00015918838010871712,0.561262284932446,96.92162106898297
75.0,80.35984833572641,0.00020315311843399457,0.5606105371506974,97.6753908756108
76.0,79.94220424444084,0.00024956706952934817,0.5600340115521939,98.41199921406634
77.0,79.51522524774413,0.00029854713159886226,0.5595374273563491,99.13054436479743
78.0,79.07864037547196,0.0003502048714559208,0.55912525601061,99.83014224559852
79.0,78.63217667975906,0.00040464471220006835,0.5588016287235977,100.50993731122027
80.0,78.17555968156611,0.00046196208286184326,0.5585702428260959,101.16911366509304
81.0,77.70851384253275,0.0005222415779324695,0.5584342670502617,101.80690621601264
82.0,77.23076305248621,0.0005855551654669333,0.5583962470002133,102.42261168986691
83.0,76.7420311933318,0.0006519603460457587,0.5584580076661193,103.01559977712414
84.0,76.24204284098548,0.0007214984066226497,0.5586205599965305,103.58532363442141
85.0,75.7305238852517,0.0007941947096982831,0.5588841126772768,104.13131916314947
86.0,75.20720190059032,0.0008700539581472921,0.5592477972003965,104.65323320145437
87.0,74.67180772969124,0.0009490648013989887,0.5597099390903804,105.15079570890055
88.0,74.12407515613992,0.001031193434602049,0.5602676540153609,105.62385976029866
89.0,73.56374308063602,0.0011163899840554937,0.5609172381131924,106.07236120802273
90.0,72.99055526608112,0.0012045822830824412,0.5616537497998849,106.49635839661732
91.0,72.40426225564524,0.001295682688434369,0.5624714254037236,106.89598923515443
92.0,71.80462166133908,0.0013895849141864487,0.5633634430137691,107.27149177444853
93.0,71.19140059984953,0.0014861661446067635,0.5643220383749584,107.6231893019801
94.0,70.56437475749829,0.0015852903833434963,0.5653386676099181,107.9514731721669
95.0,69.92333170889137,0.0016868072342948043,0.5664039002029457,108.25680755065594
96.0,69.26807135054838,0.0017905558624232156,0.5675076511378251,108.53970600970429
97.0,68.59840622182293,0.0018963659579953123,0.5686391885811563,108.80072747053822
98.0,67.91416581221624,0.0020040589205296963,0.5697871913671413,109.04046570150965
99.0,67.21519443158972,0.0021134506858325507,0.570939913657721,109.25953556725662
100.0,66.50135550283329,0.0022243523751356953,0.5720851683088674,109.45856762691466
101.0,65.77253269996318,0.002336572112979064,0.573210466521238,109.63819645280435
102.0,65.02862906964315,0.0024499164224352924,0.574303068292978,109.7990551735225
103.0,64.26957352637042,0.002564191201883781,0.5753500299133023,109.94176621291062
104.0,63.4953175281163,0.0026792025909695752,0.5763382934043774,110.06693875665204
105.0,62.705839631301586,0.002794758237250269,0.5772547144342001,110.17516123496476
106.0,61.90114822971757,0.002910667443463482,0.5780861270387998,110.266998394009
107.0,61.081278528054604,0.003026741801143861,0.57881937515977,110.34299116348355
108.0,60.24630121143509,0.0031427960365455433,0.5794413658541288,110.40364893812574
109.0,59.39631837168308,0.0032586473445340835,0.5799390920115128,110.44945476707379
110.0,58.53146747158994,0.0033741167494706088,0.5802996754530241,110.48085968775615
111.0,57.65197850321004,0.003390747520473084,0.6056648376504606,89.80855092156543
112.0,56.757805676106464,0.0033130486203475622,0.6471583028480686,58.66349673233517
113.0,55.84905915361486,0.0032363714178424313,0.6632105796277465,48.06491391265981
114.0,54.926021736339635,0.0031673238201048687,0.6704619792032357,42.64787215582885
115.0,53.98900455309811,0.003294758008093814,0.6736718132778308,39.18721518996705
116.0,53.03880734091578,0.0036333347573213643,0.6745301760147187,36.71666651061713
117.0,52.07628273569618,0.0041521083194595194,0.6738257047205575,34.83316997720824
118.0,51.10228649699611,0.0048359136075759555,0.671991890983316,33.33332415911687
119.0,50.117704187369306,0.005677217161324219,0.6692941042775158,32.10115458085854
120.0,49.12346363006081,0.0066725716281299885,0.6659077618932308,31.064672277221156
121.0,48.12054085582013,0.00782083480980791,0.6619557237278176,30.176324031857956
122.0,47.10996252340921,0.009122166120342726,0.657528056870634,29.403171555406686
123.0,46.092805675479404,0.010577411288429239,0.6526933217746447,28.721525295684888
124.0,45.07019684183609,0.012187674881671011,0.6475053191173211,28.11384776608458
125.0,44.04330870690448,0.01395403030041125,0.6420074407700611,27.56682795290852
126.0,43.013356133616014,0.01587729215898813,0.6362355126287486,27.070157311537574
127.0,41.9815924038673,0.01795782055852665,0.630219721920414,26.615717448259176
128.0,40.94930245857154,0.02019539320142004,0.6239859669466866,26.19703044255893
129.0,39.91779692278135,0.02258907717741968,0.6175568402562271,25.808861884259482
130.0,38.88840518855315,0.02513712677001172,0.6109523368452172,25.44694070225126
131.0,37.862468008243646,0.0278368978422685,0.6041903853016148,25.107751919791642
132.0,36.841329788167684,0.030684784031349287,0.5972872570513816,24.78837885179293
133.0,35.82632954385543,0.033676198619732915,0.59025788769186,24.48638300975235
134.0,34.81879211590908,0.036805508040470114,0.5831160827011969,24.199724692106184
135.0,33.82004088447604,0.04003162130239628,0.575874717492035,23.926684715494183
136.0,32.83120533248095,0.04311897457481124,0.568545916171936,23.665799633703816
137.0,31.852816152584943,0.04602073068011393,0.5611411288565852,23.415830402958125
138.0,30.885298232585864,0.04879764452730443,0.5536712482737438,23.175718605497455
139.0,29.929312331974657,0.05182546353596794,0.5461466791599676,22.94455920398395
140.0,28.98653620902074,0.055483522609180984,0.5385774001062831,22.721575570291126
141.0,28.05953725580802,0.06008199935086862,0.5309730110397569,22.506099601583408
142.0,27.151571079173635,0.0658943511746325,0.5233427713610748,22.297555139932523
143.0,26.26644612674682,0.07317009970100005,0.5156956302911428,22.095444085238228
144.0,25.408412370624173,0.08214011699073145,0.5080402501325594,21.899334851845833
145.0,24.582055687381725,0.09301838960981973,0.5003850244932226,21.70885257362574
146.0,23.79219275745186,0.10600189784099147,0.49273809174205185,21.52367086650878
147.0,23.043761562258297,0.12126941189756592,0.48510734471451894,21.343504878487426
148.0,22.3417088717033,0.13897971241083315,0.477500437358164,21.16810535900544
149.0,21.69087527157433,0.1592695424501686,0.4699247893039208,20.997253578499198
150.0,21.09587507015734,0.18225133754773046,0.4623875870869937,20.830757160153947
151.0,20.56098361776793,0.20801130451202415,0.454895786117669,20.66844625849139
152.0,20.090032302410062,0.2366074229923818,0.44745610853791123,20.510170506307208
153.0,19.6863058412594,0.2680679641678862,0.44007504217226107,20.35579630621172
154.0,19.352426962214377,0.3023904031363467,0.4327588405824432,20.205204601274005
155.0,19.09028113258973,0.33953610490000846,0.42551351428621914,20.058289059597204
156.0,18.90106156902551,0.3792454770116547,0.4183448392257929,19.91495371639368
157.0,18.78463600937149,0.42097963396889343,0.41125833729150607,19.775112244756116
158.0,18.739129617856985,0.4642565146747345,0.40425928681921375,19.638686385267572
159.0,18.76125569203265,0.5090934507653626,0.39735271515749476,19.50560495010413
160.0,18.847608761948617,0.5561283238338034,0.39054339837571844,19.37580284424394
161.0,18.995856861721137,0.6064311610540135,0.38383585804705567,19.24922032154817
162.0,19.20535782534579,0.6613706535895957,0.37723436095948415,19.1258022699868
163.0,19.47737448667273,0.7225194358326652,0.3707429187636299,19.005497638623137
164.0,19.814998824104247,0.7915734406490954,0.36436528831821374,18.888258928434286
165.0,20.222839037556778,0.8702796876793256,0.35810497273317327,18.774041757896352
166.0,20.706513648467663,0.9603694786988054,0.35196522320393614,18.662804489170416
167.0,21.271999840314916,1.0634964202702333,0.3459490415908274,18.55450790650725
168.0,21.924884770251804,1.1811796982752694,0.3400591837750302,18.449114940392388
169.0,22.669587602017195,1.3147534512715677,0.3342981635805277,18.34659043051306
170.0,23.50862571805399,1.4653246225665264,0.32866825831745783,18.24690091684059
171.0,24.441947046235025,1.6337368832709065,0.3231715130078949,18.150014474315007
172.0,25.46647080270846,1.8205472532297213,0.3178097480294169,18.05590055250648
173.0,26.575767980135552,2.026010722703071,0.31258456544841695,17.964529855165523
174.0,27.760146450364136,2.2500023824690163,0.3074973563485062,17.875874222087372
175.0,29.006886217867454,2.491779796993843,0.3025493086627239,17.789906540180898
176.0,30.300528531424362,2.7500179743737303,0.29774141576733115,17.706600654147003
177.0,31.623164279035695,3.0232427564179067,0.2930744847735305,17.625931304961068
178.0,32.955126315785094,3.3104187293861433,0.2885491462637035,17.54787406815578
179.0,34.275988590786966,3.611259620192924,0.28416586390572285,17.47240530134383
180.0,35.56544033374983,3.9263116409589816,0.2799249441523834,17.39950209984356
181.0,36.8038565455257,4.256897140261463,0.2758265461596943,17.329142258803735
182.0,37.972576524700884,4.604961618538162,0.2718706917306267,17.26130424060513
183.0,39.05396803492915,4.972852711248062,0.2680572753067238,17.195967147509307
184.0,40.03138206739935,5.363053910960348,0.2643860744766067,17.13311069587239
185.0,40.88913306092954,5.777901154029259,0.2608567600951902,17.072715193311495
186.0,41.61257145171383,6.219303983841928,0.2574689062574225,17.014761520400086
187.0,42.188324631665786,6.68849883322447,0.2542220003135854,16.959231112008393
188.0,42.6047015128329,7.185847480246717,0.2511154525423621,16.90610594329113
189.0,42.85225347136104,7.710712192026892,0.24814860579431178,16.855368513527754
190.0,42.92438465697962,8.261394729491608,0.24532074476906462,16.807001835222238
191.0,42.81796105608447,8.8351579388398,0.24263110501022744,16.76098942113111
192.0,42.53380231072365,9.428279419075404,0.2400788818872665,16.717315270937277
193.0,42.07696653394115,10.036168676247875,0.23766323862809988,16.6759638654257
194.0,41.456607226035885,10.653654477863098,0.23538331453218408,16.6369201552571
195.0,40.68546591589124,11.275359362408722,0.23323823254746207,16.60016955373775
196.0,39.77912719363249,11.896021943048044,0.23122710646736203,16.565697930062626
197.0,38.755209523089995,12.510690719026115,0.22934904770087625,16.533491603578312
198.0,37.63260057862333,13.11479047552603,0.2276031715960072,16.503537339337452
199.0,36.43079901947067,13.704093770478979,0.22598860330428938,16.475822344822074
200.0,35.16938773355377,14.27463896190613,0.2245044831807886,16.450334267802457
201.0,33.86763075942783,14.822635200869662,0.22314997171478013,16.42706119525692
202.0,32.544165536643106,15.344388555622324,0.22192425398923524,16.40599165323086
203.0,31.21675456466626,15.836273885535922,0.22082654367000443,16.38711460746638
204.0,29.902064595397587,16.294765189361968,0.21985608652810312,16.370419464589535
205.0,28.61545399478095,16.716523957484053,0.21901216350248917,16.3558960736096
206.0,27.370766224518526,17.098532665299246,0.21829409334380045,16.343534727576397
207.0,26.180132626098214,17.43825057561157,0.21770123473582606,16.333326164819468
208.0,25.05381538259999,17.733765719220564,0.21723298801660298,16.325261569550324
209.0,24.000107994245894,17.983919033738076,0.21688879650976103,16.31933257154578
210.0,23.025298436525922,18.188383447942297,0.21666814755858663,16.31553124604392
211.0,22.133714796508453,18.347674450906638,0.2165705728022084,16.31385011040769
212.0,21.327899026900845,18.463094530100694,0.21659564889062835,16.314282120395394
213.0,20.608684649733853,18.53662220240498,0.2167429941934401,16.316820658613903
214.0,19.975593819343576,18.570792137072658,0.2170122730404726,16.321459544745963
215.0,19.42704714574647,18.568534620117184,0.2174031919997039,16.328193011669626
216.0,18.960565421249296,18.533052893380596,0.217915498029019,16.33701569531536
217.0,18.572958730781746,18.46771272588363,0.21854897690461395,16.347922631698783
218.0,18.260557673230288,18.37595404292169,0.2193034531499212,16.3609092498184
219.0,18.019332945460487,18.261222068573055,0.22017878541342914,16.375971342459437
220.0,17.844995138757813,18.12691677027792,0.22117486511620207,16.393105068621733
221.0,17.7330814235267,17.97635302795145,0.22229161246461135,16.412306933207862
222.0,17.67902553840011,17.812731202056252,0.22352897343245437,16.433573776002927
223.0,17.67821081509869,17.639112374401638,0.22488691601514546,16.45690275928994
224.0,17.726012074252008,17.458398246456742,0.226365426425039,16.48229135671134
225.0,17.817828296807107,17.27331453376517,0.22796450475222954,16.509737341742127
226.0,17.949110351198723,17.086397671862322,0.22968416038148792,16.53923877741704
227.0,18.115384133890636,16.899985189374682,0.23152440719829664,16.570794007192266
228.0,18.312269293240565,16.716210420383934,0.2334852585525367,16.604401646802312
229.0,18.53549393004132,16.53700166363213,0.23556672199793752,16.640060577107405
230.0,18.78090538293032,16.364085864670884,0.23776879382721197,16.67776993789535
231.0,19.044478765754572,16.19899583484029,0.24009145340821494,16.717529122523693
232.0,19.322323491470435,16.043080277287245,0.2425346573291043,16.75933777367442
233.0,19.610682567848258,15.897515535684647,0.24509833349685564,16.803195779916926
234.0,19.905937906521302,15.763317798870528,0.24778237504261844,16.849103272147726
235.0,20.204612034889685,15.641354999392675,0.2505866342511819,16.897060620950736
236.0,20.503378230076546,15.532356792693548,0.2535109160150248,16.947068435996044
237.0,20.799063621160204,15.43692558837828,0.25655497226445434,16.999127561568272
238.0,21.0886591221796,15.355543836145207,0.2597184955378075,17.05323907739594
239.0,21.369328652228255,15.288580663459893,0.2630011125783414,17.109404299141598
240.0,21.638429724271006,15.236296936072016,0.26640237755658364,17.167624780506518
241.0,21.89350007060892,15.198852108490442,0.2699217671305685,17.227902310510412
242.0,22.132278700100827,15.176308659330877,0.27355867498380365,17.290238914223664
243.0,22.35278517794325,15.168635323198247,0.27731240597868456,17.354636857613816
244.0,22.553230239174496,15.175708432647454,0.2811821666716867,17.42109866050968
245.0,22.732054051871003,15.197321238125472,0.2851670655895531,17.489627085526116
246.0,22.888050534426558,15.233186813537328,0.2892661094225686,17.560225149977285
247.0,23.020200382151344,15.282933532217363,0.293478181556175,17.632896164970948
248.0,23.12782512507998,15.346131131565055,0.2978020746930888,17.7076436661217
249.0,23.210505557578408,15.422261712691718,0.30223642576805554,17.784471568816898
250.0,23.268204762685198,15.510767116307674,0.3067797969304761,17.863383998047947
251.0,23.30102235777043,15.611010516149033,0.3114305742230549,17.944385502174338
