Time,J,A,S,tau
0.0,100.0,100.0,0.9685055773488649,8.547008547008547
1.0,98.96516514159178,98.64773751110796,0.9686631287039957,8.472525795708448
2.0,97.87029861489627,97.31103817257599,0.9688492285709764,8.384403331696504
3.0,96.72597093366417,95.99330992084742,0.9690632331821969,8.282910635623875
4.0,95.53868716256433,94.69459448101296,0.9693050247705912,8.168071982943362
5.0,94.31407555703852,93.41492974138922,0.9695744914728847,8.039912462407667
6.0,93.05702508620554,92.15435347413602,0.969871526605199,7.898457938588295
7.0,91.77160133519617,90.91290278041429,0.9701960298224175,7.74373537582861
8.0,90.71712498773826,89.4360180220502,0.9704885197642233,7.603775120883655
9.0,90.14009923558741,87.49368592855019,0.9706808934839736,7.510764621186425
10.0,89.60609359482478,85.52726338996268,0.9708674497549032,7.420299507646936
11.0,89.10767548852573,83.54692386980409,0.971048456713306,7.332280658143039
12.0,88.63847157549108,81.56132157635109,0.9712241665852748,7.24661484868651
13.0,88.19311633573477,79.5777142566372,0.971394815992563,7.163214595398492
14.0,87.76719909288794,77.60208676324349,0.9715606267585016,7.081997795030625
15.0,87.35673438094724,75.63975204238218,0.971721807788975,7.002887005394901
16.0,86.956043487528,73.69745704977144,0.9718785543218003,6.925809694766346
17.0,86.56240446276105,71.77877310348106,0.9720310493746273,6.850697650682556
18.0,86.17441759332438,69.88582228880092,0.9721794656939566,6.777486285681375
19.0,85.79105612834803,68.020241842685,0.9723239624350866,6.706115774274911
20.0,85.41145878314104,66.18342879756916,0.9724646923179474,6.6365285091268715
21.0,85.03504667170843,64.37641595421057,0.9726017938922444,6.568671773656002
22.0,84.66132296146297,62.60012365439441,0.9727354011780819,6.502494412182774
23.0,84.28996488370709,60.85520731465625,0.9728656364280022,6.43794923113259
24.0,83.92075493330555,59.14225124235303,0.9729926138302638,6.374991821324249
25.0,83.55350034211476,57.4617126950506,0.9731164445472243,6.313578732887444
26.0,83.1881493970829,55.813930364759784,0.9732372258208154,6.253671190161772
27.0,82.82468540041522,54.19925722505779,0.9733550516559297,6.195231528715263
28.0,82.46308871380947,52.617907426539404,0.9734700137737172,6.138222779983832
29.0,82.10347347444325,51.07005520633813,0.973582190627172,6.082612371305138
30.0,81.74600151182757,49.5559280153894,0.9736916571823799,6.028368914607395
31.0,81.39081559723728,48.075694634276125,0.9737984882911527,5.975461038682084
32.0,81.03810676868022,46.62937400842672,0.9739027507734476,5.923859947892216
33.0,80.68823224700427,45.21715490735767,0.97400450291582,5.873539698114431
34.0,80.34155854490037,43.839241809517866,0.9741038027009512,5.824474450147707
35.0,79.99840499687498,42.49572599549352,0.9742007073705511,5.776638577024418
36.0,79.65919953866138,41.18667279347097,0.9742952657401024,5.730009184447441
37.0,79.32455727712498,39.912382964132426,0.9743875220095114,5.684564938150469
38.0,78.99509554388926,38.673160879459395,0.9744775203495573,5.640284514270425
39.0,78.67137713637572,37.46920504280371,0.9745653029464668,5.597147220359504
40.0,78.35410896356542,36.30085786029097,0.9746509058708092,5.555134394298197
41.0,78.04409652981721,35.16859911379795,0.9747343640414587,5.514227776569523
42.0,77.7420502164323,34.07284883845794,0.9748157107167575,5.47440965809943
43.0,77.44881974185716,33.014288207678504,0.9748949750344287,5.435663744423297
44.0,77.1652855579884,31.993662199477864,0.974972185445526,5.397973981115108
45.0,76.89214932965302,31.01174572262058,0.9750473681888618,5.361325088604727
46.0,76.63016264902521,30.069535643058874,0.9751205473454476,5.325702559013659
47.0,76.3798598979801,29.168057875795345,0.9751917457633714,5.291092338742626
48.0,76.14168729414222,28.308549380561043,0.9752609843367774,5.257481105075884
49.0,75.91578321205759,27.49224784411482,0.9753282830398265,5.224855893065007
50.0,75.70201666604973,26.720548713190553,0.9753936601205453,5.193204425845555
51.0,75.49990897078793,25.99482927589559,0.9754571331135748,5.162514725028939
52.0,75.3085113374613,25.316476907236957,0.9755187182268882,5.132775387308575
53.0,75.12641512253475,24.68678639136066,0.9755784309641877,5.103975335395073
54.0,74.95179756117643,24.106927053281133,0.9756362858944313,5.076103945921793
55.0,74.78226999611431,23.57779609410854,0.975692296977723,5.049150921023441
56.0,74.61517209659738,23.100005872835393,0.975746477540064,5.023106321562373
57.0,74.44735805232673,22.673655214278362,0.9757988403981965,4.997960540291818
58.0,74.27576543661391,22.298408685743226,0.9758493979681695,4.973704259161211
59.0,74.0970752553461,21.973249916224233,0.9758981623196176,4.950328452151268
60.0,73.90828144378999,21.696555434298244,0.9759451452667844,4.927824352942022
61.0,73.70669154974647,21.465956452792945,0.975990358413346,4.906183465065218
62.0,73.49016280086525,21.278436602761147,0.9760338132324822,4.885397525692438
63.0,73.25724876040726,21.13037366331375,0.9760755211140099,4.865458499642358
64.0,73.00725723759248,21.017616567091004,0.9761154934016668,4.846358577848126
65.0,72.74027922696335,20.93565244108583,0.9761537414329222,4.828090163748595
66.0,72.45713536301831,20.87977472800686,0.9761902765629891,4.810645868118232
67.0,72.15926957132554,20.845267391199904,0.9762251101807076,4.794018505222143
68.0,71.84860129165646,20.827585291504313,0.976258253715234,4.778201090773429
69.0,71.52735275431203,20.822518590532628,0.976289718634054,4.76318684179727
70.0,71.19786778897763,20.82632854331328,0.9763195164307168,4.748969179360634
71.0,70.86244801679756,20.83583371113551,0.9763476586014801,4.735541731348452
72.0,70.52322372921144,20.848450533223,0.9763741566158897,4.722898336308521
73.0,70.1820557645444,20.862199253521002,0.9763990218767021,4.711033052607336
74.0,69.84049272739735,20.875649637026864,0.9764222656828706,4.699940156355404
75.0,69.49971409770214,20.887900041392914,0.9764438991687248,4.689614168248178
76.0,69.16058828618007,20.89843893245964,0.9764639332310617,4.680049853439669
77.0,68.82367213719203,20.907091742548534,0.9764823785468233,4.671242203091511
78.0,68.48928899150155,20.913909934520376,0.9764992453641916,4.663186508838153
79.0,68.15745830871073,20.919145691971444,0.976514543410397,4.655878421109933
80.0,67.82816971040248,20.92307435451353,0.9765282823285741,4.649313643988702
81.0,67.50127427390724,20.92603014442561,0.9765404708423187,4.643488378618933
82.0,67.17654283125566,20.928315858831557,0.9765511169489883,4.638399189707599
83.0,66.8537411640309,20.930228019463275,0.9765602285377541,4.6340426970026956
84.0,66.53264718166778,20.931977896351004,0.976567812264315,4.630416083275945
85.0,66.21307574362511,20.933691224211945,0.9765738738945342,4.627516903761298
86.0,65.89484208814916,20.935485460459628,0.976578419108413,4.625342757072116
87.0,65.57783104914816,20.937386001233058,0.9765814520802257,4.623891867321396
88.0,65.26200522004422,20.93934880449964,0.9765829757456221,4.623162933237318
89.0,64.94732985928441,20.941328128869383,0.9765829930009688,4.623154667961055
90.0,64.63380853058314,20.943253799810606,0.9765815057117682,4.623866203807746
91.0,64.32150120470774,20.94502651259627,0.97657851442067,4.625297191724587
92.0,64.01048944339402,20.946549764823256,0.9765740189663644,4.627447558609994
93.0,63.70087346426533,20.94772993258874,0.9765680185257296,4.630317492925843
94.0,63.39277313694365,20.948498354379144,0.976560510962468,4.63390772357701
95.0,63.086312788425694,20.948801406312743,0.9765514935256341,4.638219231175845
96.0,62.78162357445444,20.948583834095512,0.9765409633716278,4.643253024183012
97.0,62.478849673149405,20.94783230577984,0.9765289162991934,4.649010724143872
98.0,62.178118422849785,20.946583257949616,0.9765153471357668,4.655494452822778
99.0,61.879556086363,20.944874644110822,0.9765002506903278,4.662706343268326
100.0,61.58328917324379,20.942745298166148,0.9764836217468121,4.670648541569008
101.0,61.28944902374063,20.940272138758143,0.9764654541606834,4.6793237068273585
102.0,60.998160849124176,20.93756350958014,0.9764457412789938,4.68873483948142
103.0,60.70954809271668,20.934736762281315,0.9764244763455862,4.698885072476821
104.0,60.423732574662424,20.931922824753237,0.9764016523966045,4.70977772277703
105.0,60.14083446510868,20.92927473753062,0.9763772622837281,4.721416380485364
106.0,59.860979121821664,20.92696406570256,0.976351298878774,4.733804797922456
107.0,59.58428533316043,20.92516190043143,0.9763237549569196,4.746946784932341
108.0,59.31087058366081,20.924059906996252,0.9762946232169836,4.7608464949199245
109.0,59.04087256891547,20.923870109368547,0.9762638966049483,4.775508204394873
110.0,58.77442410786108,20.924803449351916,0.9762315680419126,4.790936207291239
111.0,58.51163693749846,20.92707742251277,0.976197630408455,4.807135066889336
112.0,58.252662208184596,20.93093912878895,0.976162076960651,4.8241095373680025
113.0,57.99765608277266,20.936638315173408,0.9761249009996482,4.841864376557758
114.0,57.74673419760763,20.944419041774733,0.9760860957682714,4.860404505833799
115.0,57.50005356892828,20.954557440722688,0.9760456548074018,4.879735124905967
116.0,57.257796363072686,20.967340621922087,0.976003571761752,4.899861458279848
117.0,57.02011087103116,20.983049210914437,0.9759598402349536,4.920788814521348
118.0,56.78714764826581,21.001982255463833,0.9759144538476194,4.942522822716868
119.0,56.559110479827005,21.02446011641561,0.9758674062941953,4.965069181161518
120.0,56.33615225946932,21.050793990373727,0.9758186911920785,4.988433691647887
121.0,56.11846219359669,21.081321248925757,0.97576830193358,5.012622489851767
122.0,55.90626968482362,21.116393813145454,0.9757162318712039,5.037641778899871
123.0,55.699734057126776,21.156353712951887,0.9756624741476647,5.063497930842478
124.0,55.49908677797808,21.201577788171193,0.9756070213496479,5.090197694783551
125.0,55.304581572807976,21.252450962937182,0.9755498659806773,5.117747872943055
126.0,55.11639326398303,21.309350140660996,0.9754910000519242,5.1461555343994965
127.0,54.93480398042797,21.372693448833754,0.9754304147031092,5.175428155843708
128.0,54.760090737276144,21.442899932471033,0.9753681009792226,5.205573259076178
129.0,54.59245846357014,21.520387011157087,0.9753040489739537,5.236598766681145
130.0,54.43224766768401,21.605616985958953,0.9752382476990686,5.26851301434022
131.0,54.27976394335699,21.699047372551917,0.975170685986366,5.301324407888719
132.0,54.13527292529383,21.801145775702324,0.9751013511479698,5.335041902787001
133.0,53.99915947475167,21.91241544045085,0.975030229581025,5.369674767157932
134.0,53.87171496144671,22.033349342143648,0.9749573068855123,5.405232540830144
135.0,53.75334576269453,22.164485570266738,0.9748825666968601,5.44172540725412
136.0,53.644440336541,22.30636286219018,0.9748059922036122,5.479163694263821
137.0,53.545372011244154,22.45953826862778,0.9747275644057837,5.517558421876613
138.0,53.45663746645092,22.62460708782521,0.9746472630624172,5.556920997388628
139.0,53.37861763740255,22.80215309873205,0.9745650666232678,5.59726322893358
140.0,53.31185089892204,22.992816958532373,0.9744809508475576,5.638597747360576
141.0,53.2568303904939,23.197236082857067,0.9743948908717626,5.680937369532155
142.0,53.21405904744937,23.41607746521278,0.9743068586665774,5.724295861852848
143.0,53.184173050753806,23.6500478216476,0.9742168247095445,5.768687441320121
144.0,53.16767239741267,23.899844057766764,0.9741247574589819,5.814126917128314
145.0,53.16526058252516,24.166231258697742,0.9740306219175802,5.86063013412573
146.0,53.17755881464442,24.449965948898306,0.9739343822197976,5.908213187343046
147.0,53.20523572670187,24.751847713614353,0.9738359981314246,5.956893467420505
148.0,53.249096347458654,25.07271589995869,0.9737354276539962,6.006688896178348
149.0,53.30980978236938,25.413406532315385,0.9736326257449727,6.057618286057285
150.0,53.388235642413,25.774818004702905,0.9735275437129899,6.109701548286381
151.0,53.48512823312912,26.157846919898667,0.9734201303720758,6.162959326665021
152.0,53.601419640463895,26.563451646964843,0.9733103299897776,6.217413640486074
153.0,53.73794128516148,26.992589009116735,0.9731980845452314,6.273087184591855
154.0,53.895677105834196,27.446274704016627,0.9730833305732721,6.330004312470267
155.0,54.075548856757464,27.925526944840605,0.9729660023907567,6.38819004120127
156.0,54.27857040648362,28.431414318280087,0.9728460281645803,6.447671276437978
157.0,54.50576005739228,28.96501890129201,0.9727233335878522,6.508475681029777
158.0,54.758140940784905,29.527454813958425,0.9725978378520763,6.570632931497486
159.0,55.03681551292871,30.119863888554764,0.9724694570049672,6.634173690618093
160.0,55.3428053114698,30.743398912755687,0.9723381006103085,6.699130649540596
161.0,55.677266065389205,31.39925205153458,0.9722036740432725,6.765537841207183
162.0,56.04120584435435,32.08860626954494,0.9720660765290631,6.833431244862682
163.0,56.43578891111809,32.812689069896656,0.9719252017646524,6.9028486437083085
164.0,56.861991742919116,33.57270196087542,0.971780937867752,6.9738296096768675
165.0,57.32092905161632,34.36988634768392,0.9716331659113899,7.046416054984519
166.0,57.813517987799784,35.20544671208049,0.9714817620711489,7.120651485156127
167.0,58.340752525061056,36.080610145602456,0.9713265939584688,7.196582303193501
168.0,58.903449025248314,36.99656313137878,0.9711675249029023,7.27425633034747
169.0,59.50239862238427,37.9544834673775,0.9710044083770555,7.353724786613183
170.0,60.1382568077679,38.95551125653045,0.9708370938959364,7.435040235790175
171.0,60.811523267660256,40.000734208764435,0.9706654203266452,7.518258985859704
172.0,61.52260823114371,41.091207603913205,0.9704892223614996,7.603438812210696
173.0,62.27163286162238,42.22788472611174,0.9703083240019532,7.690641326304296
174.0,63.05864667961867,43.41168460045657,0.9701225444269802,7.779929894577543
175.0,63.88330223132804,44.64337592951272,0.9699316924854903,7.871371676690319
176.0,64.74515954291803,45.92367931756944,0.9697355704588747,7.965036325106637
177.0,65.643373692155,47.253149090215985,0.9695339737736481,8.060996027311521
178.0,66.57675140309564,48.6321844935783,0.9693266858810063,8.159327680546149
179.0,67.54395397835438,50.06111457113006,0.9691134877413319,8.260109126160325
180.0,68.54302027414563,51.5399768497332,0.9688941485390123,8.363422895008428
181.0,69.5717868124259,53.06871122069542,0.9686684318460191,8.469353848577267
182.0,70.6275713592733,54.64698293175961,0.9684360930645763,8.57799022993695
183.0,71.70730091518088,56.274264286376344,0.9681968797257389,8.689423703557495
184.0,72.80750534943839,57.949786711956044,0.9679505338129532,8.803748346103113
185.0,73.92423187086752,59.672511547941596,0.967696789430272,8.921061827395748
186.0,75.05311847396534,61.441124221458416,0.9674353750789191,9.041464469072164
187.0,76.18938766568688,63.2540502600142,0.967166013236986,9.165059552992856
188.0,77.32784200743635,65.10938261218617,0.9668884210884,9.291953139679965
189.0,78.46295583797182,67.00496219252359,0.9666023114611264,9.422253673875675
190.0,79.5888250523448,68.93826246008679,0.9663073927680492,9.556072323233693
191.0,80.69931862737562,70.9065180025971,0.9660033707378638,9.693522042739229
192.0,81.78803508629387,72.90658287058076,0.9656899481410521,9.834718233481146
193.0,82.84845570672847,74.93508407027882,0.9653668267504493,9.979777503729677
194.0,83.87395700536403,76.98828885838569,0.9650337073432703,10.128818372906467
195.0,84.85792586773762,79.06224592996047,0.9646902915609097,10.2819599878447
196.0,85.79383506685116,81.152698009963,0.9643362822585777,10.439322670255129
197.0,86.67532728600246,83.25518475599934,0.9639713854543243,10.601026695653678
198.0,87.49631052768738,85.36501349947146,0.9635953105459723,10.767192686622238
199.0,88.25105850663299,87.4773222104446,0.9632077730012587,10.937940359460747
200.0,88.93424879978934,89.58709861340563,0.9628084936371201,11.11338893595646
201.0,89.54114148011554,91.68921975226017,0.9623972028154214,11.293655658040436
202.0,90.06748790983747,93.77849303556904,0.961973638077103,11.478856428660068
203.0,90.50982442796935,95.84969839025618,0.9615375502481688,11.66910394732839
204.0,90.86522426235211,97.89762184668325,0.9610886993328933,11.864508649781271
205.0,91.13168630663013,99.9171191258392,0.9606268620614707,12.065176552485198
206.0,91.30777647558072,101.90312689227902,0.9601518269785498,12.271210277945446
207.0,91.39301983987438,103.85074468902313,0.9596634018961095,12.482706990555945
208.0,91.38753792450323,105.75523349248628,0.9591614099885288,12.699759039629608
209.0,91.29233606757214,107.61208954067413,0.9586456950903134,12.922452562246946
210.0,91.10903041630961,109.41705817249607,0.9581161207504265,13.150867167693901
211.0,90.83996365505111,111.16616116100155,0.9575725713598364,13.38507584831376
212.0,90.48807094668719,112.85576272584997,0.9570149561471858,13.62514302602124
213.0,90.05685114477411,114.48252364487726,0.9564432049358668,13.871126302200864
214.0,89.55026389879136,116.04349996406218,0.9558572755010024,14.123073207970021
215.0,88.9727005806773,117.53607695295614,0.9552571478506976,14.381023569323254
216.0,88.32885687524804,118.9580534204565,0.9546428315603682,14.645006177770298
217.0,87.62371128492005,120.30757266137621,0.9540143597496837,14.915041299225294
218.0,86.86239245974595,121.58319024493014,0.9533717962890474,15.191137330564013
219.0,86.05016514176154,122.78380407535973,0.9527152294830027,15.4732934457776
220.0,85.1923045355624,123.90870486522518,0.9520447790525727,15.761496287810866
221.0,84.29408930117124,124.95750819948132,0.9513605896063014,16.05572271808109
222.0,83.36069240135672,125.9301882535868,0.9506628373199164,16.3559365882884
223.0,82.39718012833622,126.82701408009993,0.9499517232814555,16.662091556287056
224.0,81.40842485341545,127.64856876756373,0.9492274798098362,16.974127976176895
225.0,80.39910904272044,128.3956910921675,0.9484903637630129,17.291975741588793
226.0,79.37366183585587,129.069483155053,0.9477406624578125,17.61555132487905
227.0,78.33626629358223,129.67125843676038,0.9469786870298577,17.944760608160927
228.0,77.29081981891518,130.2025403756423,0.946204777936799,18.279496094492238
229.0,76.24094245728405,130.66501778396486,0.9454192984561454,18.619639687362294
230.0,75.18995877770635,131.06053718546133,0.9446226397713542,18.965060089029876
231.0,74.14090644248367,131.3910649398376,0.9438152146892178,19.315615490482944
232.0,73.09653489574033,131.65867695315063,0.9429974623220818,19.671151165113056
233.0,72.0593138051383,131.8655264739476,0.9421698421006778,20.031502033160205
234.0,71.03144489909083,132.01383288333992,0.9413328380753482,20.396490453139002
235.0,70.01487065737857,132.10585589651484,0.9404869531665401,20.765928705572446
236.0,69.01129248974208,132.14388456107616,0.9396327135089989,21.13961676815933
237.0,68.0221632471686,132.1302141652057,0.938770663452772,21.517344330826
238.0,67.04876968315574,132.067143567315,0.9379013660322442,21.898890970818805
239.0,66.09211694552813,131.9569419298184,0.9370254073118884,22.28402266937137
240.0,65.15313748057113,131.80187258642184,0.9361433825983456,22.672500316900233
241.0,64.23249176757835,131.6041367185378,0.9352559164156189,23.064067436132074
242.0,63.3307470609171,131.36590471559776,0.9343636408113538,23.458462612521508
243.0,62.44834818499396,131.08930456631535,0.933467207659788,23.855412955773602
244.0,61.58555457329137,130.77637191402403,0.9325672905735867,24.254631560547352
245.0,60.742593237868626,130.42912525883042,0.9316645688586221,24.655828111081327
246.0,59.919543459743345,130.04947942591764,0.9307597496057435,25.05869510805225
247.0,59.11641377056353,129.63928898077077,0.9298535503628981,25.46291793602526
248.0,58.333165831020686,129.20036353205802,0.9289467028123415,25.86817354210842
249.0,57.56965848172532,128.73438985244493,0.9280399653795336,26.27412178403395
250.0,56.8257335681227,128.24303286852344,0.9271341011743995,26.680419516082715
251.0,56.1011743855346,127.72785653725,0.9262299004086205,27.086707056472466
252.0,55.395720188961995,127.19033424090136,0.9253281736254932,27.492611901475666
