Time,J,A,S,tau
0.0,100.0,100.0,0.5082983080226389,23.809523809523807
1.0,97.07441639484887,93.39244222996516,0.5085387609384658,23.747662877243474
2.0,94.22932045886434,87.21033011504413,0.5087871810971074,23.683824867559423
3.0,91.46407731538847,81.4298706780825,0.5090433521207427,23.618070299629203
4.0,88.77670100297321,76.02555584230238,0.509307227549667,23.550416085095343
5.0,86.16537767400746,70.97344639903291,0.5095787582560838,23.480879794260968
6.0,83.6285736130889,66.25108838510073,0.5098578924332406,23.40947965248815
7.0,81.16521321323991,61.83742346752614,0.5101445755844574,23.336234536626865
8.0,78.7749533702823,57.712704582834085,0.5104387505132852,23.261163971131435
9.0,76.45857866680988,53.85841653093837,0.5107403573148352,23.18428812386303
10.0,74.21853321821716,50.25720124034892,0.5110493333683114,23.105627801576976
11.0,72.05958855396872,46.8927874373114,0.5113656133307841,23.025204445093898
12.0,69.98962301086814,43.74992446646837,0.5116891291322421,22.94304012415399
13.0,68.0204596340629,40.81432002478007,0.5120198099719561,22.859157531953898
14.0,66.1686813210091,38.07258158380766,0.5123575823161898,22.77357997936609
15.0,64.45631981608854,35.51216128808582,0.5127023698972938,22.686331388840685
16.0,62.91134675850329,33.12131531220826,0.5130540937084637,22.597436289199592
17.0,61.56765834371546,30.889022540892366,0.5134126720250812,22.506919804790584
18.0,60.46483395345075,28.804965574759454,0.5137780203870477,22.41480765298648
19.0,59.64732298398234,26.859488376208546,0.5141500516080223,22.32112613582752
20.0,59.16312714095257,25.04354975688339,0.5145286757863422,22.22590213141588
21.0,59.062069094620135,23.348684504960747,0.5149138003135315,22.12916308585381
22.0,59.393730915304246,21.766967675254556,0.5153047617310902,22.03108127304695
23.0,60.205252047418696,20.290981814882596,0.5154573601801462,21.993611991696966
24.0,61.53868255097347,18.91379378405504,0.5156003329614905,21.95861756657428
25.0,63.4292461360863,17.62893802490845,0.5157410068493128,21.92423481028696
26.0,65.90298052870612,16.430392268068996,0.5158793420194615,21.890471000122087
27.0,68.97534784406157,15.312607019968246,0.5160152994748043,21.857333203013823
28.0,72.64993938508647,14.270536457399393,0.516148841049872,21.824828278034857
29.0,76.91754564838875,13.299720523620866,0.5162799294209812,21.792962877465445
30.0,81.75572592235929,12.396429897832556,0.516408528113596,21.761743448507573
31.0,87.12860284558681,11.557877609462894,0.5165346015096112,21.731176234976743
32.0,92.98691386463581,10.782512447175794,0.5166581148560669,21.701267278618374
33.0,99.26816891732179,10.0703512165443,0.5167790342657369,21.672022422259197
34.0,105.89719597962147,9.423391044604099,0.516897326729545,21.64344731016961
35.0,112.78734118058455,8.846018937280519,0.5170129601222759,21.615547389944773
36.0,119.8424392205368,8.345360644735939,0.5171259032064257,21.588327914730893
37.0,126.95948588947935,7.9314854967872375,0.5172361256328531,21.5617939460778
38.0,134.03221772883478,7.6175106757918245,0.5173435979549854,21.535950353793705
39.0,140.95393243811495,7.419393858495972,0.5174482916255853,21.51080181950579
40.0,147.61800453311906,7.355517808159548,0.5175501790047459,21.48635283774796
41.0,153.91383590426273,7.445988108391746,0.517649233362799,21.46260771807073
42.0,159.71748568011145,7.711697692606906,0.5177454288842073,21.439570586880865
43.0,164.8792533323884,8.173208545821343,0.5178387406706116,21.417245389386338
44.0,169.21454988274633,8.849534829624766,0.5179291447437543,21.39563589149453
45.0,172.50663837503,9.756916341298421,0.5180166180481144,21.374745681698652
46.0,174.52749837607894,10.907672757606907,0.5181011384530773,21.354578172988216
47.0,175.07580770782872,12.309234832857435,0.5181826847554369,21.335136604607257
48.0,174.02031728946776,13.963375252928131,0.5182612366802906,21.316424044093683
49.0,171.33395427518573,15.865750008327847,0.5183367748867014,21.298443388277537
50.0,167.10189597456647,18.00570660677422,0.5184092809642515,21.281197365940017
51.0,161.50375891474204,20.36627290804399,0.5184787374312688,21.264688540156953
52.0,154.77856024576613,22.924422301112063,0.5185451277441393,21.24891930839214
53.0,147.1837275434521,25.651494116146072,0.5186084362901083,21.233891905615366
54.0,138.96265959124955,28.513717895385827,0.5186686483928563,21.219608404994933
55.0,130.32591759155946,31.47293951965028,0.5187257503077605,21.20607072039663
56.0,121.4452154896054,34.48757290275777,0.5187797292256578,21.193280607240755
57.0,112.4562930540045,37.5139216659217,0.5188305732686385,21.18123966474579
58.0,103.46529874288392,40.50787940014804,0.5188782714922323,21.169949336900704
59.0,94.55566491262333,43.42685788219178,0.5189228138818337,21.159410914439853
60.0,85.79387302284671,46.23132291630139,0.5189641913531503,21.14962553594876
61.0,77.23467084999378,48.88501904296899,0.519002395749176,21.140594189592488
62.0,68.92697428006962,51.352708554521044,0.519037419841108,21.132317713967893
63.0,60.92141603124395,53.595115104883895,0.5190692573208724,21.12479680039893
64.0,53.27908557071142,55.561911615696644,0.5190979028072751,21.118031992820562
65.0,46.07821664696817,57.18645861277661,0.5191233518335494,21.11202369065916
66.0,39.41498104310625,58.38613393060235,0.5191456008533869,21.106772148621864
67.0,33.39427051600753,59.07226405272758,0.5191646472323042,21.102277478779623
68.0,28.111216924373327,59.16859039352091,0.5191804892474502,21.098539651193263
69.0,23.628750537918727,58.63284123642945,0.5191931260832092,21.0955584951551
70.0,19.95992544740882,57.472763764583966,0.5192025578286867,21.093333700035682
71.0,17.06256693753322,55.749532769477014,0.5192087854727764,21.09186481643253
72.0,14.847979437226442,53.567411803409875,0.519211810900913,21.09115125702114
73.0,13.199875709958148,51.05395942927857,0.519211636890668,21.09119229743818
74.0,11.996113290849102,48.33851842332202,0.5192082671077993,21.091987077061937
75.0,11.126726987174356,45.53539702846039,0.5192017061017083,21.09353459979105
76.0,10.504919698186708,42.73478244774693,0.5191919593007313,21.095833734781642
77.0,10.071110737915996,40.000889438992054,0.5191790330073709,21.098883217117173
78.0,9.792081443685325,37.37493334077994,0.5191629343929919,21.10268164848687
79.0,9.657641592632777,34.88022165814337,0.5191436714925564,21.1072274977892
80.0,9.676676403082489,32.52741349222832,0.5191212532026374,21.11251910106492
81.0,9.873143710434057,30.31893845823071,0.5190956892696164,21.1185546631111
82.0,10.282794946535164,28.25221939676479,0.5190669902884752,21.125332257144006
83.0,10.950111745981554,26.321872086690494,0.519035167695913,21.132849825370144
84.0,11.925406513472252,24.521088923717254,0.5190002337643218,21.141105179354398
85.0,13.26192775994803,22.842472624807076,0.5189622015956559,21.150096000331015
86.0,15.012919885069937,21.278517470899466,0.518921085115143,21.159819839472984
87.0,17.228687030313594,19.821877096683963,0.5188768990648926,21.17027411811295
88.0,19.953776896296205,18.465508992270202,0.5188296589972963,21.181456127932353
89.0,23.224424952463515,17.202751386427806,0.5187793812682775,21.193363031113353
90.0,27.0663922443517,16.02736606559795,0.5187260830294628,21.205991860613356
91.0,31.493282098032,14.933576098274774,0.5186697822235795,21.21933951983658
92.0,36.50556086077551,13.916115746091625,0.5186104975757388,21.233402782888792
93.0,42.08996389568617,12.970307815505567,0.5185482485881272,21.248178294236787
94.0,48.219104900350644,12.092166520913583,0.5184830555263995,21.26366256984987
95.0,54.851966410204774,11.278621996948035,0.5184149394204892,21.279851995592352
96.0,61.93441170927754,10.527791033725833,0.5183439220520176,21.296742827982094
97.0,69.39979772761237,9.839321827185255,0.5182700259452173,21.31433119434201
98.0,77.1700208599832,9.21481516848821,0.5181932743644405,21.332613091651286
99.0,85.15713939070491,8.658212010622103,0.51811369130124,21.3515843872136
100.0,93.26551014640062,8.176126686266057,0.5180313014684151,21.37124081810109
101.0,101.39511266960443,7.778064843998682,0.5179461302927278,21.391577990679306
102.0,109.44501814373503,7.476411492137798,0.5178582039032363,21.412591381024168
103.0,117.31658650012636,7.286244320457676,0.5177675491256952,21.434276334064172
104.0,124.91400849097535,7.224868697388183,0.5176741934734779,21.456628063387924
105.0,132.14043931494808,7.311117774288532,0.517578165138079,21.47964165108518
106.0,138.88889430720397,7.564455609055139,0.5174794929810349,21.503312047271972
107.0,145.02974541357605,8.003925006547606,0.5173782065248671,21.527634069779015
108.0,150.40037596590838,8.647024634007858,0.5172743359441263,21.55260240378677
109.0,154.80467602688796,9.508596735765526,0.5171679120562742,21.578211601464982
110.0,158.0286196572841,10.599812563095771,0.5170589663126997,21.604456081551373
111.0,159.87171999007393,11.927326044882385,0.5169475307889055,21.631330129089015
112.0,160.1866251899607,13.492626242196058,0.5168336381769248,21.65882789464578
113.0,158.91232849699603,15.291690150035166,0.5167173217728854,21.68694339458499
114.0,156.09020533379018,17.314855652351934,0.5165986154716263,21.715670509721484
115.0,151.85510763610006,19.54688812564525,0.5164775537543388,21.74500298557647
116.0,146.40914126014562,21.967364714800787,0.5163541716776334,21.774934432274375
117.0,139.9871110421168,24.551088461373293,0.5162285048675753,21.805458323259636
118.0,132.8244932846935,27.268702987325863,0.5161005895066844,21.836567995676198
119.0,125.13517194693522,30.087349734454193,0.5159704623266624,21.8682566493458
120.0,117.10060595005496,32.97147156002075,0.5158381605968001,21.90051734680927
121.0,108.86802559086273,35.88379814929061,0.5157037221140949,21.933343012947834
122.0,100.55384430175515,38.78658610437888,0.5155671851947491,21.96672643421738
123.0,92.24923053597296,41.64310537973869,0.5154285886616453,22.00066025897143
124.0,84.02531209335375,44.419170852675805,0.5152879718370879,22.0351369963427
125.0,75.9378524163731,47.084233275788236,0.515145374529339,22.07014901686942
126.0,68.03142507570318,49.61133782515605,0.515000837026334,22.105688551063064
127.0,60.34438454770079,51.97513407573625,0.5148544000821786,22.141747690087847
128.0,52.91496542307951,54.1477935938285,0.5147061049072168,22.178318385433084
129.0,45.78834853346901,56.093417667566165,0.5145559931598143,22.215392448027334
130.0,39.022708963269906,57.76318422157486,0.5144041069337889,22.252961548734557
131.0,32.69147230936826,59.09409651599072,0.514250488748594,22.291017218015178
132.0,26.879208839309825,60.01378675347085,0.5140951815390948,22.329550845731223
133.0,21.670493003280473,60.45196095433775,0.5139382286450547,22.368553681063055
134.0,17.134230948579994,60.35577067820298,0.5137796738005119,22.408016832495896
135.0,13.308449891739793,59.70417095513499,0.5136195611231799,22.447931267830683
136.0,10.190884965833472,58.516042319154806,0.5134579351042441,22.4882878140724
137.0,7.738739594869151,56.84921129465984,0.5132948405971368,22.529077157748016
138.0,5.877106970727769,54.79104553409369,0.513130322807287,22.57028984488638
139.0,4.512905983596006,52.44420439504829,0.5129644272814516,22.611916281198514
140.0,3.5498393575380236,49.91208908929652,0.5127971998970554,22.653946732297108
141.0,2.900745372262489,47.2875521293022,0.5126286868515155,22.69637132396781
142.0,2.495562007552479,44.646434674145674,0.5124589346515623,22.73918004249075
143.0,2.2849039705118575,42.04566686681326,0.5122879901025466,22.78236273501894
144.0,2.24031024497921,39.524610246279316,0.5121159002977259,22.825909110019893
145.0,2.352490506434043,37.10810087082325,0.5119427126075629,22.869808737768494
146.0,2.6286701535209014,34.80995697076017,0.5117684746691792,22.91405105080566
147.0,3.08962581827772,32.63620369732437,0.5115932343753268,22.958625344733868
148.0,3.7668224733442863,30.587665596588256,0.5114170398639003,23.00352077877083
149.0,4.699634556473916,28.661891383607603,0.5112399395071671,23.048726376527057
150.0,5.932653242388629,26.854491466585234,0.5110619819010521,23.094231026822143
151.0,7.5130410589685015,25.16002510131527,0.5108832158544283,23.140023484570456
152.0,9.487931418362043,23.572566611072762,0.5107036903784055,23.186092371741477
153.0,11.901916690968497,22.086055152349264,0.5105234546756321,23.232426178389225
154.0,14.794709886841098,20.694505134682647,0.510342558129593,23.279013263760984
155.0,18.19905048147208,19.392128287152694,0.510161050293909,23.32584185749586
156.0,22.13898120647656,18.17340570983414,0.5099789808816184,23.372900060919473
157.0,26.62846352485893,17.03312862962277,0.509796399754713,23.420175848231057
158.0,31.670607790186217,15.96643395347396,0.5096133569131402,23.467657068174592
159.0,37.257275241601896,14.968840129179862,0.5094299024844876,23.515331445136404
160.0,43.36903246755468,14.036286909505842,0.509246086713092,23.563186580978957
161.0,49.97537873674147,13.165189155908223,0.5090619599490892,23.611209957464453
162.0,57.035532551027785,12.352562550962261,0.5088775726386268,23.659388936694697
163.0,64.49930373426974,11.596173560427376,0.5086929753126239,23.707710763670093
164.0,72.30802674340083,10.894743011373563,0.5085082185761562,23.756162568378393
165.0,80.39561487158437,10.248200195970417,0.5083233530980038,23.80473136774932
166.0,88.68983782938335,9.65797833243683,0.5081384296001747,23.85340406739736
167.0,97.11394763240247,9.127300321273337,0.5079534988470698,23.902167464194765
168.0,105.58869052801582,8.661419503873404,0.5077686116349268,23.951008248754057
169.0,114.03481446533246,8.267784980413191,0.5075838187813215,23.99991300771016
170.0,122.3758457388626,7.956086405411312,0.5073991711146547,24.048868225960007
171.0,130.5405372581784,7.738142823623963,0.5072147194634048,24.09786028989752
172.0,138.46384437772008,7.627638219889315,0.5070305146456826,24.14687548960112
173.0,146.0852214892341,7.639688095154133,0.5068466074585944,24.195900021959243
174.0,153.34326450894358,7.790265145756871,0.5066630486677125,24.244919993610747
175.0,160.16680765805546,8.095510211285507,0.5064798889964176,24.293921423862987
176.0,166.46428017796262,8.570960169234539,0.5062971791153665,24.342890247905355
177.0,172.1152216063491,9.230759521607128,0.5061149696319552,24.391812320151942
178.0,176.96844821585344,10.086895388929468,0.5059333110796956,24.44067341756001
179.0,180.8505293733724,11.148492734113345,0.5057522539073916,24.489459242953632
180.0,183.5850807539407,12.42124807719396,0.5055718484689782,24.538155428938882
181.0,185.01930362560634,13.906979910883065,0.5053921450123239,24.58674754124304
182.0,185.05010742384263,15.603373304173646,0.5052131936693539,24.635221082885682
183.0,183.64371519721598,17.503862867890277,0.5050350444442603,24.683561497654026
184.0,180.84128181880993,19.59771722204413,0.504857747203319,24.731754174427746
185.0,176.75105100376808,21.87024303153435,0.5046813516646658,24.77978445136529
186.0,171.53088097353356,24.303112215362596,0.5045059073873042,24.82763762003537
187.0,165.36612794598085,26.87479194641054,0.5043314637599383,24.87529892971411
188.0,158.44840644226463,29.561042580218327,0.5041580699899418,24.92275359188207
189.0,150.95947967910988,32.33546136778168,0.5039857750935116,24.9699867849435
190.0,143.06136885005668,35.17005687701238,0.5038146278841024,25.016983658760335
191.0,134.8921098684989,38.03590318078969,0.5036446769608903,25.06372933946023
192.0,126.56584857416217,40.9038871166716,0.5034759706990718,25.110208934447645
193.0,118.17500671000693,43.745584181804624,0.5033085572383472,25.15640753733096
194.0,109.79328035655699,46.53427638773561,0.5031424844707678,25.202310233058704
195.0,101.47872857761243,49.24599433599453,0.502977800031248,25.24790210318222
196.0,93.27630273978436,51.860404576390074,0.5028145512855805,25.293168231161633
197.0,85.2202277738086,54.361183768601094,0.50265278531899,25.338093707814465
198.0,77.33667009256742,56.735397230950774,0.5024925489248477,25.382663636883493
199.0,69.64720551210164,58.97154569705253,0.5023338885932137,25.426863140697712
200.0,62.173323415770916,61.05617191077302,0.5021768504996327,25.47067736590518
201.0,54.94162621517162,62.969573212332065,0.5020214804939832,25.514091489260785
202.0,47.98881982782767,64.68162399415729,0.501867824087402,25.55709072375714
203.0,41.36465713665501,66.14955229640498,0.5017159264434604,25.599660324304637
204.0,35.13163445127095,67.31888681166153,0.5015658323627087,25.641785594346445
205.0,29.360071095509216,68.12880446232067,0.5014175862738248,25.683451891679695
206.0,24.119347273292398,68.5210472979336,0.5012712322199537,25.72464463502619
207.0,19.467052917697583,68.45055686462781,0.5011268138472887,25.765349310353592
208.0,15.438995675645014,67.89492108789196,0.5009843743930216,25.805551477356016
209.0,12.04279438568112,66.8600015407394,0.5008439566730745,25.84523677603744
210.0,9.256694755739712,65.38030937253572,0.5007056030697917,25.884390933368977
211.0,7.033623071824105,63.514313924250686,0.5005693555197003,25.922999769999596
212.0,5.308986586723878,61.33629860235591,0.5004352555010916,25.9610492070397
213.0,4.010057579940297,58.927054034868824,0.5003033440213815,25.99852527295294
214.0,3.06486089071767,56.3654657025559,0.5001736616045318,26.035414110479913
215.0,2.4091462821822334,53.72233746180755,0.5000462482784406,26.071701983607525
216.0,1.9908944054225726,51.05687348229404,0.4999211435620659,26.107375284640128
217.0,1.7724791173800574,48.41555033124067,0.49979838645265784,26.142420541275953
218.0,1.7310065693964902,45.83271985398105,0.4996780154128433,26.176824423746798
219.0,1.8574447555920897,43.33221735863699,0.4995600683575585,26.210573752021848
220.0,2.1550725148520353,40.92937105034654,0.4994445826408888,26.243655503054327
221.0,2.6375927716754433,38.632995892629,0.49933159504308133,26.276056817998466
222.0,3.3271546484100343,36.44714410676322,0.4992211417573391,26.30776500949
223.0,4.252372794828811,34.37252462411494,0.4991132583764859,26.338767568969473
224.0,5.446377937114542,32.40759137430502,0.49900797987961143,26.36905217401368
225.0,6.944913503339197,30.549342700544667,0.4989053406186684,26.39860669567704
226.0,8.784492043129601,28.793889527586263,0.4988053743051166,26.427419205807986
227.0,11.000635051498175,27.136848232381997,0.4987081139965588,26.455477984351017
228.0,13.626227912135631,25.573606018807787,0.4986135920828553,26.48277152679993
229.0,16.690026454985517,24.09949569437873,0.4985218402731533,26.509288551330627
230.0,20.215361972090534,22.709909389307988,0.49843288958162024,26.535018006332333
231.0,24.2190669419917,21.400369238941916,0.49834677031534724,26.559949077180523
232.0,28.710678708261955,20.16657774164693,0.4982635120586067,26.584071194201876
233.0,33.691943194523844,19.00445189873211,0.49818314366206656,26.607374038915353
234.0,39.156580802623054,17.910160899219406,0.4981056932234581,26.629847553184145
235.0,45.09020533213649,16.88015133222976,0.4980311880786723,26.651481944722583
236.0,51.470547169040294,15.911186580767497,0.4979596547939275,26.672267692075923
237.0,58.26775691059579,15.000416177776877,0.4978911191411972,26.69219555550389
238.0,65.44504970978618,14.14546581202846,0.497825606091218,26.71125658159436
239.0,72.95922880127823,13.344556023527998,0.49776313979894415,26.729442110472018
240.0,80.76131651594733,12.596661632500835,0.49770374358968855,26.74674378270815
241.0,88.79724861921913,11.901708228249253,0.49764743994611,26.763153545858138
242.0,97.0086255737606,11.260793012491842,0.4975942504956573,26.778663660751103
243.0,105.33362408102761,10.676415249140414,0.4975441959976714,26.79326670782617
244.0,113.70815090365568,10.152689697646844,0.49749729633061285,26.80695559334204
245.0,122.0673192653936,9.695519040942639,0.4974535704785892,26.8197235557703
246.0,130.34704544723462,9.312664824927719,0.497413036522621,26.831564170311207
247.0,138.48584531479182,9.013769097758598,0.49737571162005156,26.842471357790647
248.0,146.42590923660524,8.810202591991398,0.4973416120025444,26.8524393864782
249.0,154.11300177782798,8.714827072300237,0.4973107529558497,26.86146288065332
