Time,J,A,S,tau
0.0,100.0,100.0,0.8313023177239346,27.027027027027028
1.0,99.9265682599621,36.78873045522467,0.8306969725912513,28.026182068448936
2.0,99.8543172665625,13.53368662333933,0.830101156662016,29.02541374359993
3.0,99.78317529063787,4.978736595628239,0.8295143087974282,30.02468447829043
4.0,99.71307564126464,1.831582992154204,0.828935898359242,31.02399057785154
5.0,99.64395374944392,0.6738228676377652,0.8283654101355888,32.023328687335955
6.0,99.5757460326281,0.24791143640627272,0.8278024234630632,33.022681613447546
7.0,99.50839091140709,0.09122924275892384,0.8272465191863844,34.02203453978649
8.0,99.44182956018896,0.033589777149132145,0.8266972083715409,35.02138746612543
9.0,99.37600473962387,0.012385648566725105,0.8261540152606408,36.020740392464376
10.0,99.31086067995113,0.004585161916644088,0.8256164763038661,37.02009331880332
11.0,99.24634296819066,0.001715539439564891,0.825084139221936,38.01944624514226
12.0,99.18239843888013,0.0006598590131817153,0.8245565620980222,39.018799171481206
13.0,99.11897506808727,0.0002714821067185396,0.8240333124968651,40.01815209782013
14.0,99.05602187043473,0.0001285897266933475,0.8235139666089093,41.01750502415902
15.0,98.99348879888136,7.600512388103645e-05,0.822998108417329,42.01685795049794
16.0,98.93132664701368,5.664264086965954e-05,0.8224853288859002,43.01621087683684
17.0,98.86948695360826,4.9501850271377685e-05,0.8219752251657275,44.01556380317574
18.0,98.80792190922601,4.6857151418666575e-05,0.8214673998188398,45.01491672951464
19.0,98.74658426462285,4.586652769997464e-05,0.8209614600568662,46.01426965585354
20.0,98.68542724073824,4.548448436931932e-05,0.8204570169928057,47.01362258219245
21.0,98.6244044400756,4.5326321527784573e-05,0.8199536849043499,48.012975508531355
22.0,98.56346975926955,4.5250665579787704e-05,0.8194510805070481,49.012328434870255
23.0,98.50257730255795,4.5205119524811284e-05,0.8189488222350046,50.01168136120916
24.0,98.44168129621825,4.517016625404461e-05,0.81844652952943,51.01103428754807
25.0,98.38073600537723,4.5140875988163176e-05,0.8179438221472883,52.01038721388698
26.0,98.3196956471972,4.511274322499349e-05,0.8174403194391064,53.00974014022589
27.0,98.25851431568674,4.508483047251484e-05,0.8169356397245121,54.009093066564795
28.0,98.19714582775116,4.50569896728877e-05,0.8164293990102627,55.0084459929037
29.0,98.13554408923481,4.5029238786168205e-05,0.8159212140413722,56.00779891924262
30.0,98.07366192675218,4.500140715049237e-05,0.8154106925719529,57.007151845581525
31.0,98.01145174659413,4.4973326700693636e-05,0.8148974388555432,58.00650477192043
32.0,97.94886595224942,4.494482970318782e-05,0.8143810571222977,59.00585769825934
33.0,97.88585632272047,4.4915915630465876e-05,0.813861146401233,60.00521062459825
34.0,97.82237322845944,4.4887006920208946e-05,0.8133372939951391,61.004563550937156
35.0,97.75836687479826,4.4858496526679964e-05,0.8128090858325775,62.003916477276064
36.0,97.69378631639407,4.483000684347837e-05,0.8122760982641989,63.003269403614965
37.0,97.62857900969044,4.480086349708985e-05,0.8117378943400301,64.00262232995388
38.0,97.56269219415955,4.477068455775722e-05,0.8111940353044281,65.00197525629278
39.0,97.49607159982727,4.474041913450846e-05,0.8106440698397958,66.0013281826317
40.0,97.4286609036366,4.521706322677513e-05,0.8100875872417584,67.00067166966409
41.0,97.36040160943399,4.673539109236061e-05,0.8095242309383496,67.99998442920318
42.0,97.29123491208951,4.879510794860551e-05,0.8089535355241426,68.99926252143669
43.0,97.22110040857346,5.121134818217476e-05,0.8083750202949737,69.99850232181912
44.0,97.1499359474738,5.393361343882057e-05,0.8077881921739005,70.99769983624046
45.0,97.07767750829328,5.695752064223007e-05,0.8071925449870464,71.99685065303316
46.0,97.00425908344421,6.030289796675464e-05,0.8065875587889887,72.99594989025529
47.0,96.92961255507244,6.399965547938524e-05,0.8059726991866705,73.99499213573434
48.0,96.85366756777475,6.808420320459109e-05,0.805347416674749,74.99397137915793
49.0,96.77635139668548,7.259897662538684e-05,0.8047111459851044,75.99288093496168
50.0,96.69758881039516,7.759255055078198e-05,0.8040633054544419,76.99171335452807
51.0,96.61730193123594,8.311923356556086e-05,0.8034032964342792,77.99046032709334
52.0,96.5354100898771,8.924032869480741e-05,0.8027305027321555,78.9891125668601
53.0,96.45182967435396,9.60261751520169e-05,0.802044290095845,79.98765968439135
54.0,96.3664739736223,0.00010355483132184648,0.8013440057537805,80.98609004004663
55.0,96.2792530155335,0.00011191482469838192,0.8006289780252461,81.98439057687806
56.0,96.19007339918792,0.00012120738433128824,0.7998985160152979,82.98254663022598
57.0,96.0988381209844,0.0001315470231294774,0.7991519094094035,83.9805417102787
58.0,96.00544639416016,0.00014306354899602323,0.7983884283876059,84.97835725370682
59.0,95.90979346154788,0.00015590427278697715,0.7976073236809876,85.97597233981662
60.0,95.8117704012287,0.0001702365023880818,0.7968078267964859,86.97336336598438
61.0,95.71126392473958,0.00018625038674063672,0.7959891504400893,87.97050367635504
62.0,95.60815616746842,0.00020416216872804282,0.7951504891729593,88.96736313689875
63.0,95.50232447084841,0.000224217856400987,0.794291020340172,89.96390764890627
64.0,95.39364115589282,0.00024669710056573715,0.7934099053174827,90.9600985918067
65.0,95.28197328750313,0.00027191869005718805,0.7925062911280754,91.95589218477308
66.0,95.16718242940715,0.0003002459796606603,0.7915793124897017,92.95123875557228
67.0,95.04912438843017,0.00033209412021296367,0.7906280943586722,93.94608190220715
68.0,94.92764894861561,0.00036793795931620973,0.7896517550490878,94.94035753326868
69.0,94.80259959541856,0.00040831297596037266,0.7886494100138598,95.93399277074288
70.0,94.67381322317927,0.0004538305204828569,0.7876201763842059,96.92690468679778
71.0,94.54111983158053,0.0005051975068588419,0.78656317838695,97.9189988599504
72.0,94.40434221340857,0.0005632114437813049,0.7854775537465946,98.91016773289716
73.0,94.26329561505905,0.0006287852107908806,0.7843624612526032,99.90028870989839
74.0,94.11778739539487,0.0007029666651985225,0.7832170895794015,100.88922201320614
75.0,93.9676166558913,0.000786935429564319,0.7820406676089315,101.87680820972682
76.0,93.81257385517809,0.0008820567234502036,0.7808324764020825,102.86286539737159
77.0,93.65244041006638,0.0009898695153514492,0.7795918629794478,103.8471860200871
78.0,93.48698825965589,0.001112133259517435,0.7783182563029757,104.82953319994097
79.0,93.31597942447642,0.0012508619726300844,0.7770111854170896,105.80963663537227
80.0,93.13916552633474,0.001408316266112799,0.7756703002904228,106.78718790672407
81.0,92.95628728619967,0.0015871020593406695,0.774295395436018,107.76183519267506
82.0,92.76707400262232,0.0017901414883206579,0.7728864364724538,108.73317736019627
83.0,92.57124298256326,0.002020756850022915,0.7714435902787647,109.70075725268862
84.0,92.3684989665125,0.0022827229275688287,0.7699672582652162,110.66405431524853
85.0,92.15853350635633,0.0025802405581716687,0.7684581136434915,111.62247631153686
86.0,91.94102432201213,0.002918106024389991,0.7669171423360668,112.57535022302447
87.0,91.71563464377283,0.0033016315387769464,0.7653456873746559,113.52191234733326
88.0,91.48201251149489,0.0037367782924607124,0.7637454974477154,114.46129740362116
89.0,91.23979009182227,0.004230211914060889,0.7621187778515383,115.39252704702075
90.0,90.98858297096442,0.004789210430509998,0.7604682446867291,116.31449753418848
91.0,90.72798947031619,0.0054219167537888305,0.7587971804241744,117.22596694738976
92.0,90.45759000888913,0.006137116802852404,0.7571094893868637,118.12554225990766
93.0,90.17694649806216,0.006944398639938951,0.7554097526968563,119.01166627335033
94.0,89.88560186731657,0.00785413245890552,0.7537032780489654,119.88260545894157
95.0,89.58307969660173,0.008877187427059341,0.7519961437904699,120.73643872344765
96.0,89.26888404431017,0.010025213942859953,0.7502952321140521,121.57104824558111
97.0,88.94249952942907,0.011310084104114437,0.7486082472305844,122.38411326566815
98.0,88.60339168922539,0.012743972431997546,0.7469437153560439,123.17310746684375
99.0,88.2510077498523,0.014339083695081292,0.7453109585872283,123.93530177501209
100.0,87.88477781455231,0.016106988466417768,0.7437200402295049,124.66777304548621
101.0,87.50411657879715,0.018058732276227726,0.7421816745158137,125.36742029950244
102.0,87.10842562494311,0.020204058229329233,0.7407070970007709,126.03098938926469
103.0,86.69709631358617,0.022550909018111694,0.7393078931177287,126.65510667889905
104.0,86.27917969521334,0.04173938858395288,0.7379957827761341,127.2363223816661
105.0,85.859542489689,0.07008432193306714,0.7367823639969829,127.77116304604809
106.0,85.43777085676811,0.10101865297202912,0.7356788190484121,128.2561923351647
107.0,85.01620010939658,0.1346911209164026,0.7346955930204545,128.68807828600208
108.0,84.59754254264853,0.17123642688467097,0.7338420526088286,129.06366508245614
109.0,84.18490261195569,0.2107712803185698,0.7331261517963418,129.38004408297385
110.0,83.78178647799776,0.25339050137681784,0.7325540962744976,129.6346247924986
111.0,83.39209813341954,0.2991638219309878,0.732130062054275,129.8251950684706
112.0,83.02012677284603,0.34813320296393907,0.7318559526635107,129.94997264738439
113.0,82.67052548581432,0.40031027533112534,0.7317311595434477,130.00765446626536
114.0,82.34825659104649,0.45567759790792195,0.7317526478634502,129.99740184585548
115.0,82.05854849450992,0.5141844398421931,0.7319145376445355,129.91891932184902
116.0,81.80682574535375,0.5757529522236585,0.7322086447565562,129.7723495138519
117.0,81.59863334200655,0.6402765436013276,0.7326242782883581,129.5583067243188
118.0,81.43953763310985,0.7076235051290896,0.7331485148911004,129.27781858852288
119.0,81.33502749354288,0.7776398403314657,0.7337664092499896,128.93227865717623
120.0,81.29040798402086,0.8501530350827333,0.7344612885724349,128.52338306110553
121.0,81.31069108494364,0.9249756395452257,0.7352150329005082,128.05307016832867
122.0,81.40048806794069,1.0019087635011032,0.7360083553364188,127.52346104306785
123.0,81.56389747347653,1.0807454559069634,0.7368210754391148,126.93680191357163
124.0,81.80439883540639,1.1612738754299181,0.7376323870977405,126.29540925905643
125.0,82.12475920071724,1.2432801610057518,0.7384211070948579,125.6016209531422
126.0,82.57686433662505,1.2550912816372137,0.815239968521178,32.01546143104998
127.0,83.053918801037,1.2291278828592458,0.8300501951092111,25.176174179302468
128.0,83.46405894333896,1.2658266162206402,0.8366819776629084,21.99914184432636
129.0,83.84317563398564,1.4447857713583894,0.8401502983743032,19.992822008298702
130.0,84.33237712217313,1.7424697413026622,0.8418528794118127,18.564919890967623
131.0,85.02209201470976,2.150819501067416,0.8424000773838124,17.479741107367506
132.0,85.95915666242904,2.666545143224271,0.8421187928865663,16.619500396785384
133.0,87.14384279957811,3.28835254987252,0.8412068174372369,15.916925348445364
134.0,88.5284489025067,4.0157026633822674,0.8397941399896449,15.330026827106005
135.0,90.02065709065293,4.848160074751168,0.8379714647644477,14.830900965100675
136.0,91.4930343449631,5.785002055604518,0.835805087380776,14.400108150537587
137.0,92.79803687580342,6.82497355405276,0.833345297682555,14.023602305551318
138.0,93.78628824595171,7.966129621127537,0.8306314228023941,13.690940207555112
139.0,94.3279445417943,9.202941040611426,0.8276950064187021,13.394180110471886
140.0,94.42316547123907,10.441219133034377,0.8245619335553575,13.12716142922459
141.0,94.06348637284933,11.658453938743186,0.8212538487950145,12.885036077381223
142.0,93.06882188394518,13.018319669842375,0.8177891798781267,12.66393322973032
143.0,91.25377820349537,14.67459214104205,0.8141838533122333,12.460731522930159
144.0,88.52441318516186,16.704927083836356,0.8104518343045197,12.272888871460577
145.0,84.90671547705958,19.114014436283902,0.8066055267024697,12.098318538287456
146.0,80.54943525780264,21.836620149757707,0.8026560805403885,11.935295079132814
147.0,75.68963208182471,24.748638947471676,0.7986136281698666,11.78238308424218
148.0,70.59901501550365,27.687402216769478,0.7944874704382263,11.6383820053108
149.0,65.53625287570414,30.47840773612064,0.7902862246503202,11.502282671599882
150.0,60.71605166197216,32.96297439247062,0.7860179420769796,11.3732330939581
151.0,56.28917299231658,35.02476405724739,0.7816902033762029,11.250510990483939
152.0,52.31565507875385,36.62439926754161,0.7773101953546984,11.133501787258659
153.0,48.810649283941515,37.75945605107766,0.7728847747593713,11.021680700601973
154.0,45.799434296845575,38.41308025596269,0.7684205182314807,10.914598188127979
155.0,43.288061348816576,38.58514030855305,0.7639237652260084,10.811867865345393
156.0,41.22935979748922,38.32706024547334,0.7594006526161767,10.713156303141357
157.0,39.52442660001893,37.740850949111525,0.7548571412897449,10.61817527252662
158.0,38.05831336242928,36.94387388256002,0.7502990399521896,10.526674651590623
159.0,36.73591016428019,36.03330102573653,0.745732023071236,10.438436755538264
160.0,35.49540937147459,35.07286737562515,0.7411616454062966,10.353271522575229
161.0,34.30311764595238,34.09816771309563,0.736593353333922,10.271012523869516
162.0,33.142896810343544,33.12726129742289,0.7320324937769752,10.191513470805745
163.0,32.00802615247886,32.16883015618883,0.7274843202702268,10.114645473251922
164.0,30.8962197461249,31.22717117515963,0.7229539976035886,10.04029452971845
165.0,29.807238031218507,30.304587695568866,0.7184466063024753,9.968359270698304
166.0,28.741914015605843,29.40238942195156,0.7139671424968708,9.898749809702327
167.0,27.701608009920136,28.521397532151,0.7095205141857029,9.831385615392463
168.0,26.688102292251067,27.662150462200383,0.705111557440786,9.766194502546096
169.0,25.703355951138725,26.825014414112655,0.7007450103183068,9.703111529688229
170.0,24.749498760117,26.01027326763579,0.6964255339142283,9.642077751161484
171.0,23.828781289493097,25.218186846850852,0.6921576929324235,9.583040228554685
172.0,22.943448085341608,24.44902574155772,0.6879459625595106,9.52595047950176
173.0,22.09577844681534,23.703109072709267,0.683794728526655,9.470764259871782
174.0,21.28797580349878,22.980823964764618,0.6797082691130474,9.417441292390906
175.0,20.52211531792712,22.282625674370962,0.675690770228718,9.365944282431823
176.0,19.800171859847453,21.60907076922804,0.6717463112099741,9.31623902477557
177.0,19.123818604057302,20.960807831794472,0.6678788588673628,9.26829391760277
178.0,18.494458405763776,20.33858106814064,0.6640922798848911,9.222079501273946
179.0,17.913135040105526,19.743256124350637,0.6603903175866226,9.177568577084529
180.0,17.38032864175122,19.17578760574857,0.6567766022260201,9.134735703844434
181.0,16.89605187229785,18.637232104028403,0.6532546520714066,9.09355706535218
182.0,16.459606337044693,18.12874361457134,0.64982784722871,9.054010544610017
183.0,16.06961003885248,17.6515288597902,0.6464994623409068,9.016075206429244
184.0,15.72388909556143,17.20684563295523,0.6432726354894803,8.979731494087915
185.0,15.419397844387374,16.79595103687474,0.6401503798257119,8.944960982690809
186.0,15.152301374599938,16.420067893243395,0.6371355789108867,8.911746320460653
187.0,14.917997882901734,16.08033319805516,0.6342309870617728,8.880071137955312
188.0,14.71116067751799,15.77773482316417,0.6314392259118543,8.849919996627596
189.0,14.525904188004738,15.513049797100884,0.6287627848827436,8.82127831712546
190.0,14.355945185094951,15.286774278651665,0.6262040203030974,8.794132328573811
191.0,14.194815806873402,15.099054352910944,0.6237651549776425,8.76846902194323
192.0,14.03610726155438,14.949619558984505,0.6214482779512331,8.7442761089982
193.0,13.873729034577266,14.837725260946959,0.6192553444533787,8.721541986093726
194.0,13.70216834258315,14.762107671900766,0.6171881760075683,8.700255702189807
195.0,13.51673127413496,14.720956806410358,0.6152484606889188,8.680406930539432
196.0,13.313747500645201,14.71191170179463,0.61343775352039,8.661985943560536
197.0,13.090711816368326,14.732082067844111,0.6117574773913752,8.644983590614983
198.0,12.846404663348439,14.778095833387553,0.6102089224586787,8.629391277401737
199.0,12.58086991714875,14.84617496209349,0.6087932478048637,8.615200950095588
200.0,12.295367004123031,14.932236952865154,0.6075114820528468,8.60240507814641
201.0,11.99224356644894,15.032015237150873,0.6063645241379775,8.590996640112156
202.0,11.674751691912373,15.141193156284967,0.6053531438415427,8.580969111537302
203.0,11.346820409147842,15.255541162010587,0.604477983540585,8.572316450379029
204.0,11.012810736472833,15.371055239341715,0.603739558001229,8.565033093008937
205.0,10.677263744451444,15.484079869323141,0.6031382556333427,8.559113940347368
206.0,10.344664535575017,15.591412617764218,0.6026743393265985,8.554554350833
207.0,10.019236349958666,15.690382908204391,0.6023479472690851,8.551350133028274
208.0,9.704775175248987,15.778901134884068,0.6021590937392617,8.54949753901341
209.0,9.404530187538278,15.855477148680931,0.6021076698666561,8.54899325851409
210.0,9.121132782369378,15.91920875347338,0.6021934446184392,8.549834413381028
211.0,8.856564168288601,15.969746626255608,0.6024160650187083,8.552018554030385
212.0,8.612164326739421,16.007236431672993,0.6027750568633439,8.555543655454654
213.0,8.388676933879527,16.03224608551273,0.6032698261095395,8.560408115248894
214.0,8.186306894126709,16.045680645685966,0.6038996621163938,8.566610734200433
215.0,8.004740775056359,16.048723809471277,0.6046637212624419,8.574150765065196
216.0,7.843333108210737,16.04271886259066,0.6055610576174141,8.583027832374901
217.0,7.701101983348259,16.02912987103818,0.6065906002024047,8.593241996515934
218.0,7.576827862889507,16.009462843406062,0.6077511589905251,8.60479373706655
219.0,7.469127655899607,15.985211742311158,0.6090414289269848,8.617683944822927
220.0,7.376508566937932,15.957817853286906,0.6104599890412385,8.631913920129916
221.0,7.2974266943410555,15.92863320086681,0.6120053016693928,8.647485391073042
222.0,7.230332759457031,15.898895491206373,0.6136757133676952,8.664400509244883
223.0,7.173710858288872,15.869712027620876,0.615469456368845,8.682661855835617
224.0,7.1261109600091945,15.842049341452288,0.6173846492606603,8.70227244731424
225.0,7.086174088197204,15.816729968206502,0.6194192978444427,8.723235743314335
226.0,7.052653378996258,15.79443261942252,0.6215712960884386,8.745555656155634
227.0,7.02442998932318,15.775696699211288,0.6238384271131994,8.769236562304126
228.0,7.000523910513882,15.760929822535488,0.6262183644112475,8.794283316544131
229.0,6.98010400957166,15.750416835469743,0.6287086720583356,8.820701271611371
230.0,6.962487041669693,15.744332669285688,0.6313068072376703,8.848496296852035
231.0,6.947131863207535,15.742757765386656,0.6340101253991054,8.877674779195761
232.0,6.933658925709874,15.745686397855119,0.6368158746040669,8.90824367384438
233.0,6.921819004739872,15.753042423243613,0.6397211989322155,8.940210562046548
234.0,6.911480069691673,15.76470096754188,0.6427231604627693,8.97358350851041
235.0,6.90266129245604,15.780486364954315,0.6458186915156857,9.008371502250913
236.0,6.89553257254329,15.800203232584728,0.649004648232177,9.044584043055282
237.0,6.890273327248338,15.82363990730747,0.6522778061012255,9.082231357313473
238.0,6.8872041585130415,15.85057961094143,0.6556348331586658,9.121324610145603
239.0,6.886692492525595,15.880813460606664,0.6590723179179968,9.16187580517286
240.0,6.889191692872927,15.914149001446189,0.6625867661260145,9.203897871770804
241.0,6.895185440173289,15.950420210646726,0.6661745968574597,9.24740489306526
242.0,6.905207643198335,15.989488281631376,0.6698321621543634,9.29241192704641
243.0,6.919813510390348,16.03125741361987,0.6735557266489207,9.338935547191543
244.0,6.939580082037788,16.07566444035369,0.6773414977425484,9.386993445660002
245.0,6.965095176494533,16.12269573200744,0.6811856051759924,9.436605088840336
246.0,6.996946986830173,16.172378139171354,0.6850841183656736,9.487791554509792
247.0,7.03573316775392,16.2247834660674,0.6890330471041,9.540575794825445
