Time,J,A,S,tau
0.0,100.0,100.0,0.7369108864276758,37.03703703703704
1.0,99.84799174027246,36.78882237378513,0.7357945531195933,38.036344803583944
2.0,99.69797230130894,13.533712958051915,0.7346932278111513,39.03567016730997
3.0,99.54988357271891,4.978729557427314,0.7336061177686831,40.034995531036
4.0,99.40362149179462,1.8315612798794338,0.7325324563689714,41.034320894762025
5.0,99.25908478366341,0.6737953438390519,0.7314714975157437,42.033646258488055
6.0,99.11617480498744,0.24788167306203077,0.7304225144884254,43.03297162221409
7.0,98.97479539273242,0.09119848049736262,0.729384798828209,44.03229698594013
8.0,98.83485271773502,0.03355857023398967,0.7283576592594475,45.03162234966616
9.0,98.69625514280902,0.012354251889480689,0.7273404206444617,46.030947713392194
10.0,98.55891308513931,0.004553692412269242,0.7263324229699087,47.030273077118224
11.0,98.42273888272182,0.0016840461333983048,0.7253330203629338,48.02959844084426
12.0,98.287646664616,0.0006283615159711739,0.7243415801353856,49.02892380457029
13.0,98.15355222478468,0.00023998861648542825,0.7233574818544356,50.02824916829629
14.0,98.0203728993045,9.71041572996872e-05,0.7223801164380065,51.0275745320223
15.0,97.888027446735,4.4528581757964804e-05,0.7214088852734475,52.02689989574826
16.0,97.7564359314472,2.5175547333289692e-05,0.7204431993579912,53.02622525947424
17.0,97.62551960971251,1.8044302796390326e-05,0.7194824784595234,54.02555062320021
18.0,97.49520081836336,1.540919548402863e-05,0.7185261502962775,55.0248759869262
19.0,97.36540286584464,1.4428149508240564e-05,0.7175736497341212,56.024201350652184
20.0,97.23604992548117,1.4055647272760042e-05,0.7166244180001474,57.02352671437816
21.0,97.10706693080549,1.390704952663688e-05,0.7156779019114228,58.02285207810414
22.0,96.9783794726593,1.3840840911567616e-05,0.7147335531167847,59.02217744183011
23.0,96.84991369777582,1.380490257218023e-05,0.7137908273495375,60.02150280555608
24.0,96.72159620966836,1.3780068538558042e-05,0.7128491836971214,61.020828169282055
25.0,96.5933539736299,1.3759579442914142e-05,0.7119080839008947,62.02015353300803
26.0,96.46511421353098,1.3740537072113368e-05,0.7109669915957496,63.01947889673401
27.0,96.33680432320604,1.3722329231805418e-05,0.7100253716575023,64.01880426045997
28.0,96.208351760341,1.3704144535635696e-05,0.7090826894187793,65.01812962418595
29.0,96.07968426829423,1.3685904943052248e-05,0.708138412316968,66.01745498791192
30.0,95.95072925100143,1.3667553177775562e-05,0.7071920052653582,67.0167803516379
31.0,95.82141327343379,1.3649147765309955e-05,0.7062429269636861,68.01610571536388
32.0,95.69166289141548,1.363074872491411e-05,0.7052906360439846,69.01543107908985
33.0,95.56140466077069,1.3612416075846714e-05,0.7043345911382866,70.01475644281582
34.0,95.43056502827457,1.3594179744553487e-05,0.7033742500710046,71.01408180654181
35.0,95.29906923740722,1.357582649980131e-05,0.7024090617640243,72.01340717026778
36.0,95.1668419556843,1.3557135830428843e-05,0.701438470885807,73.01273253399376
37.0,95.0338072773985,1.3538230849784509e-05,0.7004619178703863,74.01205789771974
38.0,94.89988792154648,1.3519313875823641e-05,0.6994788329954977,75.01138326144572
39.0,94.76500651551129,1.35005427817811e-05,0.6984886458616171,76.0107086251717
40.0,94.62908425011734,1.3481775599255778e-05,0.6974907754611658,77.01003398889767
41.0,94.49204047976458,1.346267765918808e-05,0.6964846272308604,78.00935935262365
42.0,94.35379443889849,1.3442959987575348e-05,0.6954696057218914,79.00868471634962
43.0,94.21426384283954,1.3422996885898159e-05,0.6944451042705665,80.00801008007561
44.0,94.0733646268447,1.3403249807242873e-05,0.6934105030753089,81.00733544380158
45.0,93.93101174303327,1.338346541980903e-05,0.6923651750779929,82.00666080752755
46.0,93.78711779420732,1.3363329465725497e-05,0.6913084758830387,83.00598617125353
47.0,93.64159497044487,1.3342711819219784e-05,0.6902397580481964,84.0053115349795
48.0,93.49435241243579,1.3321821728179657e-05,0.6891583516279037,85.00463689870547
49.0,93.34529747431324,1.3300948361699665e-05,0.6880635734943674,86.00396226243144
50.0,93.19433698210842,1.3280163639205081e-05,0.6869547366217917,87.00328762615742
51.0,93.0413742255341,1.3259012676824013e-05,0.6858311278891367,88.0026129898834
52.0,92.88631104752416,1.3237147297184358e-05,0.6846920235009599,89.00193835360938
53.0,92.72904723234309,1.3214850955769444e-05,0.6835366844700191,90.00126371733535
54.0,92.56947936005608,1.3192529112486823e-05,0.6823643481676492,91.00058908106132
55.0,92.40750316125126,1.3170192956850994e-05,0.6811742456961016,91.99991444478731
56.0,92.24301002893057,1.3147424196270649e-05,0.6799655761529206,92.99923980851328
57.0,92.07588992898042,1.3123913492418366e-05,0.6787375281066346,93.99856517223925
58.0,91.90603049837472,1.3099822083849694e-05,0.6774892729398798,94.99789053596523
59.0,91.73331489808005,1.3075596580393758e-05,0.676219949011145,95.99721589969121
60.0,91.55762560117073,1.3051473844358983e-05,0.6749286896028709,96.99654126341719
61.0,91.37884067835516,1.3026943019555929e-05,0.673614595513508,97.99586662714316
62.0,91.19683504329774,1.300149833283546e-05,0.6722767442497354,98.99519199086913
63.0,91.01148172936695,1.2975461394899741e-05,0.6709141994430295,99.9945173545951
64.0,90.82264966974446,1.3040769414436112e-05,0.6695260247496091,100.99383736884175
65.0,90.63020335825377,1.4095855883793217e-05,0.6681116422639949,101.99307737806572
66.0,90.43400466157192,1.5909753863178567e-05,0.6666702459796362,102.99219911260825
67.0,90.23391237821546,1.825346983837339e-05,0.6652009082056508,103.99118155665053
68.0,90.02978176687265,2.1089074506822903e-05,0.6637026965298143,104.98999965881853
69.0,89.82146447118215,2.4459956348873253e-05,0.6621746775162837,105.98862351437441
70.0,89.60880844778528,2.8449807814461673e-05,0.6606159212958836,106.98701737674807
71.0,89.39165789530041,3.3171277216367176e-05,0.6590255072249126,107.98513845971465
72.0,89.16985318674419,3.876398152061842e-05,0.6574025308345444,108.98293548873589
73.0,88.94323080341232,4.539766016472874e-05,0.655746112323089,109.98034694726232
74.0,88.71162327068657,5.327698154339899e-05,0.65405540690439,110.97729895437304
75.0,88.474859094597,6.264887657470512e-05,0.6523296173836126,111.97370269548976
76.0,88.2327626990968,7.381053906991996e-05,0.6505680093950561,112.96945131557786
77.0,87.9851543633373,8.71194228312032e-05,0.6487699298011651,113.96441616892575
78.0,87.73185015700794,0.0001030055457386061,0.6469348288593638,114.95844229447107
79.0,87.47266187261665,0.00012198609314654874,0.6450622868439267,115.95134296798058
80.0,87.2073969526105,0.00014468368958753253,0.6431520459277367,116.94289315415215
81.0,86.93585841040961,0.00017184476704215767,0.6412040481716942,117.93282167029066
82.0,86.6578447423479,0.00020436349701052835,0.6392184805843648,118.92080184231955
83.0,86.37314982796399,0.00024331115036069488,0.6371958282692799,119.90644041692856
84.0,86.08156281663535,0.00028995867707545483,0.6351369367292771,120.88926447526622
85.0,85.78286799796783,0.00034582219397691973,0.633043084187028,121.86870612780709
86.0,85.47687932828293,0.000538140007970156,0.6309160647334506,122.84408476925626
87.0,85.16349480138281,0.0010590129855447556,0.6287582824511592,123.8145868007122
88.0,84.84248013372134,0.0016751538493964726,0.6265728565478832,124.77924273271937
89.0,84.51364241886264,0.0024047343750621918,0.6243637357553584,125.73690195125631
90.0,84.17679420244617,0.0032690688778660238,0.6221358193906524,126.68620559551496
91.0,83.83175596570928,0.004292995037241611,0.6198950800857502,127.62555850011789
92.0,83.47835919131495,0.005505229991311438,0.6176486809528798,128.55310163216018
93.0,83.11645011158708,0.006938664524821711,0.6154050763703,129.4666872384287
94.0,82.74589424391814,0.008630547283352627,0.6131740823411533,130.3638596466049
95.0,82.3665817978299,0.010622500392339345,0.610966899090687,131.24184543271403
96.0,81.97843399376211,0.01296029576504008,0.6087960648410193,132.09755758995308
97.0,81.58141033766235,0.015693329099239373,0.6066753218625983,132.9276179300774
98.0,81.17551670073114,0.01887371960205112,0.6046193727251025,133.72840293137904
99.0,80.76081411327657,0.022555010566904666,0.6026435184396203,134.49611520699852
100.0,80.3374278488112,0.026790463268052005,0.600763174593915,135.22688220638562
101.0,79.90555643950897,0.03163101069877104,0.59899328348591,135.9168788479357
102.0,79.46548002463807,0.03712299139968726,0.5973476555193455,136.56246752461087
103.0,79.01756727227999,0.04330587082047001,0.5958382989966698,137.16034323787838
104.0,78.56228073040222,0.0502101045757052,0.5944747827130437,137.70767390603967
105.0,78.10017899830292,0.057855539435714365,0.5932637461438668,138.20221169094705
106.0,77.63191719412539,0.06625036183940407,0.592208564195973,138.64237219587454
107.0,77.158242723047,0.07539066144967976,0.591309173997847,139.02727888334135
108.0,76.67999090036848,0.08526113614048032,0.5905622511125471,139.35673391463956
109.0,76.19807623640294,0.09583612695975847,0.5899614636995452,139.63116953809848
110.0,75.71348283060566,0.10708130260715223,0.5894979247111398,139.85155617699377
111.0,75.22725348290028,0.11895565670727087,0.5891607407672874,140.01928813761495
112.0,74.74047926126238,0.13141349896979235,0.5889375633338076,140.13606726200456
113.0,74.25428785062434,0.1444064534291593,0.5888151491723551,140.2037834413607
114.0,73.76983312512917,0.157885178032795,0.588779847709771,140.22441000427384
115.0,73.28828515329278,0.17180078584089375,0.5888180078512361,140.19991590814695
116.0,72.81082094670876,0.1861059281894028,0.5889162925508752,140.13219754937822
117.0,72.3386156716622,0.20075557371947184,0.5890619082415738,140.0230288259785
118.0,71.87283479688577,0.21570746733894208,0.5892427472614445,139.87403010149058
119.0,71.41462621445318,0.23092240436161973,0.5894474760834547,139.68664891249466
120.0,70.96511333803144,0.2463642531311616,0.5896655553099304,139.46215570857836
121.0,70.525387911777,0.2619999065123248,0.5898872378847516,139.201644381225
122.0,70.09650385931674,0.2777990742501352,0.5901035221430833,138.90604286893813
123.0,69.67946896832535,0.29373415386738544,0.5903061244504745,138.57611949441915
124.0,69.27523985712436,0.30977987471276996,0.5904873949786094,138.21250207581068
125.0,68.8847159648389,0.32591303116940656,0.590640251307057,137.81569321358606
126.0,68.50873332142937,0.3421122727043564,0.5907581234642211,137.3860831226596
127.0,68.148052449882,0.3583579029596968,0.5908349158408048,136.92395934037208
128.0,67.80336741804976,0.37463140713348186,0.5908648787428333,136.429535584755
129.0,67.47527941780064,0.39091559693884803,0.5908426548149736,135.90294379011524
130.0,67.16431199007678,0.40719405338683684,0.5907631417897162,135.34426495289603
131.0,66.87089490430247,0.42345122288298204,0.5906215116439896,134.75352692457128
132.0,66.59535650583229,0.4396721258881357,0.5904131604995909,134.13071832037843
133.0,66.33793366608226,0.45584231422580135,0.5901336714641232,133.47579691647695
134.0,66.09613055339372,0.470863294543896,0.7176898932692624,36.46873744469452
135.0,65.86292141249073,0.5173967442203375,0.7290993154456403,31.874282047049174
136.0,65.68828347605684,0.5878661658325774,0.7332603876263618,29.5207474756611
137.0,65.60722829893975,0.6817613178886742,0.7347905585192732,27.919390954179605
138.0,65.65164346537993,0.8000641393570767,0.7349656324458856,26.693102229837177
139.0,65.85106289966964,0.9440866392312901,0.7343321102018998,25.6890055774889
140.0,66.2314743455504,1.1151605286142763,0.7331757377100799,24.830566074717286
141.0,66.81354179005267,1.3145031072577233,0.7316643161873041,24.07445708554438
142.0,67.61067123471777,1.5431447499459379,0.7299040408686158,23.394103792566405
143.0,68.62722892788204,1.8018818724115686,0.727965616313731,22.772264511137664
144.0,69.85712691357013,2.09125265559531,0.725897929983242,22.197253462468613
145.0,71.28307842722275,2.4115199332387323,0.723735706781961,21.660876671352288
146.0,72.87651539494566,2.7626657699383164,0.7215041018884285,21.157227672357234
147.0,74.59843422520137,3.144392294679088,0.7192216473487534,20.68193540312175
148.0,76.40100886769547,3.556126386506583,0.7169021673532838,20.23168845981333
149.0,78.2298644885512,3.997034383887606,0.7145560765763075,19.803924869415066
150.0,80.02689937196644,4.466036735271062,0.7121912935365264,19.396618422269157
151.0,81.73329958214178,4.961826255450502,0.709813881573352,19.00813394933679
152.0,83.29271583286842,5.482720201097856,0.7074285103584291,18.637126442936772
153.0,84.65029592884036,6.030581924960627,0.7050388029030416,18.282468036889426
154.0,85.6896517992286,6.6674659530828535,0.7026475865877893,17.943195746478242
155.0,86.28818335608241,7.447039442938288,0.7002570847191042,17.618474554390083
156.0,86.31805837247414,8.413430679465122,0.6978690613827562,17.307569331059582
157.0,85.65620730680337,9.601767075830804,0.6954849328875085,17.009824228794344
158.0,84.20805170342835,11.034901057133892,0.6931058544621169,16.72464720579745
159.0,81.93441163499888,12.720049422845745,0.6907327881090453,16.451498400137325
160.0,78.86784036254821,14.646624409145753,0.6883665575575345,16.189881003696136
161.0,75.10984709947486,16.785622235042094,0.6860078905527087,15.939334403184334
162.0,70.80945232853583,19.091135992317774,0.6836574548775104,15.699428654869687
163.0,66.13467900987457,21.503671110104147,0.6813158876523856,15.469760232280914
164.0,61.24851363838845,23.954935758303638,0.6789838195828923,15.249948547895732
165.0,56.2949573282825,26.373394899797123,0.6766618954622502,15.039633151349113
166.0,51.39394424902739,28.689829034767598,0.6743507915885439,14.838471433454734
167.0,46.64120236193407,30.842244501164604,0.6720512306544082,14.646136724167647
168.0,42.111165267852236,32.77836017553336,0.6697639944370755,14.46231669618539
169.0,37.87575838052071,34.44121036231649,0.6674899350468212,14.286712037632618
170.0,34.01807804424758,35.7585642360084,0.6652299839794996,14.119035291953475
171.0,30.623829200076724,36.653331461405045,0.6629851600759009,13.959009874738001
172.0,27.75682701819201,37.06898847816067,0.6607565760436991,13.80636922835509
173.0,25.430873347339293,36.998011319042426,0.65854544418251,13.660856114660866
174.0,23.598671849730614,36.49294706966965,0.6563530797188776,13.522221938242804
175.0,22.166783358223842,35.651377647760604,0.6541809040022697,13.390226215863722
176.0,21.02692702231016,34.58467398323047,0.6520304461532832,13.264636094375463
177.0,20.083823805380977,33.390372698201865,0.6499033435333408,13.145225934915482
178.0,19.268147161777375,32.139530661262015,0.6478013409969667,13.031776951644979
179.0,18.53617743833,30.87736632438649,0.6457262890243618,12.92407690475749
180.0,17.863370012981893,29.629928173897405,0.6436801407624025,12.821919844544956
181.0,17.237455807678717,28.41116394178565,0.6416649476886039,12.72510587752626
182.0,16.65336286224662,27.228111772186498,0.639682854555825,12.633441010395725
183.0,16.1100615085341,26.084126035815533,0.6377360930230533,12.546737005143017
184.0,15.60888073351726,24.98062943157628,0.6358269748971107,12.464811228852113
185.0,15.15255774474855,23.918037645705798,0.6339578827348599,12.387486635983313
186.0,14.744718222396564,22.89628124765158,0.6321312608837691,12.314591676923778
187.0,14.389543478652884,21.91509802095562,0.6303496053778511,12.245960281285386
188.0,14.091521534420894,20.974201693068807,0.6286154527650409,12.181431801596382
189.0,13.855235686563079,20.073380899539973,0.6269313688041489,12.120851117174588
190.0,13.685166777713478,19.21256102166204,0.6252999359315776,12.064068613807093
191.0,13.58546246916097,18.39184579463372,0.6237237403790888,12.010940244423148
192.0,13.559679688373647,17.611554510965313,0.6222053588389725,11.96132759270318
193.0,13.610495148859716,16.872254747372562,0.6207473448875518,11.915097939159109
194.0,13.739384461217751,16.17479114845908,0.6193522148111571,11.872124377782454
195.0,13.946260212046798,15.520290617925527,0.6180224348368818,11.83228581751864
196.0,14.22949106167455,14.910228099798987,0.6167604021806393,11.795467326877024
197.0,14.585082156683146,14.34631875306714,0.6155684389644183,11.761559844835528
198.0,15.006800867545321,13.830564549881215,0.6144487720161176,11.730460620102503
199.0,15.485970735638487,13.36518863029515,0.6134035226318849,11.702073126358622
200.0,16.011416731764044,12.952576485117591,0.6124346920861515,11.676307244236167
201.0,16.569568926528223,12.595190569302328,0.6115441493851403,11.653079332571233
202.0,17.14471146861074,12.29546458573179,0.6107336191541776,11.632312318452483
203.0,17.719340099908294,12.055673833630461,0.6100046711255491,11.613935752973912
204.0,18.274683537359184,11.877789277553864,0.6093587093817998,11.597885893459148
205.0,18.791378209607487,11.76331553123365,0.6087969622685312,11.584105773647634
206.0,19.250179913076778,11.713119417447869,0.6083204753446195,11.572545197315435
207.0,19.632790853664638,11.727248891650854,0.6079301023072528,11.563160820966262
208.0,19.922712210480686,11.804768393726512,0.6076265000451233,11.555916110985416
209.0,20.1060380239286,11.94360846285567,0.6074101232584799,11.550781352229144
210.0,20.172262289119217,12.140448539332448,0.6072812198917897,11.54773363460394
211.0,20.114899973918295,12.390652798579042,0.6072398291994586,11.54675678161322
212.0,19.931901700380745,12.688260178971912,0.6072857807351103,11.547841278525821
213.0,19.625851516999642,13.026040862493687,0.6074186941780988,11.55098418936033
214.0,19.20387553165989,13.395625100945878,0.6076379806729718,11.55618904662024
215.0,18.677256485473446,13.787701520678084,0.6079428454047213,11.563465721234236
216.0,18.060779411786047,14.192277560468224,0.6083322922118596,11.572830252508796
217.0,17.371899855087417,14.598987692157205,0.6088051291805445,11.584304672041421
218.0,16.629809681200832,14.997438868187148,0.6093599747379997,11.597916821333433
219.0,15.854453270717316,15.377579654424357,0.6099952651350053,11.613700144454999
220.0,15.065606823661168,15.730069815052794,0.6107092646631846,11.631693422092525
221.0,14.282053316132655,16.046645998048884,0.6115000743686988,11.65194056347219
222.0,13.520900117006873,16.320437540907356,0.612365643687314,11.67449031721024
223.0,12.79709004849487,16.546224099227114,0.6133037825758826,11.699395990945922
224.0,12.123051798001299,16.720616612777754,0.6143121731382521,11.726715189404475
225.0,11.508582879557752,16.84210575241491,0.615388383851534,11.756509482700448
226.0,10.960880826013117,16.91101885278832,0.6165298829024011,11.788844118976927
227.0,10.484701850064376,16.92935717404253,0.6177340520361408,11.823787715070829
228.0,10.082658633597966,16.900540231730698,0.6189982012310373,11.861411932776777
229.0,9.755566433175932,16.829097888011102,0.6203195830594576,11.901791167119933
230.0,9.502822007520678,16.720337469979743,0.621695407322763,11.945002223082327
231.0,9.322752904937142,16.580026689183537,0.6231228552238199,11.991124010185043
232.0,9.21292425996413,16.41410906687067,0.6245990934017956,12.040237232598122
233.0,9.170385086148043,16.228472496702384,0.6261212875499921,12.092424088121541
234.0,9.191848577233921,16.028775343889272,0.6276866155136656,12.14776797580523
235.0,9.27381042380843,15.820327889274692,0.6292922797610786,12.206353213874921
236.0,9.412615011264432,15.608021730364436,0.6309355191312341,12.268264769478703
237.0,9.604481879340028,15.396297415809855,0.6326136197835432,12.333588001375166
238.0,9.845506355852562,15.189139116763158,0.634323925267497,12.402408417219124
239.0,10.1316453109285,14.990087868521696,0.6360638456219376,12.474811446372916
240.0,10.458699626943222,14.802264834776363,0.6378308655026097,12.550882228502063
241.0,10.822301484042944,14.628398535041441,0.6396225512864445,12.630705419158632
242.0,11.217911811678674,14.470852465632516,0.6414365571355571,12.714365012588576
243.0,11.640831800889751,14.331650410416275,0.6432706300145362,12.801944182042531
244.0,12.08623051560812,14.212497950026298,0.645122613667008,12.89352513771316
245.0,12.54918857829576,14.11480000857283,0.646990451569031,12.989189002280694
