Time,J,A,S,tau
0.0,100.0,100.0,0.7552638742599681,27.027027027027028
1.0,99.80713526032034,36.78870654103379,0.7539221295082359,28.01233886370226
2.0,99.61787054288556,13.533655134636431,0.7526005381482459,28.998528410727022
3.0,99.43203564845943,4.978703419396054,0.7512984646962096,29.9854862721414
4.0,99.24946846707253,1.8315501817066981,0.7500152282998388,30.973148016354205
5.0,99.07001250061062,0.6737910784967888,0.7487501420586241,31.961454786375107
6.0,98.89351657473595,0.24788008761146366,0.7475025156123696,32.95035276305384
7.0,98.719834562733,0.09119761248427338,0.7462716573479786,33.93979267969726
8.0,98.54882512064212,0.033557638498710116,0.745056876266933,34.92972938311216
9.0,98.3803514330754,0.012352953495742263,0.7438574835517819,35.92012143654798
10.0,98.21428096914045,0.004551925232711163,0.742672793866137,36.910930760414566
11.0,98.05048524792312,0.0016817964165501504,0.7415021264191733,37.90212230701761
12.0,97.88883961300256,0.0006256500731102805,0.7403448058224159,38.89366376589615
13.0,97.72922301550045,0.00023684771419263173,0.739200162763691,39.88552529666469
14.0,97.57151780518792,9.356780178290504e-05,0.7380675345204658,40.87767928654996
15.0,97.41560952919198,4.063125571063061e-05,0.7369462653324131,41.87010013007403
16.0,97.26138673786672,2.0949978301474233e-05,0.7358357066508925,42.86276402857614
17.0,97.10874079741053,1.3521216883332387e-05,0.7347352172810989,43.85564880748099
18.0,96.95756570882914,1.0617309958768347e-05,0.7336441634309094,44.84873374941628
19.0,96.8077579328614,0.0,0.7325619186789103,45.84199944145901
20.0,96.65921622049082,0.0,0.7314878638726915,46.835427634941006
21.0,96.51184144868343,0.0,0.73042138696726,47.82900111639164
22.0,96.3655364608763,0.0,0.7293618828118911,48.822703588256154
23.0,96.2202059131159,0.0,0.7283087528980011,49.816519558718284
24.0,96.07575612087932,0.0,0.7272614050563628,50.8104342377264
25.0,95.93209491947128,0.0,0.7262192531645443,51.80443344312946
26.0,95.78913151422326,0.0,0.7251817167731403,52.79850350723377
27.0,95.64677634292045,0.0,0.7241482207492902,53.79263119145292
28.0,95.50494093999005,0.0,0.723118194900026,54.78680360449014
29.0,95.36353780328687,0.0,0.7220910735850185,55.78100812354115
30.0,95.22248026352862,0.0,0.7210662953236833,56.77523231795734
31.0,95.0816823563785,0.0,0.7200433024018242,57.76946387468261
32.0,94.94105869635943,0.0,0.7190215404789928,58.76369052454782
33.0,94.8005243522929,0.0,0.7180004581980767,59.757899969024336
34.0,94.65999472505544,0.0,0.716979506806475,60.75207980684274
35.0,94.51938542693901,0.0,0.7159581397898119,61.74621745967721
36.0,94.3786121623838,0.0,0.714935812521468,62.740300096214064
37.0,94.23759060990109,0.0,0.71391198193155,63.73431455390795
38.0,94.09623630503097,0.0,0.7128861061991106,64.72824725772156
39.0,93.9544645240695,0.0,0.7118576444719866,65.72208413490111
40.0,93.81219016791817,0.0,0.7108260566170841,66.7158105246946
41.0,93.66932764722783,0.0,0.7097908030069735,67.70941108350054
42.0,93.52579076676493,0.0,0.7087513443482157,68.70286968216698
43.0,93.38149261392986,0.0,0.707707141556808,69.6961693004503
44.0,93.2363454437058,0.0,0.7066576556870576,70.68929190850733
45.0,93.0902605614255,0.0,0.7056023479184533,71.68221833652933
46.0,92.94314820900627,0.0,0.7045406796091307,72.67492813778861
47.0,92.79491745505683,0.0,0.7034721124248398,73.66739944392786
48.0,92.6454760766846,0.0,0.7023961085532311,74.65960879683323
49.0,92.49473044013767,0.0,0.7013121310127864,75.65153096419499
50.0,92.34258539281136,1.0189150498648024e-05,0.7002196440610062,76.64313875218039
51.0,92.18894414695892,1.058017647341319e-05,0.6991181137222117,77.63440278915938
52.0,92.03370815364832,1.1007428925485585e-05,0.6980070084605625,78.62529127500898
53.0,91.87677699254257,1.1474380594115489e-05,0.6968857999784416,79.61576972850975
54.0,91.71804826221165,1.1983689475172019e-05,0.6957539641691907,80.60580070991858
55.0,91.55741744283547,1.2539196700783247e-05,0.6946109823082524,81.59534347383199
56.0,91.39477779790525,1.3144708455692936e-05,0.6934563423519032,82.58435364881
57.0,91.23002023534674,1.3804888696896592e-05,0.6922895405737095,83.57278281585138
58.0,91.06303320815913,1.4524343037963175e-05,0.6911100833124234,84.56057811332109
59.0,90.89370257305636,1.530874131846379e-05,0.6899174891596846,85.54768172235016
60.0,90.72191149249997,1.616370387289112e-05,0.6887112912510558,86.53403038377301
61.0,90.54754029088713,1.7096139435437938e-05,0.6874910401316212,87.51955476884267
62.0,90.37046635847224,1.81129071189306e-05,0.6862563067058345,88.50417888866069
63.0,90.19056400506142,1.922271686153588e-05,0.6850066859321715,89.4878193240651
64.0,90.00770436535929,2.0433612172042156e-05,0.683741800587016,90.47038449960378
65.0,89.82175526401326,2.175553258619196e-05,0.6824613058205157,91.45177378068072
66.0,89.63258109857006,2.3199399060235163e-05,0.6811648941339952,92.43187651779515
67.0,89.44004272636465,2.4776911974794528e-05,0.6798523008856759,93.41057100436902
68.0,89.243997349095,2.650096820916444e-05,0.6785233104424105,94.38772332078875
69.0,89.04429839415808,2.8386354942768755e-05,0.6771777630863244,95.36318604417669
70.0,88.84079540420578,3.0448862110060807e-05,0.6758155625813853,96.33679685030395
71.0,88.63333393186332,3.270564011598979e-05,0.6744366844335091,97.30837699782167
72.0,88.42175543284334,3.517583621741015e-05,0.6730411850258133,98.2777296547134
73.0,88.20589715842566,3.788100272927245e-05,0.6716292117276144,99.24463804868576
74.0,87.98559206296972,4.084394924168949e-05,0.6702010136669536,100.2088635076713
75.0,87.76066871318949,4.408950728970091e-05,0.6687569534112009,101.17014333286434
76.0,87.53095119763051,4.764581800918993e-05,0.6672975196895934,102.12818847556105
77.0,87.2962590420831,5.154393097908799e-05,0.6658233410863842,103.08268103058688
78.0,87.05640714904234,5.5815311600806654e-05,0.6643352000280033,104.03327167685498
79.0,86.81120572291161,6.049586598806593e-05,0.6628340481944959,104.979576827169
80.0,86.56046021801953,6.562440430677746e-05,0.6613210221782279,105.92117571910023
81.0,86.30397129353922,7.124274346454232e-05,0.6597974597175921,106.85760736807994
82.0,86.04153478009823,7.739584503117124e-05,0.6582649161673729,107.78836743785206
83.0,85.77294165912369,8.413187644174891e-05,0.6567251809166817,108.71290507045978
84.0,85.49797805623557,9.150220475981477e-05,0.6551802933774613,109.63061973283016
85.0,85.2164252500895,9.956131654828958e-05,0.6536325580757253,110.54085815234224
86.0,84.92805969816061,0.00010836665059743995,0.652084558277443,111.44291143093426
87.0,84.63265308105215,0.00011797832693779522,0.6505391674733958,112.33601244603982
88.0,84.32997236700402,0.00012845875387726183,0.6489995579358543,113.21933366642244
89.0,84.01977989836612,0.00013987209425233085,0.6474692054496692,114.09198553099644
90.0,83.70183350188918,0.00015228357270220762,0.6459518892183554,114.95301555783071
91.0,83.37588662476564,0.000165758607801784,0.6444516858611367,115.80140836719718
92.0,83.0416884984265,0.00018036175664411857,0.6429729563609953,116.6360868148119
93.0,82.69898433215974,0.00019615546527010938,0.6415203248097382,117.4559144370171
94.0,82.34751553866185,0.00021319862646733585,0.6400986478385106,118.25969940596588
95.0,81.98701999365883,0.00023154495703709948,0.6387129737359699,119.04620017717765
96.0,81.61723233065872,0.0002512425080939544,0.6373684904552093,119.81413297697667
97.0,81.23802421379563,0.0004983148226757406,0.6360704619893701,120.56218125929456
98.0,80.84912997677995,0.000793995040357746,0.6348241531374728,121.28900712108108
99.0,80.45028530403826,0.0011093003790003928,0.6336347427795728,121.99326466661519
100.0,80.04123843919963,0.0014452367608873415,0.6325072266914881,122.67361522626551
101.0,79.62173895661654,0.0018027578851449817,0.6314463118340754,123.32874407963045
102.0,79.19153848472935,0.00218274715161583,0.6304563051477444,123.95737824670667
103.0,78.75039143581355,0.002585998857630827,0.6295409952255286,124.5583053994329
104.0,78.29805577280318,0.003013200129387004,0.6287035377279289,125.13039246427076
105.0,77.83429381694118,0.003464913283038893,0.627946342049509,125.67260398744848
106.0,77.35887308168239,0.003941560256326157,0.6272709697667946,126.18401874546564
107.0,76.8715669549517,0.004443411577331053,0.6266780579416619,126.66384256015786
108.0,76.37215586915653,0.004970563852590932,0.6261671661637881,127.1114314913884
109.0,75.8604281155798,0.0055229499599068034,0.6257368475080156,127.52628328808603
110.0,75.33617986791745,0.0061003159464122604,0.6253844506124907,127.90806557128023
111.0,74.79921768616967,0.006702236512297597,0.6251062623487494,128.25659630006706
112.0,74.24935752523609,0.007328115780379991,0.6248974582438508,128.57185009279897
113.0,73.6864277281355,0.00797717539022788,0.6247520239963442,128.85396822556325
114.0,73.11026804310679,0.008648493607014161,0.6246629998533045,129.10322305676746
115.0,72.52073103429576,0.00934099752297427,0.6246223947877109,129.3200281103585
116.0,71.91768436003532,0.010053480668521011,0.6246213053959279,129.50491895001852
117.0,71.30100905822296,0.010784632198958963,0.6246500882645721,129.6585279977858
118.0,70.6706029729745,0.011533036351476105,0.6246983258625234,129.78158538616216
119.0,70.02638078190313,0.012297202826526146,0.6247550424801986,129.87488797835655
120.0,69.36827343780523,0.013075581534799983,0.6248087726951592,129.9392882934581
121.0,68.69623244476219,0.013866574554210871,0.6248476339080136,129.97568088577
122.0,68.01022752375675,0.014668557396634509,0.6248594844959157,129.9849822408325
123.0,67.31024882262871,0.015479890509241015,0.6248319698203194,129.9681216814517
124.0,66.59630954059637,0.016298931960023764,0.624752633424155,129.926026289581
125.0,65.8684431447012,0.0171240472273279,0.6246089863366626,129.85961364941684
126.0,65.12670821407681,0.0179536222492456,0.6243885837922386,129.76977951856918
127.0,64.37118768815765,0.018786066110979112,0.624079087959262,129.65739334295338
128.0,63.60198808303007,0.019619818971805487,0.6236683099247726,129.52329366445073
129.0,62.819245115772055,0.020453360653044237,0.6231442968572636,129.36827832902088
130.0,62.023537592036504,0.020406175810227717,0.7010445944107356,56.305761458312745
131.0,61.21313538793952,0.01995862225440143,0.726050839444848,41.510487467196505
132.0,60.387687603552365,0.01951659756674131,0.7356162479746468,35.99156797733395
133.0,59.54692419248367,0.020323238744997085,0.7403065192823581,32.72280177788948
134.0,58.693442780792346,0.02268961782309077,0.7424730468225313,30.461621022540413
135.0,57.83030186074307,0.02638858304612002,0.7430557247292556,28.766839162629154
136.0,56.960330567998064,0.03132119091074228,0.7425330224188864,27.43203049165646
137.0,56.08631601326765,0.03744299700339961,0.7411848454210133,26.344355270183858
138.0,55.21107809828808,0.044737666042858615,0.73919071520763,25.435575230350725
139.0,54.337502706189696,0.05320422407621686,0.7366736739477786,24.66137156326527
140.0,53.4685519577787,0.06285011327806876,0.7337224205592336,23.991399096547436
141.0,52.607260164643364,0.07368700116704192,0.7304034902862206,23.404027816218083
142.0,51.756725467733716,0.08572788357635168,0.7267684837203211,22.883325751844165
143.0,50.92008826298472,0.0989851890632424,0.7228585117378368,22.417262350354736
144.0,50.100506894121104,0.11346929489817252,0.7187071448779001,21.996547514630205
145.0,49.30113604656423,0.12918726316570484,0.714342354389396,21.613881918761237
146.0,48.52508920908727,0.1461420239127061,0.709787866759124,21.263450088885723
147.0,47.77540467656657,0.1643316164262598,0.7050641438951617,20.94055802368664
148.0,47.05502011975867,0.18374848557988144,0.7001890924445706,20.641373104743195
149.0,46.36672282681881,0.2043791332394635,0.6951785805940708,20.362742807675158
150.0,45.71326590496162,0.2259701261099699,0.6900468363663641,20.102051603898843
151.0,45.0965042529099,0.24690716426405357,0.6848067597819767,19.857112324231434
152.0,44.514588358068345,0.266926337341807,0.6794701735630125,19.626084670183584
153.0,43.96481469322492,0.2877451089802298,0.6740479665726896,19.40741466736874
154.0,43.44867071262917,0.3124790791321373,0.6685502757150348,19.199782888432644
155.0,42.97385413599723,0.34373388345321293,0.6629865948911902,19.00206423018894
156.0,42.55281876437587,0.38384418032990986,0.6573658703484215,18.813295603304464
157.0,42.20169404003493,0.43499759339619354,0.6516965778621268,18.632649712040934
158.0,41.9392393842717,0.49928254398281086,0.6459867855563293,18.459413635714412
159.0,41.78567980789381,0.5787027814853638,0.6402442051685536,18.292971153238994
160.0,41.761355991754264,0.6751747869844327,0.6344762340940826,18.132788120452282
161.0,41.88521979181008,0.7905153004732673,0.6286899896238555,17.978400267375843
162.0,42.17320349114743,0.926423184833282,0.6228923369512359,17.829403030721085
163.0,42.63658849783129,1.0844580697408202,0.6170899121105051,17.685442942484805
164.0,43.28048071900255,1.266017592472759,0.61128914053341,17.546210404587626
165.0,44.102537019263664,1.472314316316952,0.6054962516089785,17.41143360696028
166.0,45.09212963155376,1.7043552980445855,0.5997172916524538,17.280873190167238
167.0,46.22997641629748,1.9629086059740202,0.5939581320077365,17.154317992688743
168.0,47.48936290759642,2.247249684782611,0.5882244779723579,17.031581125670055
169.0,48.83692381031492,2.554329432500027,0.5825218730246265,16.912496743497208
170.0,50.23182963253258,2.8822801903364184,0.5768557040571066,16.796917319822292
171.0,51.62648064723577,3.2342221526429062,0.5712312041319201,16.684711247011318
172.0,52.96924566449719,3.617846817309674,0.5656534547232321,16.575760749338016
173.0,54.20504548121608,4.044062011259566,0.5601273871483905,16.46996014111174
174.0,55.27435574165648,4.525904486330241,0.5546577833568704,16.367214292470102
175.0,56.11243685361843,5.077460745343567,0.5492492764206295,16.267437308855946
176.0,56.6501803173909,5.712709060074041,0.5439063506092172,16.170551389951548
177.0,56.81759678846342,6.444286037675041,0.5386333413079814,16.076485840088054
178.0,56.5503120208527,7.282228305042347,0.5334344347407084,15.985176216792265
179.0,55.79819672852355,8.232795662708014,0.5283136679770448,15.896563576375087
180.0,54.53445452611819,9.297438414678835,0.5232749282495642,15.810593854953906
181.0,52.76188655389349,10.472118618556784,0.518321953827935,15.727217278298445
182.0,50.51467978592665,11.746985178900244,0.5134583330994386,15.646387884249325
183.0,47.855025173261964,13.106473648507555,0.508687505149915,15.568063112969018
184.0,44.86557087353013,14.529503849198719,0.5040127605609566,15.492203415082527
185.0,41.6399896169093,15.990318998823179,0.4994372418045245,15.418771946354484
186.0,38.27189651268502,17.461443800537076,0.4949639442247689,15.347734283588116
187.0,34.84651446336832,18.916212707543192,0.49059571741965047,15.27905817727594
188.0,31.437761761909602,20.328848140838808,0.48633526680383227,15.212713338282148
189.0,28.10917613572999,21.673118967985005,0.48218515524998695,15.14867125312395
190.0,24.916294776593336,22.920953390022525,0.47814780511951627,15.086905019903437
191.0,21.90860714806761,24.042014416159407,0.47422550074290165,15.027389203985695
192.0,19.129897342329926,25.00492660902173,0.47042039094881627,14.970099713470358
193.0,16.616568820144323,25.780386983928885,0.46673449167476505,14.915013690855986
194.0,14.394498701301911,26.345594245692478,0.4631696890987914,14.86210941532452
195.0,12.475789404334332,26.688640274688723,0.4597277429516992,14.81136621753703
196.0,10.856973637254733,26.811331049284927,0.45641028949673135,14.762764408078363
197.0,9.519968746372035,26.72912098082089,0.4532188454589658,14.71628520876663
198.0,8.435584224993894,26.46832837860642,0.45015481143950076,14.671910696705012
199.0,7.568606732136839,26.0615649914193,0.44721947562459174,14.629623753466946
200.0,6.882933755866726,25.5429068761997,0.44441401762292354,14.589408019710914
201.0,6.345638974981953,24.94394925647201,0.4417395122906246,14.55124785549432
202.0,5.929296958574549,24.291471034835833,0.43919693358561596,14.515128304981415
203.0,5.61259221145528,23.60673965505774,0.43678715841596794,14.481035065084214
204.0,5.3798146193686955,22.90589770487912,0.43451097046806525,14.44895445754375
205.0,5.2198761931656925,22.200822881922548,0.43236906397212005,14.418873403989691
206.0,5.125251921859504,21.50007087794796,0.4303620473825091,14.390779403562457
207.0,5.091030759536043,20.80971680701823,0.42849044692214283,14.36466051366526
208.0,5.114133630635506,20.13404490234498,0.42675471010885296,14.340505330326199
209.0,5.192686837673079,19.476079323435723,0.42515520925635636,14.318302973168226
210.0,5.325537581177988,18.83798516485183,0.42369224454732674,14.2980430711462
211.0,5.511880977803608,18.22136850945153,0.4223660474921271,14.279715744203141
212.0,5.751007756176709,17.627484748182923,0.4211767805008807,14.263311603302352
213.0,6.041939884666454,17.05739161347973,0.42012454509609226,14.248821734319396
214.0,6.383552574342271,16.51204986996193,0.4192093781715588,14.23623765844538
215.0,6.774027392119921,15.992362873564414,0.4184312610083229,14.225551376141976
216.0,7.211044129219,15.499226995001772,0.4177901157452544,14.21675532397101
217.0,7.691611983161888,15.033544009116913,0.41728580997061054,14.209842369794254
218.0,8.2120214948853,14.596229827162288,0.41691815675195204,14.204805812479002
219.0,8.767824745052911,14.188213979888816,0.4166869162924707,14.20163937046544
220.0,9.353832549749654,13.810432857844724,0.4165917967070564,14.20033717633521
221.0,9.96411601244486,13.463816838071036,0.41663245555076145,14.200893769900635
222.0,10.592065067133351,13.14927539602256,0.41680849970955974,14.203304094212031
223.0,11.230469843318001,12.867678289725296,0.4171194856102551,14.20756348940081
224.0,11.87161640204624,12.619833241013735,0.41756491944547086,14.213667687356319
225.0,12.507406800616375,12.406460852343235,0.4181442570331325,14.221612807216081
226.0,13.129499704245802,12.228166672059386,0.41885690343347143,14.231395351284995
227.0,13.729463735874473,12.08541032830437,0.4197022123709938,14.243012202043142
228.0,14.298959693981017,11.978473537106852,0.42067948518354725,14.25646061869902
229.0,14.829917067144128,11.907427488967173,0.42178797000533647,14.271738233704752
230.0,15.314714231897424,11.872101710894036,0.42302686065450246,14.288843050389202
231.0,15.746358859044927,11.872054807542415,0.4243952953345445,14.30777344113897
232.0,16.11865499445912,11.906548664709161,0.4258923552913336,14.328528147104617
233.0,16.426388237654017,11.974528618691538,0.42751706275948714,14.351106276774578
234.0,16.665455435789738,12.074610109877938,0.42926837965127346,14.375507306082007
235.0,16.83297952954903,12.20507319282157,0.4311452059881007,14.401731079053675
236.0,16.927437058245115,12.363864427643097,0.4331463769885862,14.42977780794959
237.0,16.94866339142398,12.548605978281243,0.43527066216318205,14.459648080558392
238.0,16.897879242379574,12.756617729729005,0.4375167631952802,14.491342860791056
239.0,16.777657982128396,12.98494535740085,0.4398833119368983,14.524863493490233
240.0,16.59184778057638,13.230395770781119,0.4423688684190879,14.560211710833538
241.0,16.345454808876767,13.489579192879793,0.44497191860191676,14.597389638878703
242.0,16.04447862065823,13.75895842775516,0.44769087295960047,14.636399812942377
243.0,15.695735540620282,14.034903277675816,0.4505240641764787,14.67724518353027
244.0,15.306653583091625,14.313748473720668,0.45346974551160385,14.719929131755109
245.0,14.885062720910371,14.591854682876043,0.4565260890946363,14.764455485466867
246.0,14.438987267530258,14.865671275018464,0.45969118432677186,14.810828538100067
247.0,13.976449045041019,15.131799506090587,0.46296303640146264,14.859053070566189
248.0,13.505288370460157,15.387054584710942,0.46633956495844986,14.909134376558011
249.0,13.033008189883502,15.628524749114787,0.46981860288320654,14.96107829167592
250.0,12.566644832160184,15.853625336641137,0.4733978952622994,15.014891226834346
251.0,12.11266725944783,16.060145675337395,0.477075098503422,15.070580206460122
