Time,J,A,S,tau
0.0,100.0,100.0,0.9470007556509475,10.309278350515463
1.0,100.33727426135931,92.86780306439519,0.9481599712962836,10.801588687480429
2.0,100.98327080540425,86.2511954974112,0.9492872667437542,11.312858792696424
3.0,102.0391727949046,80.11504363160705,0.9503787793902058,11.84278547138778
4.0,103.60257633873373,74.42376500160962,0.9514315077760096,12.391373921593633
5.0,105.75396006865515,69.14442434621246,0.9524427751799646,12.958591201583449
6.0,108.5452531487222,64.24660322800008,0.9534102526103828,13.544361094534244
7.0,111.99264652266643,59.702186772122516,0.9543319749620076,14.148560095084495
8.0,116.07445691668997,55.485162928885956,0.9552063541655365,14.771014129567245
9.0,120.73388465359379,51.57146576702172,0.9560321879566748,15.41149619639809
10.0,125.88567798734607,47.9388490114673,0.9568086626660313,16.069725172302327
11.0,131.42506701282184,44.566713373617446,0.9575353487788099,16.74536598644822
12.0,137.2372412514933,41.43600980713011,0.9582121898401684,17.438031072783737
13.0,143.20608785052622,38.5291005640059,0.9588394873251744,18.14728271995521
14.0,149.22145151992277,35.82967755967703,0.9594178786755857,18.872636683937465
15.0,155.18432208238477,33.32264072585616,0.9599483081902623,19.61356705500003
16.0,161.01015554461753,30.994000016559177,0.960431997015008,20.369511471829526
17.0,166.63035932323064,28.830817074445967,0.9608704086881176,21.13987711674611
18.0,171.99235522309684,26.821110137168233,0.9612652120783525,21.92404716799959
19.0,177.05861367800037,24.953783192744176,0.9616182439505581,22.721387330525474
20.0,181.80509547803604,23.218556460174653,0.9619314722193278,23.53125227727613
21.0,186.21930719466363,21.60590717729949,0.9622069600469739,24.352991900903486
22.0,190.29826526822825,20.107011581130337,0.9624468320456071,25.18595717571602
23.0,194.04650807059642,18.71369590451049,0.9626532430810111,26.029505530388004
24.0,197.4742798186614,17.418385940790362,0.9628283502382085,26.883005611656056
25.0,200.59594481218883,16.21406174519248,0.962974288281008,27.74584140011045
26.0,203.42864762748988,15.094216255573212,0.9630931486711853,28.61741566079225
27.0,205.99121687746532,14.052817061965484,0.9631869621322503,29.497152732284473
28.0,208.30329490155182,13.084271081067216,0.9632576846313178,30.38450067999322
29.0,210.3846676450838,12.183391905598866,0.9633071865652929,31.278932855607934
30.0,212.2543578998882,11.343096633181455,0.9633372448289346,32.179948928734994
31.0,212.23366125383274,4.344344310215722,0.9633495373290795,33.087075480992034
32.0,212.1350565141386,1.5981715369613108,0.9633456407191643,33.99986593970204
33.0,212.03913227928945,0.5879267762431937,0.96332702866932,34.917900530933544
34.0,211.9457459157,0.21628419956042103,0.9632950726805208,35.84078569861312
35.0,211.85476148360374,0.07956658195600777,0.9632510439960162,36.76815334985967
36.0,211.76604934403383,0.029271693392374808,0.9631961165574866,37.699659919351824
37.0,211.6794857863619,0.010769459378321524,0.9631313707592265,38.634985299238544
38.0,211.5949526751952,0.003962911166559124,0.9630577977849832,39.57383167505192
39.0,211.51233711548747,0.001458902585447547,0.9629763043430893,40.5159223021102
40.0,211.43153113477973,0.0005376895852029012,0.9628877176450827,41.46100025122442
41.0,211.35243138153788,0.00019874968537728646,0.9627927905003664,42.40882714728243
42.0,211.27493883860453,7.401672814016977e-05,0.9626922064241403,43.35918191956252
43.0,211.19895855083354,2.8088582086220183e-05,0.9625865846776758,44.31185957846289
44.0,211.12439936601524,1.1154060389780032e-05,0.9624764851789639,45.2666700297185
45.0,211.05117368824932,0.0,0.9623624132378902,46.22343693411518
46.0,210.97919724295448,0.0,0.9622448240837981,47.18199661810126
47.0,210.90838885276293,0.0,0.9621241271641906,48.142197038660164
48.0,210.8386702234828,0.0,0.9620006902039897,49.103896803691306
49.0,210.7699657396726,0.0,0.9618748430174181,50.06696424897239
50.0,210.70220226827212,0.0,0.9617468810859688,51.031276567657166
51.0,210.6353089719102,0.0,0.9616170688775889,51.996718998527086
52.0,210.56921711917346,0.0,0.9614856430722556,52.96318402966938
53.0,210.50385994691567,0.0,0.9613528150013874,53.930570800507475
54.0,210.43917244338013,0.0,0.9612187739632139,54.89878426411616
55.0,210.3750912156933,0.0,0.9610836893550242,55.867734653048856
56.0,210.31155433366825,0.0,0.9609477130076309,56.83733688506655
57.0,210.24850117560038,0.0,0.960810981392621,57.80750999504068
58.0,210.1858722788751,0.0,0.9606736176781147,58.778176600390815
59.0,210.12360919803868,0.0,0.960535733616235,59.74926240548667
60.0,210.06165436613688,0.0,0.9603974313240194,60.72069572934127
61.0,209.99995095895048,0.0,0.9602588049722365,61.692407053435346
62.0,209.93844276179027,0.0,0.9601199423962303,62.664328586582336
63.0,209.87707403841014,0.0,0.9599809266455023,63.63639384298606
64.0,209.81578939892287,0.0,0.9598418375114746,64.60853722347403
65.0,209.7545336704218,0.0,0.9597027530055248,65.58069360836289
66.0,209.69325176956286,0.0,0.9595637508072806,66.55279795726076
67.0,209.63188857558316,0.0,0.9594249097090579,67.52478490946618
68.0,209.57038880337436,0.0,0.959286311070358,68.49658838187152
69.0,209.50869687570722,0.0,0.9591480403029928,69.46814115944447
70.0,209.44675679209635,0.0,0.9590101884285643,70.43937446760454
71.0,209.38451199981927,0.0,0.9588728536485475,71.41021754388765
72.0,209.32190526327213,0.0,0.9587361429862779,72.38059719321102
73.0,209.25887853132502,0.0,0.9586001740145951,73.35043732372372
74.0,209.1953728024145,0.0,0.9584650766816404,74.31965846060332
75.0,209.13132798694426,0.0,0.9583309952503183,75.28817723432215
76.0,209.06668276466633,0.0,0.9581980903935772,76.2559058328217
77.0,209.0013744341509,0.0,0.9580665415003735,77.22275140394277
78.0,208.93533876828778,0.0,0.9579365490103332,78.18861545750875
79.0,208.86850986178837,0.0,0.9578083369732923,79.1533932147963
80.0,208.80081997348864,0.0,0.9576821558055664,80.11697291360775
81.0,208.73219936341883,0.0,0.9575582852511805,81.07923506733287
82.0,208.66257612415367,0.0,0.9574370375608928,82.04005167501181
83.0,208.59139727703996,0.00047580199652893135,0.9573171072554298,82.99861686597163
84.0,208.4900966626579,0.018933577764472687,0.9571044739492169,83.91623399418023
85.0,208.3846804844656,0.02757278844171749,0.9568912355561194,84.82992623632356
86.0,208.27465171445456,0.032866342489331866,0.9566774691769538,85.7393222390724
87.0,208.1594385161127,0.03724160883594121,0.9564632719588677,86.64401771616525
88.0,208.03837962736736,0.04164693014316812,0.9562487629319281,87.5435720235649
89.0,207.9107064855152,0.04649807558190905,0.9560340849108785,88.43750440822156
90.0,207.77552130323144,0.05202895143235956,0.9558194064416781,89.32528990003337
91.0,207.63177006670844,0.05842389921692851,0.955604923771455,90.20635480532532
92.0,207.47820927594893,0.06586990686249258,0.9553908627976926,91.08007178376636
93.0,207.31336479714716,0.07458138702296066,0.9551774809664405,91.94575445117808
94.0,207.1354807492435,0.08481626272786338,0.954965069078712,92.80265144456826
95.0,206.94245602377154,0.09688864501262182,0.9547539529316842,93.64993992510009
96.0,206.7317653260209,0.11118401359285893,0.9545444947387483,94.48671844618586
97.0,206.50036079284288,0.12817786531059283,0.9543370942714889,95.31199908279167
98.0,206.24454914749953,0.14845853908466722,0.9541321896540563,96.12469871225922
99.0,205.98574089885204,0.2688231810972986,0.9539302577279545,96.92362935453896
100.0,205.73811803298804,0.45911794635922265,0.9537318139209223,97.7074874420869
101.0,205.49438664719253,0.6731476643245494,0.9535374116518989,98.47484158956163
102.0,205.25619859692935,0.9170628060070752,0.9533476411652599,99.22411885264626
103.0,205.02594295620656,1.1983975814630523,0.953163127909194,99.95358885887089
104.0,204.80697807111983,1.526399122825063,0.9529845305345863,100.6613453941349
105.0,204.60391540850677,1.9124235713650726,0.9528125387372242,101.34528467528116
106.0,204.42294843248095,2.3704040820763725,0.9526478712834885,102.00307933110624
107.0,204.272197572541,2.9173920730262073,0.9524912747381843,102.63214676780635
108.0,204.1620043867805,3.574163554425593,0.9523435236503112,103.22961008674244
109.0,204.10503971331434,4.365868845755866,0.9522054232588393,103.79224904213953
110.0,204.11598560981278,5.3226801153285,0.9520778161842138,104.3164375705427
111.0,204.21039347460263,6.480361861169839,0.951961595112744,104.79806302251045
112.0,204.4021307785834,7.880639620396095,0.9518577241902746,105.23242029070842
113.0,204.6986283971392,9.571195678061393,0.9517672728806538,105.61407096150118
114.0,205.09307999220417,11.605043046214911,0.9516914674326201,105.93665333020876
115.0,205.5530063431026,14.038970999890674,0.9516317673343409,106.19262162493051
116.0,206.00560377343479,16.93068979809025,0.9515899770286823,106.37288365887439
117.0,206.32219417766964,20.33428237572829,0.9515684090884337,106.46628409997534
118.0,206.30720439554227,24.29361140071348,0.9515701214554569,106.4588591523122
119.0,205.6998272429987,28.833398917089706,0.9515992710731601,106.33271348001408
120.0,204.197885118639,33.948043357827856,0.9516616413360627,106.06431370384891
121.0,201.50843853887963,39.58851618280093,0.9517654557770787,105.62177166938292
122.0,197.4205348752947,45.647894934672436,0.951922684823588,104.9603109178151
123.0,191.88217350053083,51.94692792798768,0.9521512089621321,104.0144004426141
124.0,185.05816097107942,58.2205915271376,0.9524786361811712,102.6830825578951
125.0,177.35192165363128,64.10681141912983,0.9529494584494796,100.80058232226818
126.0,169.3934310918332,69.13714141506283,0.9536395500577263,98.07167906088121
127.0,166.7246800542156,68.1844260644544,0.9546879724332992,93.91389538902239
128.0,168.28557503626197,63.322137098453,0.9563675109474215,87.04638176533687
129.0,169.93441888474004,58.79984336441263,0.9591561307283383,74.8063510766343
130.0,171.67578825018484,54.59420817763579,0.9629518744525631,57.17387581940081
131.0,173.51441664666802,50.68347027118278,0.9659903284604164,43.66301209217217
132.0,175.455162489961,47.04734051110364,0.9678248878367849,35.84473596016744
133.0,177.11428830700777,44.03813438805518,0.9689072860392479,30.97642197743875
134.0,177.42623246836558,42.54004584856036,0.9695321809798997,27.629694409253254
135.0,175.65635006465166,42.981321407401495,0.9698532254418394,25.159647736163045
136.0,170.9183803728589,45.86560021765629,0.9699555952278656,23.243779358987663
137.0,162.71001591936056,51.341807379766884,0.9698903325620478,21.703183004365645
138.0,151.60430952014525,58.683125530482926,0.9696900874505672,20.43002393780459
139.0,139.44090477121384,66.149795500558,0.9693768402885543,19.3549944593463
140.0,128.5062510543685,71.70787872217804,0.9689659930981499,18.43125108151191
141.0,120.26612055951085,74.19021337583551,0.9684686850376226,17.625833969630037
142.0,114.82079100469738,73.77015864055673,0.9678931749598203,16.91479158857543
143.0,111.38180443382069,71.4350232836764,0.9672457071993169,16.28024904526101
144.0,108.37348888916192,68.84960455002108,0.9665310742670554,15.708570090524635
145.0,105.21799920145733,66.57970303042573,0.9657529964230637,15.189169551575526
146.0,101.90323157033836,64.6141895819983,0.9649143856459312,14.713695541392395
147.0,98.41985129427735,62.94006959684181,0.9640175287301325,14.27548351327747
148.0,94.91348296184263,61.394387854920126,0.9630642278185599,13.869144038048328
149.0,91.82676786957762,59.54154087971856,0.9620558943211986,13.490287503640458
150.0,89.63861012256268,56.94599967458473,0.9609936294641443,13.135308342122409
151.0,88.41440560427111,53.60618192862229,0.9598782812398834,12.801224496143133
152.0,87.75415374041563,49.96802103804935,0.9587104893238898,12.485554995016974
153.0,87.30488603128603,46.39809968949687,0.9574907210249038,12.186225004975139
154.0,86.9278195395504,43.031469659266726,0.9562192997162902,11.901491199536846
155.0,86.58573879195843,39.89748120204452,0.9548964278593595,11.629882747676215
156.0,86.27814869447408,36.98988966194082,0.9535222080424024,11.370154772736806
157.0,86.01832069863526,34.291716415666606,0.9520966561980115,11.121248678681194
158.0,85.82251152672683,31.78660278151783,0.9506197156470437,10.882261675118377
159.0,85.70864766098727,29.460163886958778,0.9490912683140549,10.652421234104835
160.0,85.69324104671779,27.302698669207,0.9475111441361952,10.431064032179632
161.0,85.7891977136042,25.310176875160813,0.9458791279399644,10.217618448254203
162.0,86.0065173085018,23.482089086491424,0.9441949692205298,10.011590195579403
163.0,86.35361451206097,21.818288323876722,0.9424583872067996,9.812551259150649
164.0,86.83462144913071,20.319181153133577,0.940669073325985,9.620128316913672
165.0,87.44596948185443,18.98703564356125,0.9388266981048198,9.433994255582483
166.0,88.17223114199383,17.8268443902261,0.936930912847662,9.253862281327363
167.0,88.98313414939484,16.846762752811884,0.9349813552593983,9.079479263192082
168.0,89.83054993500846,16.05801539555783,0.9329776494446924,8.910620809871308
169.0,90.64789434849185,15.474392623887406,0.9309194103167225,8.747087049675372
170.0,91.35172491197363,15.110548110945473,0.928806244372418,8.58869905554578
171.0,91.84725212656377,14.97922046688721,0.9266377517869228,8.435295879280588
172.0,92.03680909945545,15.088065839862358,0.9244135271516224,8.28673187810447
173.0,91.83112566271488,15.436225748706326,0.9221331605278558,8.142874612807727
174.0,91.16274474955296,16.01069979429426,0.919796239172732,8.003603046476874
175.0,89.99869249925364,16.78299592100057,0.9174023471518442,7.868805895636863
176.0,88.35023594637305,17.706966934382898,0.9149510668250106,7.7383803611830455
177.0,86.27579444625347,18.718794161386974,0.9124419794876759,7.612230978392035
178.0,83.87553608132674,19.740145601558854,0.9098746663503775,7.490268644433569
179.0,81.27830297537365,20.685140031745807,0.9072487094588111,7.372409778061925
180.0,78.62381037604212,21.470667427317537,0.904563693107613,7.25857560007418
181.0,76.04385486359331,22.02852581023808,0.9018192054647546,7.148691507133408
182.0,73.64603357104458,22.31679086079301,0.8990148406387698,7.042686523197311
183.0,71.5034259872563,22.32676764329846,0.8961502013385998,6.940492819464353
184.0,69.65263201759264,22.082512116364423,0.8932249023476337,6.842045294060544
185.0,68.09996252362593,21.63284230378667,0.8902385735365599,6.747281174168889
186.0,66.83145177969074,21.039462642256435,0.8871908649263563,6.656139683428031
187.0,65.82196287432828,20.36603473946404,0.884081452154531,6.568561730158715
188.0,65.04009718254639,19.671311716796765,0.8809100427163546,6.484489619737041
189.0,64.44873760852504,19.006527395912876,0.877676383256674,6.403866790025719
190.0,64.0031719487881,18.41540133074621,0.8743802678896743,6.3266375648849404
191.0,63.64922717580881,17.934875476681167,0.8710215475627197,6.2527469228182
192.0,63.323378027914224,17.595294698987118,0.8676001405638436,6.182140279010874
193.0,62.95582775265498,17.41958219369331,0.8641160441598003,6.114763279026577
194.0,62.476522978922574,17.421527631964675,0.8605693475537245,6.0505616014879156
195.0,61.823067331619136,17.603792427783212,0.8569602450001538,5.989480771447316
196.0,60.94931700154633,17.956167258533103,0.8532890519179042,5.931465980729727
197.0,59.83221777393894,18.455017174769264,0.8495562195993063,5.876461919572632
198.0,58.475692249772784,19.064364269618732,0.8457623522714677,5.824412614347176
199.0,56.91014012262748,19.739086012935243,0.8419082249802965,5.775261274189816
200.0,55.187421760944424,20.42989204894075,0.8379948014840612,5.728950148088168
201.0,53.37259424379964,21.08925721704413,0.8340232529330901,5.6854203903007665
202.0,51.53422858771595,21.677230120831467,0.8299949771024622,5.644611933885908
203.0,49.735398498557046,22.165962462932665,0.8259116171044492,5.606463377954817
204.0,48.02696086978632,22.542071508842298,0.821775079997203,5.5709118861009985
205.0,46.443812134507475,22.806586000426172,0.8175875563092602,5.537893088722243
206.0,45.00429603926525,22.972615026063494,0.8133515364442849,5.5073410111695456
207.0,43.71171936805925,23.06176960219792,0.8090698290563086,5.479187999695954
208.0,42.55727481350489,23.10011589331627,0.8047455747578119,5.453364679353706
209.0,41.52327822698844,23.114570143047867,0.8003822611145158,5.429799911629849
210.0,40.58645895841977,23.130031977003686,0.7959837354810892,5.408420766746821
211.0,39.721039816411704,23.167384043353298,0.791554213340466,5.38915252796476
212.0,38.90152429301974,23.242240558458274,0.7870982887743413,5.371918684631019
213.0,38.105020152236015,23.364432400853776,0.7826209360272917,5.356640976335966
214.0,37.31310241747092,23.537984003759153,0.778127514871052,5.343239419936952
215.0,36.51296727683544,23.761644546963318,0.773623768523179,5.331632375476889
216.0,35.69789757278207,24.029798322132745,0.7691158210950801,5.321736615261535
217.0,34.866917998404475,24.33367590134319,0.7646101683727675,5.3134674264364055
218.0,34.02389672805949,24.662664138122366,0.7601136671119548,5.306738722688773
219.0,33.176252611004436,25.005618076279802,0.7556335224993944,5.301463168568823
220.0,32.33349276523324,25.352017097847508,0.7511772696725507,5.29755232483059
221.0,31.5057711317043,25.69283744214714,0.7467527528955377,5.294916811240375
222.0,30.702676955594605,26.021100957106757,0.7423681009256331,5.29346648613616
223.0,29.932321260182686,26.33210374849687,0.7380317007821565,5.293110636524052
224.0,29.20082366583652,26.6233417253398,0.7337521653222653,5.293758192688777
225.0,28.512066057468427,26.894243755988928,0.7295383021597232,5.295317945339121
226.0,27.86774904013849,27.14575656499228,0.7253990781644551,5.297698797460459
227.0,27.26778827458923,27.379852374855638,0.7213435761576864,5.300809983225195
228.0,26.7103628582869,27.599070176121316,0.7173809646667979,5.304561387023705
229.0,26.192795205705693,27.806155567442623,0.713520445324294,5.308863762137721
230.0,25.711667837584372,28.003724514742437,0.7097712183750157,5.313629011051433
231.0,25.263238737621453,28.194022179700386,0.7061424355874705,5.318770513121844
232.0,24.843779830537606,28.37880666499101,0.702643153251709,5.32420343659352
233.0,24.44975740782474,28.55931615641685,0.6992822920871408,5.329844973632503
234.0,24.077961039473408,28.73627367121703,0.6960685950010613,5.335614636498591
235.0,23.725592055604473,28.909924290425018,0.6930105713927865,5.341434685520517
236.0,23.390263097918783,29.080152902913785,0.6901164604167848,5.347230355185743
237.0,23.069964074966485,29.24657415283033,0.6873941954063568,5.352930090792847
238.0,22.763012284610486,29.408615540565467,0.6848513605485542,5.358465872601651
239.0,22.46798051567626,29.56559833820419,0.6824951213815158,5.36377378342098
240.0,22.183663575684825,29.716850389155297,0.6803322375086269,5.368793828558184
241.0,21.908927873423742,29.861679574237442,0.6783689942809167,5.37347047346731
242.0,21.642775609437535,29.999501762010286,0.6766111459771105,5.377753163159635
243.0,21.38424504026709,30.129798040107143,0.6750639748345593,5.38159570556847
244.0,21.132334085053596,30.252122150328322,0.6737321237739304,5.38495774406357
245.0,20.886141058578552,30.36615535521199,0.672619699194966,5.3878038454566894
246.0,20.64464809008935,30.471598339876568,0.6717301827817775,5.39010418874482
247.0,20.40691630759869,30.56825377051512,0.6710663787322105,5.391835086683217
248.0,20.17200830929905,30.65595723177207,0.6706305147355138,5.392978022714525
249.0,19.938930486390014,30.734537901871555,0.6704240615447652,5.39352121406164
250.0,19.706847800338572,30.803888747383212,0.6704478639113947,5.393458498000247
251.0,19.47483932480541,30.863840815757822,0.6707020731925306,5.392789814374917
252.0,19.242135820741613,30.914246739399793,0.6711860926220059,5.391521746776986
253.0,19.00803855698427,30.954940058189113,0.6718987128746449,5.389666273285613
254.0,18.77184761762517,30.985686330682523,0.6728379460243473,5.387242177034698
255.0,18.53311406155023,31.006289236510174,0.6740011601023965,5.384273921594299
256.0,18.291263374809233,31.016434647000146,0.675385038731028,5.3807918712084275
