Time,J,A,S,tau
0.0,100.0,100.0,0.7106610159482583,37.03703703703704
1.0,99.77618508832961,36.78883860581492,0.7090766386822998,38.036067641579194
2.0,99.5559788335737,13.533732939482578,0.7075175996857996,39.03520410816791
3.0,99.33926718069036,4.9787488597628595,0.7059828477603713,40.034417255569906
4.0,99.12589530598777,1.8315785110046139,0.704471347099771,41.03369817837275
5.0,98.91571314046486,0.6738102028543559,0.7029820874241195,42.033039094205094
6.0,98.70857514151044,0.24789423589410792,0.701514083647114,43.032433168953936
7.0,98.5043390624667,0.09120967510029178,0.7000665309741024,44.03185027266321
8.0,98.30286703080488,0.03356924251387599,0.6986386060864852,45.03126737637248
9.0,98.10402601291497,0.01236471334059037,0.6972293638401893,46.030684480081774
10.0,97.90768665279882,0.0045640577506755675,0.6958378852069609,47.03010158379106
11.0,97.71372308783711,0.0016943578312621603,0.6944632759657379,48.02951868750034
12.0,97.52201277077839,0.0006386350349194751,0.6931046654381916,49.028935791209655
13.0,97.33243629765009,0.0002502307066842757,0.6917612052663185,50.02835289491898
14.0,97.14487724130474,0.00010731708049879828,0.6904320682300424,51.027769998628315
15.0,96.95922199032445,5.47135198859231e-05,0.6891164471028577,52.027187102337635
16.0,96.77535959301926,3.533307869393459e-05,0.687813553543636,53.026604206046954
17.0,96.59318160626613,2.8174877128101713e-05,0.6865226170228048,54.026021309756246
18.0,96.41258194893562,2.5513167790350744e-05,0.68524288378109,55.02543841346555
19.0,96.23345675967195,2.4505842557585865e-05,0.6839736158191704,56.024855517174856
20.0,96.05570425882927,2.4107327479592934e-05,0.6827140899168345,57.02427262088416
21.0,95.879224614243,2.3933052702344024e-05,0.6814635966793644,58.02368972459347
22.0,95.70391981090621,2.38413723461328e-05,0.6802214396116409,59.02310682830277
23.0,95.5296935206831,2.378028469763621e-05,0.6789869341925164,60.02252393201208
24.0,95.35645098790603,2.3730582028069527e-05,0.677759407061925,61.021941035721376
25.0,95.18409889943875,2.3685250425303545e-05,0.6765381950977362,62.02135813943068
26.0,95.01254523547837,2.3641921407746772e-05,0.6753226443560353,63.02077524313998
27.0,94.84169932379928,2.359922788591816e-05,0.6741121104546783,64.02019234684929
28.0,94.67147131400256,2.355703673702948e-05,0.6729059548424153,65.01960945055859
29.0,94.50177278129141,2.3514937328439138e-05,0.6717035490798533,66.0190265542679
30.0,94.33251568440075,2.3472774139022324e-05,0.6705042674486078,67.0184436579772
31.0,94.16361296410393,2.343050980333069e-05,0.669307491192872,68.0178607616865
32.0,93.99497871637544,2.3388411547575766e-05,0.6681126097418894,69.0172778653958
33.0,93.82652708143394,2.3346762623171993e-05,0.666919012838252,70.0166949691051
34.0,93.65817247575046,2.3305546069974735e-05,0.6657260921809742,71.01611207281441
35.0,93.48983015739715,2.3264107614993735e-05,0.6645332454240728,72.01552917652371
36.0,93.32141547917519,2.322217572688653e-05,0.6633398708888925,73.01494628023302
37.0,93.15284402315288,2.318021130190296e-05,0.662145368508334,74.01436338394231
38.0,92.98403144094495,2.3138556202013602e-05,0.6609491386975656,75.01378048765162
39.0,92.81489345307006,2.309714307984733e-05,0.6597505823537784,76.0131975913609
40.0,92.64534553847473,2.3055531186243824e-05,0.6585490986315491,77.01261469507021
41.0,92.47530309628485,2.3013313134419085e-05,0.6573440861134537,78.01203179877952
42.0,92.30468135909983,2.29706789805011e-05,0.6561349421863921,79.01144890248881
43.0,92.13339496653148,2.2928262537200375e-05,0.6549210600004154,80.01086600619811
44.0,91.9613584035193,2.28862247240172e-05,0.6537018316010184,81.0102831099074
45.0,91.78848535935907,2.2843883067768477e-05,0.6524766433570595,82.00970021361671
46.0,91.61468909493802,2.2800847689492482e-05,0.651244878582954,83.009117317326
47.0,91.43988222515668,2.2757372326516083e-05,0.650005915986842,84.0085344210353
48.0,91.26397614683091,2.271395216875761e-05,0.648759125597897,85.00795152474463
49.0,91.08688210068523,2.267084914418915e-05,0.6475038763323177,86.00736862845392
50.0,90.90850985702393,2.2627485284966832e-05,0.6462395266304561,87.00678573216324
51.0,90.72876808929057,2.258322560288072e-05,0.6449654271217368,88.00620283587253
52.0,90.5475650327432,2.25380861835619e-05,0.6436809253134839,89.00561993958183
53.0,90.3648069366641,2.249288339100486e-05,0.6423853545705095,90.00503704329115
54.0,90.18039930088543,2.2447858147881728e-05,0.6410780429217618,91.00445414700046
55.0,89.99424618243573,2.240227825807074e-05,0.639758308122109,92.00387125070975
56.0,89.8062496364823,2.2789819900904807e-05,0.6384255423457799,93.00327395996015
57.0,89.61630941341986,2.414925366079607e-05,0.6370792549371517,94.00262602832494
58.0,89.42432479537268,2.6041025897674664e-05,0.6357187762143461,95.00191953954322
59.0,89.23019344829574,2.8306866372013176e-05,0.6343434224482696,96.0011469166845
60.0,89.03381129630468,3.091434579171411e-05,0.6329525037092559,97.0002994920824
61.0,88.83507244852875,3.387887168551702e-05,0.6315453243142842,97.9993673337826
62.0,88.63386912295489,3.724054028618767e-05,0.6301211834273163,98.99833904018897
63.0,88.43009157319192,4.105331535577484e-05,0.6286793758649063,99.99720150076064
64.0,88.22362801545319,4.53825908379152e-05,0.6272191931299342,100.99593961499387
65.0,88.01436455620795,5.030539036466752e-05,0.6257399247148628,101.99453596246346
66.0,87.80218512044038,5.591172279119885e-05,0.6242408597209117,102.99297041505676
67.0,87.58697138010045,6.230777651560308e-05,0.6227212888473239,103.99121968057125
68.0,87.36860268419937,6.961362951786305e-05,0.6211805068170834,104.98925676677706
69.0,87.14695598683676,7.797347566046636e-05,0.6196178153098878,105.9870503477249
70.0,86.9219057777948,8.75532127648455e-05,0.6180325264925146,106.98456402059459
71.0,86.69332400972552,9.854916805304147e-05,0.616423967258804,107.981755423919
72.0,86.46108002862809,0.00011118854026950796,0.6147914842707248,108.97857520735295
73.0,86.225040497771,0.00012573937752102059,0.6131344499989022,109.974965802192
74.0,85.98506932571564,0.00014251442435441518,0.6114522698332013,110.97085999092772
75.0,85.74102758531778,0.00016188002937749362,0.6097443905827153,111.9661791971524
76.0,85.49277343504228,0.00018426750458241454,0.6080103104203647,112.96083149674149
77.0,85.24016203045599,0.00021017843243368797,0.6062495907037068,113.95470924990619
78.0,84.98304543325666,0.00024020697206708852,0.6044618697764931,114.94768633915511
79.0,84.72127251087231,0.00027504090808564796,0.6026468792158265,115.93961491011726
80.0,84.45468882637388,0.00031549867478414983,0.6008044628081517,116.93032155437916
81.0,84.18313651949101,0.00036252365149929864,0.5989345986106642,117.9196028574695
82.0,83.90645417205816,0.00041722270177743035,0.5970374245994222,118.90722019757214
83.0,83.62447665846877,0.000480892112481477,0.595113268288346,119.89289370774281
84.0,83.33703497902341,0.0005550410151026285,0.5931626807443493,120.87629530028467
85.0,83.0439560740487,0.0006414214638732306,0.5911864753802502,121.85704065682921
86.0,82.7451968970543,0.0011711137841965789,0.5891857719104753,122.83468008209425
87.0,82.44070149269388,0.002065949995145946,0.5871620454054932,123.8086882090378
88.0,82.13028532607235,0.003093427850420442,0.5851171809266446,124.77845241879483
89.0,81.8138171910019,0.004275134679361339,0.5830535328371821,125.74326012662189
90.0,81.4911735890303,0.005635946883812591,0.5809739881633528,126.70228501642355
91.0,81.16224112149662,0.007204411891345764,0.5788820325180961,127.65457248178151
92.0,80.82691938735078,0.009013127776902942,0.5767818165180957,128.59902464690296
93.0,80.48512446659203,0.011099095015866011,0.5746782187589686,129.53438573530784
94.0,80.13679306806439,0.013504015839700593,0.5725769014819624,130.45922853917043
95.0,79.78188745687582,0.016274498826703634,0.5704843524439677,131.37194330653
96.0,79.42040119080546,0.019462128844603504,0.5684079064607557,132.27073039145873
97.0,79.05236574571653,0.023123338121399266,0.5663557366581663,133.15359878827974
98.0,78.67785806303493,0.02731903524857974,0.5643368083526887,134.0183720688708
99.0,78.29700894169738,0.03211392615256397,0.5623607848528339,134.86270411531575
100.0,77.91001217980417,0.03757548398391967,0.5604378780168965,135.68410633699682
101.0,77.5171342816675,0.043772543002309594,0.5585786390934027,136.47998756234165
102.0,77.11872434580602,0.05077352404501408,0.556793690099209,137.24770687038793
103.0,76.71522383393551,0.058644335547111306,0.5550934020209871,137.9846383298
104.0,76.30717579139024,0.06744603498348571,0.5534875323815917,138.68824531896948
105.0,75.89523218695214,0.07723246055065318,0.5519848532230429,139.35615838975457
106.0,75.4801605813868,0.08804785215349163,0.5505927738127829,139.98625517564417
107.0,75.06284694781762,0.0999249057537429,0.5493170245779041,140.5767293878145
108.0,74.64429666808066,0.11288326046864681,0.5481614053113686,141.1261471948084
109.0,74.2256326941894,0.12692843491953743,0.5471275970220524,141.6334907276899
110.0,73.80809031674721,0.14205175341287118,0.5462151276384387,142.09817049258098
111.0,73.3930071107136,0.15823113954610538,0.5454214694503532,142.52000988516778
112.0,72.98181374514392,0.1754319013042937,0.5447421322315709,142.89922942514005
113.0,72.57602363041936,0.19360866294439666,0.5441709471388736,143.23639161998466
114.0,72.17721652622457,0.2127073585031446,0.5437003475339034,143.53234467375523
115.0,71.78702497894018,0.23266742862747533,0.543321693840623,143.78815658997488
116.0,71.40711977942583,0.2534239891538887,0.5430255959219933,144.0050489728701
117.0,71.03919562858735,0.27490984250770234,0.5428022151251305,144.18433449058261
118.0,70.68495729196151,0.2970572360475708,0.5426415310055833,144.32736129829993
119.0,70.34610640055425,0.3197993140599909,0.5425335641264701,144.4354663775638
120.0,70.02432895737587,0.3430712469769764,0.5424685519105448,144.50993855769036
121.0,69.72128353914556,0.3668110497280316,0.5424370788575718,144.55199104891986
122.0,69.43859040395654,0.39096010702081335,0.5424301639840913,144.56274297389706
123.0,69.17781994503623,0.4154635207741607,0.5424393191959229,144.54320702104613
124.0,68.94048369404742,0.4402701653514459,0.5424565688534763,144.4942854067615
125.0,68.72802304671984,0.4653327069974843,0.5424744592203103,144.41676799949468
126.0,68.54180264615519,0.49060733439876136,0.5424860282680735,144.31133900352964
127.0,68.3830988936586,0.5160536869593727,0.5424847986922355,144.1785787094861
128.0,68.25308951945856,0.5416345685560889,0.5424647473448562,144.0189704461255
129.0,68.1528500063636,0.5673155097190961,0.5424202469601853,143.83291351686563
130.0,68.08334496181075,0.5930646143151674,0.5423460443512571,143.6207283448494
131.0,68.0454068593436,0.6188523493806305,0.5422372444061764,143.3826609737594
132.0,68.03976110810221,0.6446508639659827,0.54208920799511,143.11890489960496
133.0,68.06697024037652,0.6704343664788652,0.5418976188538295,142.82958906439828
134.0,68.12748651691413,0.6961781482925437,0.5416583419243396,142.5148073231621
135.0,68.22158825809295,0.7218590397545429,0.5413674988762074,142.17460558384036
136.0,68.34942717027863,0.7474546371702411,0.541021359242693,141.80900409560564
137.0,68.51097312166368,0.7729436529687387,0.540616396815927,141.41798958624344
138.0,68.70607285242978,0.7983052358885661,0.5401491923654451,141.0015334755051
139.0,68.9343729502308,0.8235193219594124,0.5396165021403331,140.55958458359734
140.0,69.19540039206991,0.8485661289301721,0.539015168954009,140.09208305589146
141.0,69.47630000398395,0.8802206632303368,0.6832127543105331,40.75183472018748
142.0,69.78706060294449,0.9687126855139113,0.6933009433190402,36.34183095509079
143.0,70.2063561521635,1.0951149102693587,0.697352639079667,33.88178675151827
144.0,70.7815133417581,1.25853254996136,0.69894881738541,32.160888034953395
145.0,71.55209384291018,1.4600781044543782,0.6992206793854263,30.82579621867566
146.0,72.55040431291638,1.7013470044045012,0.6986795576038924,29.725146226695163
147.0,73.7996574132781,1.9839707948703,0.6976014500205494,28.780692628338826
148.0,75.31163124530521,2.309417891776986,0.6961520345514784,27.947176938085747
149.0,77.08454710354636,2.6788839138932117,0.694438094005496,27.19635856068177
150.0,79.1014559647007,3.0932292388339646,0.692531868354751,26.50966279476182
151.0,81.32977923004485,3.5529371955971665,0.6904840867806052,25.87434542705462
152.0,83.72177918360676,4.058093340557338,0.6883312683543246,25.281397025897633
153.0,86.21642391414743,4.608377567839935,0.6861002787193542,24.724267483982523
154.0,88.74235652481721,5.203068532697132,0.6838112115961066,24.198080879514997
155.0,91.2217028796189,5.841054387413293,0.6814792862849597,23.699131416734144
156.0,93.57443252289515,6.520851871903373,0.6791161443473512,23.224549096694414
157.0,95.72289242700147,7.240633063761624,0.6767307791195621,22.772067344381426
158.0,97.59592302930473,7.998254263826471,0.6743301994684874,22.33986138725285
159.0,99.132405166684,8.79128682723644,0.6719198990388427,21.926437684038245
160.0,100.28380656721494,9.617054418777924,0.6695042198586045,21.53055140237458
161.0,101.01567532885146,10.472670100057613,0.6670866190648573,21.151147852954434
162.0,101.30997789989665,11.353775698529388,0.664669870808569,20.787318318391108
163.0,101.06485030382834,12.341472470148098,0.662256219918656,20.438269116106518
164.0,100.15941009979034,13.517187038111311,0.6598475039429202,20.103297297899005
165.0,98.49619226393585,14.936361603041918,0.657445246426306,19.781772529540163
166.0,96.01082796764565,16.63650678390647,0.6550507308290858,19.473123370503167
167.0,92.69126644879798,18.63388832987696,0.6526650591014919,19.176826727430768
168.0,88.58902237978405,20.920264925323057,0.6502891997549471,18.892399759714856
169.0,83.8156265611678,23.46161271051982,0.6479240246901866,18.619393379527637
170.0,78.52550667131314,26.19970824184289,0.6455703412298538,18.357387291063223
171.0,72.89285931770439,29.05657537634915,0.6432289176822296,18.10598602832172
172.0,67.09094264556525,31.941380511978895,0.6409005048108574,17.864815728682295
173.0,61.27822918680044,34.75868014958157,0.6385858537279357,17.633521534098076
174.0,55.591039521557235,37.41680289156763,0.6362857309979258,17.411765462783983
175.0,50.140357790035814,39.835180021115576,0.6340009314075581,17.199224649738188
176.0,45.01092078979834,41.94974358762817,0.6317322887187669,16.995589875903455
177.0,40.26172583865591,43.71593883188517,0.629480684896371,16.800564335693593
178.0,35.92766431314769,45.10942524662834,0.6272470577246761,16.613862603866295
179.0,32.023159452278875,46.12383805288358,0.6250324075308814,16.435209730188376
180.0,28.57029265920521,46.743568365367175,0.6228378014681414,16.26434044919572
181.0,25.600626858073475,46.94261758108146,0.620664378555502,16.100998566412233
182.0,23.131724563151852,46.70838901710053,0.6185133517625467,15.944936322404562
183.0,21.147966211860343,46.060888603278684,0.6163860110679615,15.795913966063583
184.0,19.59395154085101,45.05924592306137,0.6142837233548518,15.653699255668144
185.0,18.38499442503664,43.79113898869015,0.6122079332563048,15.518067124389841
186.0,17.428934777640308,42.351028369424114,0.6101601622137526,15.388799344761367
187.0,16.645951254145665,40.82051704231436,0.608142006753481,15.265684249680527
188.0,15.97801972577665,39.25913441162894,0.60615513595918,15.148516494959066
189.0,15.388504202730836,37.70498911792491,0.6042012880844475,15.037096856774538
190.0,14.856974573684923,36.180152815214186,0.6022822662824987,14.931232056771345
191.0,14.373622850591728,34.69639665748948,0.60039993385872,14.830734640205057
192.0,13.93501399510857,33.25953059244977,0.5985562079627155,14.73542282201898
193.0,13.5415529282095,31.87204822650102,0.5967530547738419,14.645120492152067
194.0,13.19587506954453,30.53470924977941,0.5949924803734244,14.559657043564005
195.0,12.902049910165289,29.24737584824884,0.593276524252508,14.478867404882216
196.0,12.665051322229651,28.009494621936078,0.5916072506400841,14.402591958014115
197.0,12.49046551051131,26.820343747752545,0.5899867400670897,14.330676586571556
198.0,12.384248223741205,25.6791841732692,0.5884170801048356,14.262972655229257
199.0,12.35249907017385,24.58535741389761,0.586900355838337,14.19933703642698
200.0,12.401232653367952,23.538351219300072,0.5854386400411052,14.139632143074207
201.0,12.536134580231943,22.537842157817416,0.5840339831245602,14.083725970955456
202.0,12.762295386044421,21.583726522714905,0.5826884029150288,14.031492150106395
203.0,13.083914398287215,20.67614845594729,0.5814038743772815,13.98280999894517
204.0,13.503967625176834,19.815528397868196,0.5801823193165044,13.937564588208247
205.0,14.023862425397622,19.002590669921563,0.5790255961274383,13.895646806274225
206.0,14.643138347833638,18.238385070601304,0.5779354903253922,13.856953377327761
207.0,15.359173353929945,17.52431632197484,0.5769137017515362,13.821387086327714
208.0,16.16672372754248,16.8621014893244,0.5759618400184635,13.788856595135554
209.0,17.057861777572434,16.25378984549025,0.5750814111225843,13.759276700216157
210.0,18.021773693406676,15.701713684662588,0.5742738110814817,13.732568272700297
211.0,19.044735720073124,15.208444834646974,0.5735403163275167,13.70865836965505
212.0,20.110232141014286,14.776725903074228,0.5728820760576245,13.687480260758106
213.0,21.199179395105197,14.409380128334957,0.572300105819778,13.668973430412661
214.0,22.290259314008484,14.109202373057222,0.571795281147889,13.653083602174144
215.0,23.36044282207958,13.878834718905685,0.5713683308709138,13.639762780582116
216.0,24.385606797746636,13.72062546028094,0.5710198333621959,13.628969196571507
217.0,25.341191057741337,13.636469824534808,0.5707502119726174,13.620667314568443
218.0,26.20302660223118,13.627647914496182,0.5705597314466849,13.614827801948406
219.0,26.948111907455587,13.694658273265931,0.5704484966993931,13.611427443498052
220.0,27.555506838367137,13.83704737174018,0.5704164499625878,13.610449125690113
221.0,28.007189298157154,14.053265223517242,0.5704633714944941,13.611881707444084
222.0,28.28887132792033,14.340534956934247,0.5705888796555634,13.615719938240952
223.0,28.390788501435168,14.694755839405705,0.57079243159082,13.621964360717591
224.0,28.30826356583381,15.110461138220868,0.5710733262144692,13.630621152012948
225.0,28.042044606969956,15.580819575370374,0.5714307073380334,13.641701983105978
226.0,27.598386803095863,16.097699693739855,0.5718635676721715,13.655223854167406
227.0,26.988812645976235,16.651791768515846,0.5723707535070415,13.671208921609917
228.0,26.229536202163242,17.232791155813544,0.5729509712380242,13.689684280637978
229.0,25.34068198348024,17.82962140600449,0.5736027933232,13.71068177702797
230.0,24.345310419833577,18.430702413555316,0.5743246653798082,13.734237789916358
231.0,23.268347832509537,19.024248136309108,0.5751149142596285,13.760392991267489
232.0,22.135542984923326,19.598583385765906,0.5759717571203795,13.789192090144553
233.0,20.972491277023394,20.142476560050998,0.576893309594063,13.820683609480856
234.0,19.80378008783972,20.64547157657518,0.5778775959372411,13.854919600544699
235.0,18.652282565947143,21.09822639583368,0.5789225585639192,13.891955396900943
236.0,17.538593571480472,21.492820804245184,0.5800260682655408,13.931849335377857
237.0,16.48064465018459,21.823031619114257,0.5811859346783614,13.974662486817778
238.0,15.493436296774293,22.08454323495755,0.5823999164679736,14.020458387786176
239.0,14.588979444680932,22.275057825603334,0.583665732138432,14.069302758859322
240.0,13.776319371595118,22.394321356361583,0.5849810701013923,14.121263248681258
241.0,13.061748750165403,22.44400781528229,0.586343599133946,14.176409154344741
242.0,12.449110244180694,22.42751993140549,0.5877509783276801,14.234811167133373
243.0,11.940148784184034,22.349703114438974,0.5892008667380905,14.29654111735076
244.0,11.534967392551662,22.21650093155573,0.5906909328243957,14.361671725921825
245.0,11.232432193111745,22.034601758496844,0.5922188632590013,14.430276367521538
