Time,J,A,S,tau
0.0,100.0,100.0,0.7106610159482583,37.03703703703704
1.0,99.77619718748727,36.788817155557794,0.7090766386824813,38.03606764124937
2.0,99.55602188233294,13.533705600231766,0.7075175996859807,39.03520410783808
3.0,99.33933830017776,4.978721115708083,0.705982847760552,40.034417255240065
4.0,99.12599195612518,1.8315521724271153,0.7044713470999511,41.03369817804289
5.0,98.9158330765448,0.6737857550824288,0.7029820874242992,42.033039093875246
6.0,98.70871637754834,0.24787169893737943,0.7015140836473095,43.03243316862161
7.0,98.50450069554027,0.09118829482215157,0.7000665309742976,44.031850272330956
8.0,98.30304898035828,0.0335483145799204,0.69863860608668,45.03126737604031
9.0,98.10422819985915,0.012343978287101081,0.6972293638403837,46.03068447974968
10.0,97.90790899940797,0.004543419785249607,0.6958378852071554,47.03010158345905
11.0,97.71396551764882,0.0016737813921140097,0.6944632759659323,48.02951868716842
12.0,97.52227520849688,0.0006181072982174081,0.6931046654383863,49.02893579087778
13.0,97.33271866905235,0.00022974582255676462,0.6917612052665152,50.02835289458713
14.0,97.14517947314924,8.687271821516817e-05,0.6904320682302416,51.02776999829645
15.0,96.95954401026361,3.4308808723242044e-05,0.6891164471030644,52.02718710200576
16.0,96.77570132951354,1.4967386361182472e-05,0.687813553543862,53.02660420571506
17.0,96.59354298850083,0.0,0.6865226170230716,54.026021309424365
18.0,96.41296290674407,0.0,0.6852428837814659,55.02543841313367
19.0,96.23385722347757,0.0,0.6839736158199246,56.024855516842955
20.0,96.056124159557,0.0,0.682714089918364,57.02427262055226
21.0,95.87966388327364,0.0,0.6814635966824133,58.023689724261565
22.0,95.7043783801172,0.0,0.6802214396181232,59.023106827970864
23.0,95.53017132450262,0.0,0.6789869342206182,60.02252393168017
24.0,95.35694795934852,0.0,0.6777594071184817,61.021941035389474
25.0,95.18461495888425,0.0,0.6765381950991236,62.02135813909878
26.0,95.0130803556311,0.0,0.6753226445895852,63.02077524280808
27.0,94.84225339447833,0.0,0.6741121106198605,64.02019234651738
28.0,94.67204430779498,0.0,0.6729059552264511,65.01960945022668
29.0,94.5023646069293,0.0,0.671703549518402,66.01902655393597
30.0,94.33312614897292,0.0,0.6705042670587108,67.01844365764528
31.0,94.16424206859449,0.0,0.6693074904676608,68.01786076135458
32.0,93.99562645450698,0.0,0.6681126091259428,69.01727786506389
33.0,93.8271934024388,0.0,0.6669190124639411,70.01669496877318
34.0,93.65885726927078,0.0,0.6657260917623027,71.01611207248249
35.0,93.49053334808586,0.0,0.6645332449271198,72.01552917619179
36.0,93.32213702372665,0.0,0.6633398705089574,73.0149462799011
37.0,93.15358384776908,0.0,0.6621453682366721,74.01436338361039
38.0,92.9847894763535,0.0,0.6609491385565583,75.01378048731969
39.0,92.81566954340812,0.0,0.6597505817521547,76.013197591029
40.0,92.6461396772416,0.0,0.658549098058286,77.0126146947383
41.0,92.47611520906483,0.0,0.657344085575484,78.01203179844761
42.0,92.30551136014819,0.0,0.6561349416176129,79.01144890215691
43.0,92.13424283266063,0.0,0.6549210597895485,80.01086600586622
44.0,91.96222393997148,0.0,0.6537018309219319,81.01028310957551
45.0,91.78936869198735,0.0,0.6524766436785935,82.00970021328482
46.0,91.6155899672323,0.0,0.651244878658284,83.00911731699412
47.0,91.44080046910894,0.0,0.6500059152114802,84.00853442070343
48.0,91.26491202674974,0.0,0.6487591264570419,85.00795152441273
49.0,91.08783512622078,0.0,0.6475038759472708,86.00736862812202
50.0,90.90948002392356,0.0,0.6462395255981535,87.00678573183133
51.0,90.72975548740635,0.0,0.6449654267207382,88.00620283554062
52.0,90.54856939608618,0.0,0.6436809243021474,89.00561993924993
53.0,90.3658283619111,0.0,0.6423853543034915,90.00503704295923
54.0,90.18143756415631,0.0,0.6410780424861501,91.00445414666854
55.0,89.99530120967061,0.0,0.6397583076873544,92.00387125037784
56.0,89.80732179373351,0.0,0.6384255417506763,93.00327398708427
57.0,89.61740023194801,0.0,0.6370792543442165,94.00262605551832
58.0,89.42543604913983,0.0,0.6357187756256357,95.00191956707111
59.0,89.2313271400425,0.0,0.6343434218653595,96.00114694499165
60.0,89.03496968865959,0.0,0.6329525031301574,97.00029952057349
61.0,88.83625810434566,0.0,0.6315453237409595,97.99936736310835
62.0,88.63508494588285,0.0,0.6301211828568574,98.99833906997834
63.0,88.43134086020001,0.0,0.6286793752967674,99.99720153089251
64.0,88.2249145150512,0.0,0.627219192564081,100.99593964535607
65.0,88.01569253683657,0.0,0.6257399241515497,101.99453599321292
66.0,87.80355944992495,0.0,0.6242408591595161,102.99297044689786
67.0,87.5883976168715,0.0,0.6227212882876667,103.9912197127754
68.0,87.3700871868146,1.0740676619859629e-05,0.6211805062585981,104.98925679947722
69.0,87.14850603963664,1.2030488552361945e-05,0.6196178147512864,105.98705038152312
70.0,86.92352973732643,1.3508578143269653e-05,0.6180325259338764,106.98456405523461
71.0,86.69503147785544,1.5205060680177216e-05,0.6164239666968853,107.98175546045472
72.0,86.46288205254127,1.7155162327709892e-05,0.6147914837082216,108.9785752447602
73.0,86.22694980688725,1.9400303656450327e-05,0.6131344494347446,109.97496584069631
74.0,85.98710060646077,2.1988944487619526e-05,0.6114522692758616,110.97086002800678
75.0,85.74319780670345,2.49770123945254e-05,0.6097443900200176,111.96617923600056
76.0,85.49510222489027,2.843124725642645e-05,0.6080103098670946,112.96083153370421
77.0,85.24267212184961,3.24292794766019e-05,0.6062495901440285,113.95470928874161
78.0,84.98576318280689,3.7062230957468596e-05,0.6044618692236183,114.9476863768622
79.0,84.7242285090602,4.2437245382984637e-05,0.6026468786622597,115.93961494830522
80.0,84.4579186105215,4.867878507999337e-05,0.6008044622477693,116.93032159457411
81.0,84.18668140668854,5.5934142059973475e-05,0.5989345980368271,117.91960290108902
82.0,83.91036223277925,6.437330099689322e-05,0.5970374239996978,118.90722024731866
83.0,83.6288038503296,7.419720488294105e-05,0.5951132676905272,119.89289375757107
84.0,83.34184646747993,8.563776647829871e-05,0.5931626801251086,120.8762953552156
85.0,83.04932776129077,9.896671216775888e-05,0.5911864747626041,121.85704071186176
86.0,82.75110363011119,0.00018069493185755077,0.5891857712980504,122.83468013646281
87.0,82.44702621671405,0.00031876258106699524,0.5871620447824017,123.80868826612738
88.0,82.13692614479031,0.00047729602474561126,0.5851171803084628,124.77845247529358
89.0,81.82064068533066,0.0006596260268031863,0.5830535322116782,125.74326018514996
90.0,81.49800682840493,0.0008695908721789918,0.5809739875287966,126.7022850773957
91.0,81.16886177708079,0.0011115953078964487,0.5788820319346724,127.654572532189
92.0,80.83304353231125,0.0013906688589263578,0.5767818158843694,128.5990247086675
93.0,80.49039158532898,0.0017125206769453688,0.5746782181854753,129.53438578441134
94.0,80.14074772686439,0.002083584907883413,0.572576900829094,130.45922860629605
95.0,79.78395699575303,0.0025110532533658544,0.5704843518695172,131.37194335644745
96.0,79.41986876525282,0.003002884719115,0.5684079058801872,132.27073044339124
97.0,79.04833799533006,0.0035677864399303863,0.5663557360013652,133.15359885890516
98.0,78.6692266389922,0.00421515638707489,0.5643368077088973,134.01837213734282
99.0,78.2824052033966,0.004954978200520212,0.5623607842194838,134.86270418266517
100.0,77.88775445435417,0.005797662587704881,0.5604378774091722,135.68410639894836
101.0,77.4851672294213,0.006753830290566674,0.5585786385488969,136.4799876149573
102.0,77.07455032134243,0.007834037960721931,0.5567936894650293,137.2477069331876
103.0,76.65582634365846,0.009048455001175607,0.5550934013001546,137.98463841005312
104.0,76.22893556253814,0.010406503170725771,0.5534875323438253,138.68824527587344
105.0,75.79383754804323,0.011916486884640691,0.5519848525054355,139.35615847425575
106.0,75.35051257130084,0.01358523289452885,0.5505927715225751,139.98625556248726
107.0,74.8989626480456,0.015417786842168872,0.5493170207122862,140.57673008598664
108.0,74.43921229849735,0.01741717517993963,0.5481613963855707,141.12614890912013
109.0,73.97130863601225,0.01958427667249253,0.547127608098576,141.6334884930367
110.0,73.4953217855159,0.021917707538256143,0.5462151358315206,142.09816882722123
111.0,73.0113431533329,0.024414081315015865,0.5454214711996025,142.52000946674107
112.0,72.51948576276295,0.027068049698875704,0.5447421326092291,142.89922931177077
113.0,72.01988244035574,0.02987261275670345,0.5441709504506306,143.23639093380334
114.0,71.51268472446033,0.03281942444821396,0.5437003535534327,143.53234344731993
115.0,70.99806146181889,0.03589913908301158,0.5433217005724825,143.7881552281282
116.0,70.47619732703544,0.039101746499112244,0.5430256024538378,144.00504766117857
117.0,69.94729147633981,0.04241687971949484,0.5428022218638667,144.1843331419379
118.0,69.41155628642531,0.0458340846042274,0.5426415382730266,144.3273598465808
119.0,68.86921618945792,0.049343043949652984,0.5425335706423371,144.43546509785827
120.0,68.32050663362456,0.05293375544984195,0.5424685563500238,144.5099377286305
121.0,67.76567316797394,0.05659665695370327,0.5424370814475671,144.55199061819832
122.0,67.20497049744516,0.06032270795902174,0.5424301677898132,144.56274227943533
123.0,66.63866166708125,0.06410343462229456,0.5424393251541031,144.5432058631252
124.0,66.06701735459704,0.06793094871555627,0.5424565781673748,144.49428352892707
125.0,65.4903149088993,0.07179793785535277,0.5424744642024846,144.41676705286153
126.0,64.90883791858371,0.07569765316190062,0.5424860303686424,144.31133866945993
127.0,64.32287538684092,0.07962387432002802,0.5424848077072261,144.1785769014522
128.0,63.732720757847495,0.08357083877184955,0.5424647517696188,144.01896962323116
129.0,63.13867115417782,0.08753324734448353,0.5424202493255795,143.83291310432713
130.0,62.54102697999353,0.09150618479515855,0.5423460573594513,143.62072574722126
131.0,61.9400905711802,0.09548505793333004,0.5422372441602649,143.3826610643613
132.0,61.33616547610608,0.09946562149542786,0.5420892201147404,143.11890251650055
133.0,60.72955584482158,0.10344384297454365,0.5418976197981994,142.82958886158028
134.0,60.12056492606112,0.10741595706496335,0.5416583508442535,142.51480559515005
135.0,59.509494912842726,0.11137835218635582,0.5413675027387436,142.17460482520445
136.0,58.89664543246873,0.11532760083924173,0.5410213686095794,141.80900232689237
137.0,58.28231287203018,0.11926038906058345,0.5406163987881193,141.41798898124676
138.0,57.66678948699871,0.12317353027142916,0.5401492018317189,141.00153185947644
139.0,57.05036266119121,0.12706389982848407,0.5396165026955649,140.5595838694769
140.0,56.43331358847841,0.13092846604720917,0.5390151725375877,140.0920821258888
141.0,55.813867613867934,0.13581694965744834,0.6832132528772451,40.75184541382763
142.0,55.19600728747623,0.1495034180909468,0.6933014638260667,36.341836883430084
143.0,54.595016742915654,0.16909519822971106,0.6973531688874123,33.88179063252031
144.0,54.02192811445325,0.1944868414147483,0.6989493475481532,32.16089219927965
145.0,53.487706370708494,0.22588968684936164,0.6992212125626472,30.825799399925817
146.0,53.00365025297461,0.2635975128752345,0.6986800895658609,29.72514958074077
147.0,52.58137879527873,0.3079179690417001,0.697601982286977,28.780695528538192
148.0,52.23267142286342,0.3591420385538812,0.6961525692525856,27.94717875430124
149.0,51.96923715447465,0.4175268712079251,0.6944386237625529,27.19636127739074
150.0,51.80240427875871,0.4832858688101343,0.6925323980006182,26.509665134157487
151.0,51.74283093926618,0.556581258288771,0.6904846179818863,25.874346807130877
152.0,51.80015309596797,0.6375200386482088,0.6883318008310383,25.281397102578275
153.0,51.98266061609452,0.7261517013324815,0.6861008167828266,24.724264816581858
154.0,52.297001304358574,0.8224671641577741,0.6838117561290707,24.19807466979907
155.0,52.747922493427296,0.9263992277963244,0.6814798418821763,23.69912015599328
156.0,53.33801151631177,1.037824142678473,0.6791167156246715,23.22453241015659
157.0,54.06755716849169,1.1565622556133883,0.6767313515385311,22.77204908102799
158.0,54.9345366905266,1.2823817770846753,0.6743307656548725,22.339843080745037
159.0,55.93456806308833,1.4150024366495861,0.6719204655715009,21.92641781769426
160.0,57.06088476268246,1.5540987841634655,0.6695047875112174,21.53053111174671
161.0,58.30478767084074,1.6991813860611593,0.6670871859848965,21.151128015809356
162.0,59.65492319989688,1.8498491369806929,0.6646704370335698,20.787298865686747
163.0,61.088472160231596,2.0215804889951867,0.6622567861656273,20.438250103167125
164.0,62.59312499194675,2.231538879831692,0.659848070226642,20.10327870717957
165.0,64.16054262445282,2.494291760572799,0.657445812770503,19.781754354025587
166.0,65.77539957608114,2.8239026496730535,0.6550512972779866,19.473105608637916
167.0,67.40683584485501,3.233800592351422,0.6526656259317117,19.17680938127173
168.0,69.0014062868845,3.7363313238692335,0.6502897667137404,18.892382781537798
169.0,70.47971264886587,4.342225348752914,0.6479245917019054,18.6193767289387
170.0,71.73894238513513,5.060073529757362,0.6455709081893233,18.35737094326374
171.0,72.66241862069606,5.895873009351159,0.643229484585147,18.105969970838807
172.0,73.13486284241763,6.852685101244077,0.6409010716171467,17.864799945405647
173.0,73.05992747108807,7.930431400841927,0.6385864203718912,17.633506013129832
174.0,72.37509272580095,9.125851622831492,0.6362862972832971,17.411750167730116
175.0,71.06037228038156,10.432592229499164,0.6340014973570879,17.199209586037163
176.0,69.13802221915623,11.841473661546406,0.6317328544554784,16.995575036334404
177.0,66.66550357579712,13.340837068608646,0.6294812504229426,16.80054971507496
178.0,63.72385702013439,14.916912420645165,0.6272476234180292,16.61384821221517
179.0,60.40446030169627,16.555026939197962,0.6250329732024046,16.43519554641928
180.0,56.785895603102716,18.251897935243477,0.6228383672320795,16.264326469408765
181.0,52.93029291486343,20.011947345040646,0.6206649442753487,16.100984774395872
182.0,48.895025343025445,21.833827654201045,0.6185139174654822,15.944922710509372
183.0,44.74378243201919,23.699772945991914,0.616386576655588,15.795900524625448
184.0,40.555156512432426,25.56801803348461,0.6142842887825282,15.653685975091953
185.0,36.42550831202367,27.370849258547356,0.6122084985765734,15.518053997928016
186.0,32.46352486164637,29.021175017508554,0.6101607274204589,15.388786364933207
187.0,28.777195765810905,30.426868316547807,0.6081425718567036,15.265671410205199
188.0,25.457080598799823,31.50890367062406,0.6061557009739914,15.148503789531548
189.0,22.561810561825897,32.21708895096773,0.6042018530086037,15.037084278474838
190.0,20.110959822692706,32.53811580051538,0.6022828311310348,14.93121960135503
191.0,18.087054014314344,32.4941622189328,0.6004004988078168,14.8307223037043
192.0,16.445155165339038,32.13374149664384,0.5985567734945975,14.73541062145286
193.0,15.125429622247566,31.51943446176524,0.5967536206220009,14.64510840932784
194.0,14.065088364514743,30.716215160604225,0.5949930464610035,14.559645073360688
195.0,13.207677031226973,29.78240566101802,0.5932770904319166,14.478855528554607
196.0,12.507129090331173,28.76584973954366,0.5916078168758923,14.402580175160319
197.0,11.927685066265223,27.704176854611045,0.5899873063307198,14.330664891799884
198.0,11.442786380417603,26.626036022235116,0.5884176463711158,14.262961043643584
199.0,11.03393316984221,25.55231601649249,0.5869009221004032,14.19932550128765
200.0,10.689528016323395,24.497343514216237,0.5854392062772531,14.139620684052165
201.0,10.403515001861226,23.470251541834816,0.5840345494308246,14.083714573291655
202.0,10.173993653848674,22.47636305407801,0.5826889693204397,14.031480814576485
203.0,10.001882138508966,21.518500460843438,0.5814044408744042,13.982798725710206
204.0,9.88987180467109,20.597962635067642,0.5801828858640534,13.937553374942214
205.0,9.841669253588066,19.7152054429878,0.5790261625750537,13.895635645774036
206.0,9.861413858746783,18.870273761380595,0.5779360559656755,13.856942301763848
207.0,9.953285848161684,18.06307504133585,0.5769142675439424,13.82137605015609
208.0,10.12114830903862,17.29354663675934,0.575962405891151,13.788845603287733
209.0,10.368227290250134,16.56176564827981,0.5750819775895507,13.759265731529798
210.0,10.696802158454345,15.868025103744635,0.5742743783791429,13.732557321714513
211.0,11.107907093740678,15.212878733194135,0.5735408852053245,13.708647411009801
212.0,11.600968178840082,14.597156856631717,0.5728826469619667,13.687469313982481
213.0,12.173985912351243,14.0219953560797,0.5723006774959892,13.668962503103764
214.0,12.82259771129712,13.48875226590787,0.5717958535176458,13.653072695184546
215.0,13.540435042779569,12.999038762675063,0.5713689036212204,13.639751897679663
216.0,14.318841686678654,12.554667442466785,0.571020406711884,13.628958328992718
217.0,15.146897503970832,12.157621992935105,0.5707507858736534,13.620656462624387
218.0,16.011495252068194,11.810005361354412,0.5705603058135168,13.614816966887167
219.0,16.897509748015565,11.513974909607805,0.5704490713039982,13.611416629916782
220.0,17.78805697726817,11.271664002891741,0.5704170251222539,13.610438320929063
221.0,18.66491642362018,11.085092538585073,0.5704639469858787,13.611870917862802
222.0,19.508977713096105,10.956061576811864,0.5705894553053653,13.61570916536647
223.0,20.300766107242136,10.886034683050626,0.5707930073145971,13.62195360434301
224.0,21.021068370448734,10.876016308123209,0.5710739019250675,13.630610412604293
225.0,21.651525629129836,10.926420605724989,0.5714312832712667,13.641691251747828
226.0,22.17534066745009,11.03694204119727,0.5718641437048527,13.65521313394456
227.0,22.577919329313715,11.206440297052426,0.5723713300789683,13.671198198086024
228.0,22.847522448812732,11.432839959505559,0.5729515486650674,13.68967354617595
229.0,22.975876891414718,11.713058470702762,0.5736033715204976,13.710671035845518
230.0,22.958614057434467,12.042973357282797,0.5743252443079199,13.734227041456585
231.0,22.795556528670414,12.417423486948767,0.5751154940591333,13.760382230573288
232.0,22.490800151804706,12.830256930234592,0.5759723376640328,13.789181320553674
233.0,22.05254944532416,13.274421722970029,0.5768938909148564,13.82067282715956
234.0,21.492723686334855,13.742096591919774,0.5778781778392627,13.854908808617123
235.0,20.826346058666903,14.224859441231219,0.578923141147167,13.891944588376322
236.0,20.070838851901332,14.713877991634186,0.5800266515470376,13.931838509482455
237.0,19.245204094328283,15.200127746637014,0.5811865185571224,13.974651645136069
238.0,18.369228659559756,15.674620041954269,0.582400500992962,14.020447525672864
239.0,17.46274455744067,16.12864114166421,0.5836663172860237,14.069291875487322
240.0,16.544961661474698,16.55399654014338,0.584981655844285,14.121252342022432
241.0,15.633924536402958,16.943249913279914,0.5863441854435578,14.176398222559456
242.0,14.746085019361887,17.289952271486527,0.5877515651805736,14.234800206501832
243.0,13.89597441783138,17.58885294536088,0.589201454168555,14.29653012547634
244.0,13.095999225824402,17.836061290953634,0.5906915208824484,14.361660700689603
245.0,12.356358126175342,18.029150702165524,0.5922194519738008,14.43026530551141
246.0,11.68505349693761,18.167199548126,0.5937829606366839,14.502417741301779
247.0,11.0879933522902,18.25075168143308,0.5953797944782893,14.57819201863144
248.0,10.56919433298709,18.281694358726273,0.5970077425985014,14.657662152113707
249.0,10.131035318636432,18.26307732387658,0.5986646421206391,14.740901967963715
250.0,9.774546525554483,18.198888030414494,0.6003483844296273,14.827984919718794
251.0,9.499734547621781,18.09379462392559,0.6020569197384669,14.918983929856584
252.0,9.305867707012313,17.952901640833183,0.6037882618240091,15.013971235759673
253.0,9.191736081093232,17.781518722218284,0.6055404917266334,15.113018251371038
254.0,9.155865949948177,17.58496314147331,0.6073117608033778,15.216195442868697
255.0,9.196681681794864,17.368402161884813,0.6091002932219666,15.323572215819027
256.0,9.312616513157938,17.136738903426114,0.6109043874954182,15.43521682238729
