Time,J,A,S,tau
0.0,100.0,100.0,0.8022306700161549,14.492753623188404
1.0,99.65877744680796,92.22170780612667,0.8048411390555252,14.901082828244736
2.0,99.48064553878206,85.01945745867657,0.8074840748493909,15.320145740754201
3.0,99.5024533607228,78.3558105405314,0.810155570191321,15.749442549271635
4.0,99.75095568298443,72.19255329910317,0.8128531480653157,16.18871566365763
5.0,100.2368497956105,66.49407552713392,0.8132302113394446,16.827027233880315
6.0,100.95218285908248,61.227003974636,0.8092809017804647,17.82648451295581
7.0,101.87122311661844,56.360280564614484,0.8054701506646474,18.82624021866698
8.0,102.95440168809951,51.865014276332914,0.8017948333781062,19.825995924378155
9.0,104.15380598127472,47.71422251763545,0.7982484833731542,20.82575163008933
10.0,105.41894740292743,43.88278092760494,0.7948249635889568,21.825507335800502
11.0,106.70172636787825,40.347293985764885,0.7915184466570774,22.825263041511676
12.0,107.95997947698248,37.08597906460931,0.788323397330084,23.82501874722285
13.0,109.15953214028006,34.0785545375877,0.7852345562108293,24.824774452934022
14.0,110.27493271323867,31.306156418197638,0.7822469250417604,25.824530158645196
15.0,111.2891167748657,28.75125336276661,0.7793557515933254,26.82428586435637
16.0,112.19243849638396,26.39754749455468,0.776556515735276,27.82404157006754
17.0,112.98138741865097,24.229891318097117,0.7738449166770143,28.823797275778716
18.0,113.65722463358141,22.234208889915273,0.7712168613671112,29.82355298148989
19.0,114.22466537632613,20.39744245414897,0.7686684531609335,30.823308687201067
20.0,114.69073249758235,18.70748545577543,0.7661959808860949,31.823064392912237
21.0,114.3933712144782,7.406131073438465,0.7637959078446872,32.82282009862338
22.0,114.04382818069128,2.724533519728864,0.7614648637960043,33.82257580433452
23.0,113.70414482634249,1.0022889192496933,0.7591996352443826,34.822331510045665
24.0,113.37386198563989,0.36871746508137626,0.7569971570738142,35.8220872157568
25.0,113.05254152471592,0.13564209514602898,0.7548545045534037,36.82184292146794
26.0,112.73976521019054,0.04989939280610814,0.7527688857853169,37.82159862717908
27.0,112.43513363986237,0.018356759420865783,0.7507376345673948,38.821354332890216
28.0,112.1382652316418,0.006753000134236242,0.7487582036444942,39.821110038601354
29.0,111.84879526710543,0.002484262796225598,0.7468281583243942,40.82086574431249
30.0,111.5663749862945,0.000913899384221603,0.7449451704357215,41.82062145002363
31.0,111.29067073060637,0.00033620130650551433,0.7431070126068677,42.82037715573477
32.0,111.02136313083338,0.00012368014704665887,0.741311552846238,43.8201328614459
33.0,110.75814633760619,4.549895655580988e-05,0.7395567494055205,44.81988856715702
34.0,110.50072729164951,1.673804434882964e-05,0.7378406459086804,45.819644272868146
35.0,110.24882503145953,0.0,0.7361613667307209,46.819399978579284
36.0,110.00217003612542,0.0,0.7345171126110056,47.81915568429047
37.0,109.7605036011896,0.0,0.7329061564870972,48.818911390001645
38.0,109.52357724551803,0.0,0.7313268395355657,49.81866709571281
39.0,109.29115214738616,0.0,0.7297775674077918,50.81842280142399
40.0,109.06299860773176,0.0,0.7282568066470938,51.818178507135165
41.0,108.83889553992087,0.0,0.7267630812828091,52.817934212846346
42.0,108.61862997494963,0.0,0.7252949695273974,53.81768991855752
43.0,108.4019965986539,0.0,0.7238511006871782,54.81744562426869
44.0,108.18879730577994,0.0,0.7224301521856041,55.817201329979866
45.0,107.97884093056943,0.0,0.7210308477646664,56.81695703569104
46.0,107.77194235036221,0.0,0.7196519515015154,57.81671274140221
47.0,107.56792296358414,0.0,0.7182922709984009,58.81646844711339
48.0,107.36660610620525,0.0,0.7169506267902608,59.81622415282456
49.0,107.16782758858842,0.0,0.7156259226697645,60.815979858535734
50.0,106.97142712163108,0.0,0.714317088462727,61.81573556424691
51.0,106.77724441623067,0.0,0.7130230539949626,62.81549126995809
52.0,106.5851195173415,0.0,0.7117427513236209,63.81524697566926
53.0,106.39490436100455,0.0,0.7104751918652314,64.81500268138043
54.0,106.20645752235339,0.0,0.7092194313419512,65.81475838709162
55.0,106.01963758761288,0.0,0.7079745255499496,66.81451409280278
56.0,105.83430314300784,0.0,0.7067395302853957,67.81426979851396
57.0,105.65031348014605,0.0,0.7055135060515999,68.81402550422513
58.0,105.4675355348055,0.0,0.7042955643615726,69.81378120993631
59.0,105.285838209236,0.0,0.7030848298491634,70.81353691564748
60.0,105.10509164770394,0.0,0.7018804354339077,71.81329262135866
61.0,104.92516891759414,0.0,0.7006815335360127,72.81304832706982
62.0,104.74594346577268,0.0,0.6994872791074342,73.812804032781
63.0,104.5672909282552,0.0,0.6982968417009766,74.81255973849217
64.0,104.38908862148566,0.0,0.6971094020745314,75.81231544420335
65.0,104.21121405205258,0.0,0.695924142253865,76.81207114991452
66.0,104.03354609612033,0.0,0.6947402533922699,77.8118268556257
67.0,103.85596432261634,0.0,0.6935569312561299,78.81158256133688
68.0,103.67834855423564,0.0,0.6923733733012432,79.81133826704804
69.0,103.50057902846032,0.0,0.6911887797328446,80.81109397275922
70.0,103.3225360185694,0.0,0.6900023509898595,81.81084967847039
71.0,103.14409970663137,0.0,0.6888132868887136,82.81060538418157
72.0,102.96514978706274,0.0,0.6876207839733394,83.81036108989275
73.0,102.78556585017385,0.0,0.6864240380882893,84.81011679560392
74.0,102.6052263017755,0.0,0.6852222371475541,85.8098725013151
75.0,102.42400895831992,0.0,0.6840145651218795,86.80962820702626
76.0,102.24179078164238,0.0,0.6828002002635963,87.80938391273745
77.0,102.05844672090313,0.0,0.6815783073652953,88.80913961844861
78.0,101.87385134750785,0.0,0.6803480486930292,89.80889532415979
79.0,101.68787670355206,0.0,0.6791085696014593,90.80865102987097
80.0,101.50039321988595,0.0,0.67785900467448,91.80840673558214
81.0,101.31127011554098,0.0,0.6765984803939598,92.80816244129332
82.0,101.12037284824567,0.0,0.6753260981007246,93.80791814700449
83.0,100.9275661276568,0.0,0.6740409541353816,94.80767385271567
84.0,100.73271114250421,0.0,0.6727421213048855,95.80742955842685
85.0,100.53566598145582,0.0,0.6714286516982797,96.80718526413801
86.0,100.33628724009314,0.0,0.6700995874249033,97.8069409698492
87.0,100.13442649106163,0.0,0.6687539370257802,98.80669667556036
88.0,99.9299336861888,0.0,0.6673906982100531,99.80645238127154
89.0,99.72265367380979,0.0,0.6660088345809912,100.8062080869827
90.0,99.51242888920929,0.0,0.6646072936165622,101.80596379269389
91.0,99.29909701910515,0.0,0.6631849910609956,102.80571949840505
92.0,99.08249069644674,0.0,0.6617408088880663,103.80547520411622
93.0,98.86244140456338,0.0,0.6602736213875879,104.8052309098274
94.0,98.63877185374399,0.0,0.658782244224624,105.80498661553858
95.0,98.41130163518773,0.0,0.6572654722227507,106.80474232124975
96.0,98.17984755251138,0.0,0.6557220815759168,107.80449802696093
97.0,97.94421761378636,0.0,0.6541507897038853,108.8042537326721
98.0,97.70421758571493,0.0,0.652550299049007,109.80400943838326
99.0,97.45964515765031,0.0,0.6509192580774739,110.80376514409444
100.0,97.2102931824658,0.0,0.649256282938265,111.80352084980561
101.0,96.95595009865086,0.0,0.6475599602794581,112.80327655551679
102.0,96.69639390145923,0.0,0.6458288069662667,113.80303226122795
103.0,96.43140104968901,0.0,0.6440613295964,114.80278796693914
104.0,96.16073884306105,0.0,0.6422559735608062,115.80254367265032
105.0,95.88416632952944,0.0,0.6404111291122548,116.80229937836148
106.0,95.6014406452072,0.0,0.6385251737250467,117.80205508407266
107.0,95.31230607754361,0.0,0.6365963990126594,118.80181078978383
108.0,95.01650232798981,0.0,0.6346230659451635,119.80156649549501
109.0,94.71376396397278,0.0,0.6326034011794153,120.80132220120619
110.0,94.4038121821069,0.0,0.630535542023479,121.80107790691736
111.0,94.08636776979534,0.0,0.6284176230500007,122.80083361262854
112.0,93.76114268409883,0.0,0.6262477198138142,123.8005893183397
113.0,93.42782989397817,0.0,0.6240237809845153,124.80034502405088
114.0,93.08612135904313,0.0,0.6217437484872059,125.80010072976205
115.0,92.73570991345133,0.0,0.6194055700882827,126.79985643547323
116.0,92.37627848352825,0.0,0.6170071273229172,127.7996121411844
117.0,92.00748657440262,0.0,0.614546145212108,128.79936784689556
118.0,91.62899183470596,0.0,0.6120203363719984,129.79912355260674
119.0,91.24045189229709,0.0,0.6094274132797893,130.79887925831792
120.0,90.841517296048,0.0,0.606765041083652,131.7986349640291
121.0,90.43182465349228,0.0,0.6040307917492295,132.7983906697403
122.0,90.01100598855486,0.0,0.6012222066075886,133.79814637545147
123.0,89.57868585439927,0.0,0.5983366905746877,134.79791159813507
124.0,89.13448198845313,0.0,0.5966538471954747,135.6562030336993
125.0,88.67800580140549,0.0,0.5986339709661309,136.10061582679825
126.0,88.20886348563756,0.0,0.6006198435888437,136.53393267754586
127.0,87.72665543969575,0.0,0.6025983174520363,136.95712086565476
128.0,87.23097736017736,0.0,0.6045672283183364,137.36991601113058
129.0,86.72142090262527,0.0,0.6065242523475716,137.77204950338873
130.0,86.1975743767795,0.0,0.608466899088757,138.163248552978
131.0,85.65902364906071,0.0,0.6103925040216558,138.543236212171
132.0,85.1053529666296,0.0,0.6122982190745044,138.9117313601583
133.0,84.53614615288936,0.0,0.6141810080626104,139.2684488076928
134.0,83.95098770094425,0.0,0.6160376373474814,139.6130993019364
135.0,83.34946380830942,0.0,0.617864673432066,139.94538966746327
136.0,82.7311638902194,0.0,0.6196584667395266,140.26502270356104
137.0,82.09568233065522,0.0,0.6214151454199554,140.5716972942767
138.0,81.44261945856343,0.0,0.6231306257548148,140.86510875883363
139.0,80.77158344136825,0.0,0.6248005827415253,141.1449485641237
140.0,80.0821932317867,0.0,0.6264204459597762,141.41090450160618
141.0,79.37407792078487,0.0,0.6279854272503828,141.66266123407672
142.0,78.6281631883329,0.019276075695127882,0.629148142729783,141.83200987107088
143.0,77.71472243425863,0.2395053437619064,0.6278742861420679,141.50946432846186
144.0,76.74287526012304,0.6371476261696496,0.626379000953787,141.1282097765764
145.0,75.73097372233187,1.2779961080849538,0.6246546896924122,140.68372841435084
146.0,62.302478943399606,14.320382799155066,0.8511448159575926,21.1587774480769
147.0,62.9806802164307,13.2824321369533,0.8484789960862122,20.678203142438626
148.0,63.66611825678817,12.323489533876396,0.8457643992625266,20.20761571693476
149.0,64.3568380636883,11.437277749849533,0.8430017307883236,19.747100688174775
150.0,65.05041881991937,10.61803296246303,0.8401917400593177,19.296711774198325
151.0,65.74395051263517,9.86046476666909,0.8373352202819252,18.85647357744705
152.0,66.4340106632932,9.159715441807192,0.8344330082014785,18.426383966695326
153.0,67.11665857417472,8.51132773066019,0.8314859848501632,18.006416572126543
154.0,67.7874338089391,7.911207937588265,0.8284950750694144,17.596523113599645
155.0,68.44136864331008,7.3555948840061545,0.8254612473383866,17.196635580008717
156.0,69.07301405035878,6.841030920777234,0.8223855132644948,16.806668240961045
157.0,69.67648294011103,6.364339070167177,0.8192689280928083,16.42651964557325
158.0,70.24537028406986,5.922737780932365,0.8161125917589636,16.056074579810375
159.0,70.68536412963239,5.599209865593462,0.8129176458616811,15.695205664236639
160.0,70.7978526609116,5.57221487824886,0.8096852741786915,15.34377484860186
161.0,70.10828784290754,6.276705209019447,0.8064167036822377,15.001635102533877
162.0,68.97452250526159,7.271782562645462,0.8031132027305994,14.668631639431137
163.0,67.67892365016888,8.240323786825272,0.7997760823034759,14.344603305176417
164.0,66.2101441193847,9.18229578751123,0.7964066916375301,14.02938347494035
165.0,64.57069535073201,10.096711760167281,0.793006426762627,13.722801662575751
166.0,62.772385191848386,10.9816925379527,0.7895767231179862,13.424683967249498
167.0,60.83292431691551,11.834583296038465,0.7861190518899677,13.13485397678804
168.0,58.773793987663005,12.652019764187385,0.7826349220937333,12.853133499730378
169.0,56.618423373850554,13.43007407149661,0.7791258815757702,12.579343498722364
170.0,54.390996199783274,14.164445115854127,0.775593514643711,12.313304614214623
171.0,52.116130648408685,14.850142630453957,0.7720394409441386,12.054837726988172
172.0,49.8194585643155,15.4806684027097,0.7684653153047851,11.803764511109797
173.0,47.543396715304546,16.03269155324919,0.7648728250793091,11.559907813615085
174.0,45.3708115787063,16.44658121198431,0.7612636858614655,11.323091911754648
175.0,43.350738059084236,16.699551897507803,0.7576396448754112,11.093143105994363
176.0,41.50426720068105,16.79554785846143,0.7540024778098291,10.86988995136195
177.0,39.83584719876947,16.75224107541064,0.7503539874933186,10.653163535343284
178.0,38.34061735120792,16.59323688756819,0.7466959988606149,10.442797586372606
179.0,37.00893695867042,16.343391059414422,0.7430303600798382,10.238628811394632
180.0,35.82903268799338,16.02627062189723,0.7393589382665056,10.040496988096743
181.0,34.788266858547175,15.66295729911149,0.7356836183123648,9.848245159436424
182.0,33.87347330770307,15.271794621574031,0.732006299061662,9.661719725478283
183.0,33.069586338007795,14.869809153884683,0.728328891256986,9.480770565225523
184.0,32.35588206376133,14.476222919948027,0.7246533139682644,9.305251127704429
185.0,31.709062540143687,14.10931951329912,0.7209814913162197,9.135018486122426
186.0,31.106165561270984,13.784100942140087,0.717315349263385,8.969933432863938
187.0,30.525682987606707,13.51207281723197,0.7136568108656705,8.80986047721231
188.0,29.948328911226334,13.301462816359754,0.7100077936351294,8.654667957671178
189.0,29.35770745537743,13.15746741188182,0.7063702042632615,8.504228011782281
190.0,28.740966539655087,13.082369539988912,0.7027459338325529,8.358416616659358
191.0,28.089299276600627,13.075629089820193,0.6991368535688703,8.217113629335325
192.0,27.39836788394235,13.133820293923401,0.6955448104194855,8.080202798050696
193.0,26.668560376952133,13.250526087554498,0.6919716198293692,7.947571736577265
194.0,25.904375343423098,13.416950064762759,0.6884190616795253,7.819111947638206
195.0,25.113237995035913,13.622915986530515,0.6848888736584497,7.694718806252368
196.0,24.304173178285374,13.85791451637456,0.681382746011432,7.574291555756096
197.0,23.48658161347851,14.112000791353866,0.6779023155892497,7.457733312566713
198.0,22.669274612835153,14.376430715259705,0.6744491603105447,7.3449510269396825
199.0,21.859840007791394,14.644010577749647,0.6710247930676767,7.235855436652414
200.0,21.06429769167984,14.909214959815852,0.6676306562936661,7.130361045724689
201.0,20.287015929552854,15.168104436399913,0.6642681171895785,7.028386075735029
202.0,19.530843082159787,15.418090248173689,0.6609384629769469,6.929852382936933
203.0,18.79736761792903,15.657625339076732,0.6576428981583362,6.834685364705898
204.0,18.08721252664133,15.88589887954826,0.6543825414215892,6.7428139565066765
205.0,17.400335259558645,16.102542015888883,0.651158416078072,6.654170445603585
206.0,16.73631817356,16.307406193899233,0.6479714761015979,6.56869007775448
207.0,16.094483863101722,16.500411978042603,0.644822553658517,6.486311682041675
208.0,15.474302050523894,16.68137531512322,0.6417124463040867,6.406977055588825
209.0,14.874937449382601,16.850154129020552,0.6386418346037995,6.330629658330466
210.0,14.295933501630506,17.006370686379622,0.6356113335083647,6.257216943475719
211.0,13.73672427719133,17.149653080921162,0.6326215170804611,6.186687156468234
212.0,13.196796979468347,17.279562207351706,0.629672870158844,6.118991464302672
213.0,12.675930115892855,17.395556379054437,0.6267658827823986,6.0540823813879445
214.0,12.17355120323907,17.497217172784246,0.6239009856673068,5.991913546861283
215.0,11.689546579821888,17.58403676129145,0.6210786456773926,5.932440081578382
216.0,11.223494430864285,17.655615879193007,0.6182993123364297,5.875617409856593
217.0,10.775093348864038,17.711634448324443,0.6155635147151124,5.821401378022456
218.0,10.3442137766851,17.751759224230348,0.6128718259210404,5.769747902475372
219.0,9.930309152406213,17.77587220628455,0.610224909787353,5.720612370996541
220.0,9.533351374145644,17.783819795353192,0.6076235918452055,5.673949273536624
221.0,9.152704091088369,17.77563701464982,0.6050687276496303,5.6297128762743425
222.0,8.788149818260932,17.75144026574201,0.6025615330997811,5.587854429692462
223.0,8.439808613829298,17.71130371938359,0.6001033213066624,5.548324374251763
224.0,8.106904137297944,17.65555748074451,0.5976955017314939,5.511072379109039
225.0,7.789113325383486,17.584610459838753,0.5953399835902938,5.476043541436171
226.0,7.486545640821542,17.498808269554488,0.5930387899416426,5.443181882576451
227.0,7.198562745073579,17.398709776424436,0.5907941316716396,5.412429925377085
228.0,6.92478552583611,17.28493827171816,0.5886086599377027,5.383726226876748
229.0,6.664817875149327,17.158145629500744,0.5864851603370366,5.357008236410917
230.0,6.418246576725719,17.019072362169258,0.5844268116578839,5.332210150912463
231.0,6.18478394207552,16.86846339500666,0.5824369523319463,5.3092648451327
232.0,5.963903865101358,16.707159235285488,0.5805192350156241,5.288103025144193
233.0,5.7553981107709005,16.535973003878087,0.57867749063185,5.268654034881254
234.0,5.5587291725845995,16.35579804697052,0.5769157471763624,5.25084636554754
235.0,5.373589673046059,16.167509419681803,0.5752381803201949,5.234607790549653
236.0,5.199520540958218,15.972015120823832,0.5736490743864443,5.2198663080215715
237.0,5.036204652510157,15.770205928346915,0.5721527693133441,5.206550273445531
238.0,4.883226438893839,15.562982723690382,0.5707536035694076,5.194589707113481
239.0,4.740253369114878,15.351227945813783,0.5694558820911062,5.183916018558849
240.0,4.606925588742649,15.135811577956432,0.5682637670291466,5.174464000696513
241.0,4.482900605570279,14.917586195601025,0.5671813021792599,5.166170845121654
242.0,4.367877742998377,14.697374047948212,0.5662122363509237,5.158978881609446
243.0,4.261521104555857,14.47597914519016,0.5653601138327882,5.152833895839966
244.0,4.163581876617824,14.254165764937229,0.5646280485889976,5.147688290291906
245.0,4.0737483759518724,14.032676010922053,0.5640188566829015,5.143499082439294
246.0,3.9918168415698823,13.812210338270141,0.5635348269272843,5.140230879902664
247.0,3.917513747097008,13.593441311550766,0.563177852113396,5.137854118220152
248.0,3.8506754927064106,13.37700319555063,0.5629492505873058,5.136347183685696
249.0,3.791076779576966,13.163496580079592,0.5628498518536237,5.135695421126299
250.0,3.7385912402671306,12.953489924673274,0.5628799142948319,5.135891889531403
251.0,3.693048416568403,12.747513816981419,0.563039135128017,5.136937461315033
252.0,3.654358149621978,12.546073390448255,0.5633266861261088,5.138840007446775
253.0,3.62240850576331,12.349634703795932,0.5637411425065376,5.1416155891492386
254.0,3.597146289113216,12.158643562005617,0.5642806283685936,5.145286250704829
255.0,3.5785193787445033,11.973509552725497,0.5649426856804329,5.149881971589958
256.0,3.5665115901027074,11.794623419767063,0.5657245000664448,5.155437506247581
257.0,3.5611303889394326,11.622347106703382,0.5666227252400791,5.161994854693688
258.0,3.562411628686558,11.457028162581055,0.5676337612825492,5.169599461283323
259.0,3.570409855828026,11.298985613342492,0.5687536041857789,5.178302460723777
260.0,3.5852121089341176,11.148531555970923,0.5699780641075826,5.188157553139106
261.0,3.6069256684102418,11.005951475571138,0.5713027092920893,5.199222132551113
262.0,3.6356877858169403,10.871530753489658,0.5727229987820114,5.211555202818422
263.0,3.6716594802871327,10.745529381733627,0.5742343091271734,5.22521750975304
264.0,3.7150265826796294,10.628214448645473,0.5758319899579901,5.240270395092822
265.0,3.766003215866344,10.519827847830342,0.5775114502009568,5.256775204099705
266.0,3.8248198213365407,10.420628168234025,0.5792681571315366,5.274792831660759
267.0,3.8917385011806633,10.33084820870722,0.5810977396686338,5.294382876801555
268.0,3.967037855433725,10.250727228064418,0.582995965847425,5.31560358533427
269.0,4.051012496505918,10.180506351898163,0.584958847637976,5.338510753981333
