Time,J,A,S,tau
0.0,100.0,100.0,0.8022306700161549,14.492753623188404
1.0,99.67384586649949,91.10064567860852,0.802233666473718,15.114560211360654
2.0,99.52994190568222,82.92012753997875,0.8020833073676481,15.761568679566485
3.0,99.61044644675492,75.41024766317324,0.801779892689038,16.432980987291952
4.0,99.94258328375709,68.52238257112607,0.8013254013341423,17.128172749494894
5.0,100.53142916282793,62.210870531473375,0.8007237439408595,17.84638532524685
6.0,101.35783382999308,56.432838262746635,0.7999805965052776,18.586737923318907
7.0,102.3814851549645,51.14808338317791,0.7991031873517663,19.348243331788346
8.0,103.54784577357175,46.31901479280968,0.7981000327986706,20.12982753030075
9.0,104.79638042741165,41.91047052996101,0.7969806500337242,20.93035111838394
10.0,106.0680862433089,37.88956535640268,0.7957552680001116,21.74863104947365
11.0,107.31117772578448,34.22564489192894,0.7944345419814731,22.583462210577142
12.0,108.48432273822941,30.890151231882218,0.7930292850814168,23.43363774436781
13.0,109.55775260675101,27.856482534170308,0.7915502327214158,24.297966993362493
14.0,110.51282555590389,25.099885530310246,0.7900078396853488,25.17529109169323
15.0,111.34049961352524,22.59740184281058,0.788412115066428,26.064495676643496
16.0,112.03936505665239,20.32772995111605,0.7867724990035185,26.964520406803253
17.0,112.61366292929144,18.27110836820418,0.7850977733817124,27.874365942310902
18.0,113.07145131978827,16.40926200109982,0.7833960021985822,28.793098681547992
19.0,113.42305884104576,14.725307373743156,0.7816745069110584,29.719852695676433
20.0,113.67990895767377,13.203645464771139,0.7799398629588847,30.65383003461287
21.0,113.36910510981113,5.217584950841016,0.778197910956093,31.594299917976272
22.0,113.02269177940791,1.9194122317979447,0.7764537890341136,32.5405961423378
23.0,112.68604985288157,0.7061013230189789,0.7747119689727847,33.49211424452958
24.0,112.35872427501182,0.2597561627112209,0.7729763024306153,34.44830778071598
25.0,112.04028083426176,0.09555750376342964,0.7712500701150183,35.40868434572727
26.0,111.73030504146615,0.03515312137634542,0.7695360324505894,36.372801435495134
27.0,111.42840107009087,0.012931933788091054,0.7678364800031637,37.34026229294879
28.0,111.13419075421228,0.004757341213404513,0.7661532823795516,38.310711842475946
29.0,110.84731264062951,0.0017501217062552523,0.7644879347099777,39.2838327881602
30.0,110.56742109176301,0.0006438429201212489,0.7628416011344943,40.25934192643153
31.0,110.29418543621564,0.00023687036236003903,0.7612151549620759,41.23698670415282
32.0,110.02728916407915,8.715433279741946e-05,0.7596092153601864,42.21654203794524
33.0,109.76642916425939,3.207637100073542e-05,0.7580241805724605,43.19780739909132
34.0,109.51131500126642,1.1813390718051614e-05,0.7564602577617285,44.18060415999947
35.0,109.26166822908023,0.0,0.7549174896429869,45.16477319238049
36.0,109.01722173986415,0.0,0.7533957781131464,46.15017270345631
37.0,108.77771914539177,0.0,0.751894905108391,47.13667629412333
38.0,108.54291418928857,0.0,0.75041455092815,48.12417122197781
39.0,108.31257018777862,0.0,0.748954310268446,49.11255685112703
40.0,108.08645949870419,0.0,0.7475137061841841,50.10174327332357
41.0,107.86436301363226,0.0,0.746092202226016,51.09165007973511
42.0,107.64606966718075,0.0,0.7446892129629177,52.08220526467063
43.0,107.43137595872214,0.0,0.7433041130570579,53.07334424646172
44.0,107.22008567661968,0.0,0.7419362444220362,54.065009152293655
45.0,107.01200919464914,0.0,0.7405849240254541,55.057147804919396
46.0,106.80696304784135,0.0,0.7392494489700618,56.049713084324324
47.0,106.60477055801991,0.0,0.7379290997850991,57.042663018402415
48.0,106.40525899453534,0.0,0.7366231481931015,58.035958565937875
49.0,106.20826291938066,0.0,0.7353308561218217,59.029565574293315
50.0,106.013620998133,0.0,0.7340514810604152,60.02345256969379
51.0,105.82117419629935,0.0,0.7327842786328878,61.017589508732954
52.0,105.6307722369319,0.0,0.7315285039157368,62.01195132080912
53.0,105.44226654820116,0.0,0.7302834124208111,63.00651386446491
54.0,105.25550938436594,0.0,0.7290482593841116,64.00125347869692
55.0,105.07036060325302,0.0,0.7278223070922402,64.99615017908351
56.0,104.88668341549311,0.0,0.7266048224172456,65.99118548758996
57.0,104.70434105253615,0.0,0.7253950722592736,66.98634093547038
58.0,104.52319935881279,0.0,0.7241923279344934,67.98159913769429
59.0,104.34312898924586,0.0,0.7229958703973877,68.97694457565996
60.0,104.16400103754796,0.0,0.7218049817090183,69.97236188386073
61.0,103.98568857974685,0.0,0.7206189490988816,70.96783634716179
62.0,103.80806787781975,0.0,0.7194370696578885,71.96335413437461
63.0,103.63101542837464,0.0,0.7182586412804661,72.95890147139205
64.0,103.45440852722918,0.0,0.7170829647739934,73.9544647571739
65.0,103.27812662871509,0.0,0.7159093501316147,74.95003070482188
66.0,103.1020494973282,0.0,0.7147371089552004,75.94558604018236
67.0,102.9260576631213,0.0,0.7135655579299953,76.94111738393609
68.0,102.75003225915371,0.0,0.7123940204581944,77.93661094728034
69.0,102.57385445749978,0.0,0.7112218204192883,78.93205290972634
70.0,102.39740562182854,0.0,0.7100482866220501,79.92742898205202
71.0,102.22056690654162,0.0,0.7088727538811197,80.92272401056056
72.0,102.04321948258777,0.0,0.7076945579313424,81.91792273923367
73.0,101.8652435304099,0.0,0.706513042493348,82.91300829158884
74.0,101.68651857699514,0.0,0.7053275550351081,83.90796290839107
75.0,101.50692392729529,0.0,0.7041374447171933,84.9027684770733
76.0,101.32633709305298,0.0,0.7029420705648928,85.89740451982142
77.0,101.14463483984167,0.0,0.7017407949566763,86.89184966826492
78.0,100.96169248748336,0.0,0.7005329881244841,87.8860806703943
79.0,100.77738279010725,0.0,0.6993180332668415,88.88007107893951
80.0,100.59157810712783,0.0,0.6980953158038301,89.87379392613195
81.0,100.40414801369404,0.0,0.6968642379433493,90.8672184712502
82.0,100.21496029973365,0.0,0.6956242122133265,91.86031162130287
83.0,100.02388030819051,0.0,0.6943746687984257,92.85303666374422
84.0,99.83076955400857,0.0,0.6931150662439849,93.84535119520518
85.0,99.6354893808461,0.0,0.6918448636502658,94.83721261838973
86.0,99.43789662472884,0.0,0.6905635622994011,95.82857064229636
87.0,99.23784327398981,0.0,0.6892707118952445,96.8193664558084
88.0,99.03518123116477,0.0,0.6879658623109791,97.80954116262727
89.0,98.82975864863633,0.0,0.6866486092383579,98.7990282667408
90.0,98.6214160900579,0.0,0.6853186520536757,99.78774492359362
91.0,98.40999339445969,0.0,0.6839757005414658,100.7756066820542
92.0,98.19532749402143,0.0,0.6826195132913169,101.76252172965353
93.0,97.97724730134262,0.0,0.6812499936359309,102.74837710855994
94.0,97.75558005212685,0.0,0.6798670777002959,103.73305517385637
95.0,97.53014708918658,0.0,0.6784708356643495,104.7164196053435
96.0,97.30076483459642,0.0,0.6770614524418801,105.69831829497132
97.0,97.06724511285529,0.0,0.6756392418027402,106.67858184307093
98.0,96.82939329627705,0.0,0.6742047016595846,107.6570163921706
99.0,96.58701084614236,0.0,0.6727584617514208,108.63341084946708
100.0,96.33989130894436,0.0,0.6713014257372861,109.60751870336513
101.0,96.08782484959116,0.0,0.66983463144559,110.57907623244509
102.0,95.83059260864009,0.0,0.6683594916062682,111.54777215286504
103.0,95.5679720390808,0.0,0.6668775875165505,112.51327390570049
104.0,95.29973212497362,0.0,0.6653909146218611,113.47519697552862
105.0,95.02563657145599,0.0,0.6639017480263819,114.433121891063
106.0,94.745440977759,0.0,0.6624128117583845,115.38657324378353
107.0,94.45889478196403,0.0,0.6609272072623749,116.33502857028961
108.0,94.16573952629071,0.0,0.6594485199934322,117.27790512736586
109.0,93.86571002225446,0.0,0.6579807878769449,118.21456355054457
110.0,93.55853338900641,0.0,0.6565285672822959,119.14429939273765
111.0,93.24392914754827,0.0,0.6550969361416479,120.06634226751784
112.0,92.92160880545705,0.0,0.653691523348008,120.97985132726642
113.0,92.59127656549799,0.0,0.6523184535316238,121.88392137197752
114.0,92.25262861298678,0.0,0.6509843653199691,122.77757926528254
115.0,91.90535301853797,0.0,0.6496963729530896,123.65978671550134
116.0,91.54913037982844,0.0,0.6484619682943449,124.52945112027263
117.0,91.18363339920248,0.0,0.6472889639825548,125.38543032341809
118.0,90.80852642576434,0.0,0.6461853740325684,126.22654337626814
119.0,90.42346689497413,0.0,0.6451592622534567,127.05158889486603
120.0,90.02810410140287,0.0,0.6442185977703427,127.85935776130185
121.0,89.62207992417368,0.0,0.643371030280058,128.64865729520005
122.0,89.2050297408942,0.0,0.64262378653979,129.41832433171567
123.0,88.77658080650829,0.0,0.6419833043858678,130.16726021511386
124.0,88.3363550466911,0.0,0.6414552185546138,130.894437145968
125.0,87.88396700956326,0.0,0.6410440201330556,131.59893078487787
126.0,87.41902662509757,0.0,0.6407529863538914,132.27993062284642
127.0,86.9411370462167,0.0,0.6405839557353068,132.93676134742958
128.0,86.44989968453153,0.0,0.6405376257867355,133.56885708807008
129.0,85.9449072586501,0.0,0.6406122699779276,134.17588099049536
130.0,85.42575191727956,0.0,0.640805768752127,134.75753381669648
131.0,84.89202485317894,0.0,0.6411139857181364,135.31370580128004
132.0,84.3433123232317,0.0,0.6415312693392871,135.84442503464706
133.0,83.77920313102571,0.0,0.6420512905395479,136.34978119396135
134.0,83.19928543933821,0.0,0.642665917447564,136.83001697187945
135.0,82.60314764289026,0.0,0.6433666158574239,137.28540801865645
136.0,81.99038527384491,0.0,0.6441438087982557,137.71630564201033
137.0,81.36059437738135,0.0,0.644987270139513,138.12310095917536
138.0,80.71337853423617,0.0,0.6458864520881941,138.5061990367087
139.0,80.0047824221751,0.04519011692153859,0.6468156758144084,138.6529582323525
140.0,78.97598410337626,0.47256429955721796,0.6479652367673875,137.80441717452962
141.0,77.52588878995248,1.5521619645494358,0.6497263134521366,136.58986672061755
142.0,75.2967044442936,3.8300987277335494,0.6525194812812865,134.7965377678172
143.0,71.85167062989623,7.662951865676106,0.6572911052922097,131.93185821996457
144.0,67.40650358512055,12.302698599936647,0.6669635733100578,126.3658627430564
145.0,67.1267541115182,12.413838713284283,0.7084118876903492,99.0022735776085
146.0,67.96670569000685,11.472285109636445,0.7959043296131492,37.65057856481967
147.0,68.80009864236312,10.61029499382749,0.8107765751090983,30.38385985877978
148.0,69.62348220732056,9.8205496288586,0.817500758636831,26.81493434019471
149.0,70.43310736344257,9.096450785895469,0.8209960686534922,24.5082206724897
150.0,71.22492970117959,8.43204583621534,0.8227207067154801,22.82955998555363
151.0,71.99461855733313,7.821960829655297,0.8233158208342121,21.521778124028078
152.0,72.73757281141913,7.261341046997998,0.8231236304651155,20.45588028092946
153.0,73.4489436923772,6.74579769127816,0.8223498171113908,19.5583450554942
154.0,74.12366500851634,6.27136079263938,0.8211283895318029,18.783536669294335
155.0,74.75649091232212,5.834436239688627,0.8195519260024089,18.101352314176083
156.0,75.34203973522756,5.431769392549779,0.8176872820600148,17.49102111507358
157.0,75.78233171581597,5.152143973997426,0.8155844210199463,16.937710175895372
158.0,75.57295487906774,5.481913278390149,0.8132817365589581,16.430532591238748
159.0,74.29766149743048,6.773257433662969,0.8108093928111835,15.961327786069166
160.0,72.7061255599916,8.161403440508499,0.8081915345963987,15.523868487428118
161.0,71.09784125524321,9.327038613843865,0.8054477950197542,15.113331468101189
162.0,69.31504664392074,10.432379367055166,0.8025943548204891,14.725934806218868
163.0,67.36821232475621,11.480141619594434,0.7996447038729811,14.35868259108008
164.0,65.27662175701181,12.47194593123309,0.7966102234299124,14.00917408279437
165.0,63.06380447152715,13.40850074712655,0.7935006032006375,13.675469262477735
166.0,60.75474485589727,14.289768913357635,0.7903241739439787,13.35598655050976
167.0,58.37427448113681,15.115129810374388,0.787088164482953,13.049425429945254
168.0,55.94619176086456,15.883535503730448,0.7837989047674712,12.754707251321287
169.0,53.49284671816269,16.593630112347277,0.7804619877025619,12.470929776990367
170.0,51.03046287267504,17.24826718337149,0.7770824022579288,12.197330984231943
171.0,48.58644895136167,17.83697716527302,0.7736646354686783,11.933261811041813
172.0,46.285581658508804,18.256436547553843,0.7702127601349995,11.678163935554311
173.0,44.184758753857814,18.476573156163532,0.7667305079283265,11.431552791727828
174.0,42.294780677241775,18.51105669371674,0.7632213276360345,11.193003866495811
175.0,40.60759229410621,18.388853307471067,0.7596884322344968,10.962141344419434
176.0,39.106839241652004,18.143487249918046,0.7561348389182159,10.73862976391791
177.0,37.77447047072507,17.806797160147518,0.752563402547964,10.522166809576195
178.0,36.59357368713972,17.406456404164768,0.7489768428544101,10.312477884053072
179.0,35.54924040011145,16.965396592154722,0.7453777660810976,10.109311503505804
180.0,34.62852303080934,16.502014023576365,0.7417686842019979,9.91243570108391
181.0,33.81989000738907,16.03082439002043,0.73815202899784,9.721635168929565
182.0,33.10629942349968,15.569194391377989,0.7345301650321991,9.536708810248456
183.0,32.466197623240454,15.13574767187304,0.7309053979739464,9.357467915248224
184.0,31.87856193391239,14.74555393536972,0.7272799832347282,9.183734557237305
185.0,31.323433252888233,14.410206475317555,0.7236561300312971,9.015340354098484
186.0,30.782145304450395,14.138389824690194,0.7200360071460633,8.85212548905888
187.0,30.237680313464104,13.936311994866854,0.7164217440485413,8.693937799862958
188.0,29.67527073616381,13.807882118519952,0.712815433005542,8.540632179447783
189.0,29.082997449305473,13.754777269221563,0.7092191291028822,8.392069980338785
190.0,28.452358740116217,13.776385561769393,0.7056348498000696,8.248118558990202
191.0,27.779227219848472,13.869228421840067,0.7020645739746565,8.108650965341678
192.0,27.064044828348347,14.026927974725268,0.6985102392166939,7.973545517521257
193.0,26.311214837291885,14.240846525686102,0.6949737373943475,7.84268560945032
194.0,25.528028756056926,14.501012588035294,0.6914569133786649,7.715959497343868
195.0,24.72350287786166,14.797022138895032,0.6879615601277407,7.593260107951043
196.0,23.90726689406909,15.118843586776398,0.6844894147512814,7.47448489638586
197.0,23.088639017317362,15.457425897571824,0.6810421539416797,7.359535699476508
198.0,22.275951743312493,15.80508608963924,0.6776213892296515,7.248318610660655
199.0,21.47610932725677,16.15571102980777,0.6742286620693393,7.140743857923156
200.0,20.69438990859794,16.504770544387977,0.6708654394622771,7.036725710651663
201.0,19.934482722029195,16.84915303016238,0.6675331097880904,6.936182364815391
202.0,19.198674530688137,17.186906065907444,0.6642329790814144,6.8390358425263535
203.0,18.488111117833473,17.516942988789804,0.6609662662325865,6.7452119176141005
204.0,17.80309904440796,17.83874190998304,0.6577341010381693,6.654639689378803
205.0,17.14337992711814,18.152135153534818,0.6545375320974097,6.567252235475312
206.0,16.508295372378317,18.45709076287357,0.6513775046747208,6.48298525720476
207.0,15.897119870130897,18.753567815867463,0.6482548937905364,6.401778333850724
208.0,15.308934631026661,19.04148571416554,0.6451704741601176,6.323573114036485
209.0,14.743004584135482,19.320595529065663,0.6421249518441738,6.248314815182021
210.0,14.198486678039776,19.59058016003844,0.639118952539329,6.175950325074959
211.0,13.67479345736379,19.850950208597464,0.6361530459899699,6.106429531198325
212.0,13.171229551606944,20.10118380796786,0.6332277447198176,6.039703584247038
213.0,12.687337471853208,20.340653074016203,0.6303435322590665,5.975725903558472
214.0,12.22253509613821,20.568740279504546,0.6275008621709666,5.91445075550382
215.0,11.776437151458941,20.78479626553257,0.6247002013297235,5.855833797319636
216.0,11.348527383497753,20.988211587306807,0.6219420172009598,5.799831113779708
217.0,10.938447473203789,21.17840396225625,0.6192268471098649,5.746399197664919
218.0,10.545718698999046,21.354845901863854,0.6165552620096747,5.695494551136406
219.0,10.169983569188663,21.517077776419868,0.6139279696123223,5.647073066320525
220.0,9.810756972088877,21.664701852569497,0.6113457369829799,5.601090304033876
221.0,9.467670174392312,21.797419897013977,0.6088095616939398,5.557500063435622
222.0,9.140384585850546,21.914965474347383,0.6063205208468552,5.516255565366777
223.0,8.828287976649966,22.01723380377184,0.6038799527797196,5.4773077558373675
224.0,8.53129010578194,22.10413031155552,0.601489454242256,5.4406052757023176
225.0,8.248756337741062,22.17566723119214,0.5991506703652534,5.406096456036845
226.0,7.980205471110709,22.232002510984707,0.596865756472668,5.373725018397917
227.0,7.725645507046566,22.273275888058418,0.5946370562209582,5.343432887993562
228.0,7.484495915136709,22.299732704636227,0.5924669854698756,5.315161563615302
229.0,7.256117638605714,22.311779439626754,0.5903585079768084,5.288847909908954
230.0,7.040528710669494,22.309786138791207,0.5883147993430369,5.264426784072341
231.0,6.837337024486876,22.29419692635355,0.5863391208509471,5.241832567788879
232.0,6.645898444007989,22.265596046598652,0.5844351600025856,5.220996648447089
233.0,6.466056750030151,22.2245393594628,0.5826067428929459,5.201849248699708
234.0,6.297219076506217,22.17168196082096,0.5808578771719205,5.1843199053282945
235.0,6.1392274556308974,22.107683322208754,0.5791927579702041,5.168337278698975
236.0,5.991650585434684,22.03324843450236,0.5776156406592986,5.153830095437546
237.0,5.8541456747564915,21.949120551389434,0.5761308572392534,5.140728207216883
238.0,5.726535609994928,21.85603636603972,0.5747427462880775,5.128961916105906
239.0,5.608326850831321,21.754787257967436,0.5734555852604134,5.118464150697584
240.0,5.49943564588061,21.64613783513197,0.5722735172294217,5.109170499582869
241.0,5.399445866634145,21.5308882978612,0.5712006030050649,5.101018643329328
242.0,5.308176182809531,21.40982376053347,0.5702405202876281,5.093952622643213
243.0,5.225445474525636,21.283727965056237,0.5693968435580381,5.087918219897121
244.0,5.15091752401767,21.15339213018019,0.5686726543160541,5.082869027946818
245.0,5.084563275141877,21.0195771253033,0.5680706970416213,5.078763310880537
246.0,5.026054910884181,20.883056345223906,0.5675933689982159,5.075564784284935
247.0,4.97534900029774,20.744567252948173,0.567242360134988,5.07324684821248
248.0,4.932286340799329,20.604846960105117,0.5670191716491265,5.071785734769802
249.0,4.896710124854465,20.464608274685077,0.5669244525411978,5.07116943925313
250.0,4.868632966013311,20.32454438660148,0.5669585163163844,5.071390317455378
251.0,4.847854641788014,20.185336538857307,0.5671210822261216,5.072449117886125
252.0,4.834435272708712,20.04763485536436,0.5674111751016547,5.074355553710828
253.0,4.828267745862729,19.912080981453446,0.567827557306731,5.077123156638057
254.0,4.829350835044919,19.77928423263508,0.5683681413733114,5.080776677060321
255.0,4.83773099168661,19.649842742279418,0.5690306175366366,5.085343775523535
256.0,4.853337853190634,19.524326054128874,0.5698120789011502,5.090860371729404
257.0,4.87629144591563,19.403287882403344,0.570709202932857,5.0973676372059975
258.0,4.906554142885217,19.28725867715142,0.5717184227395592,5.10491042256544
259.0,4.944216915521838,19.17674585073412,0.5728356919954337,5.113539944044821
260.0,4.989342610673118,19.072243454481608,0.574056863657928,5.123308919712168
261.0,5.041948307529474,18.97421036781238,0.5753775085889601,5.13427436777198
262.0,5.10215484911309,18.88310110962899,0.5767930870298524,5.146494759053796
263.0,5.1699566220534345,18.799329725455557,0.578299005315499,5.160030022267653
264.0,5.245440626633712,18.72329984664547,0.5798906369878214,5.174940848992038
265.0,5.328626016236154,18.655387281623618,0.5815633742911034,5.191288125424923
266.0,5.419503859727774,18.595931129473037,0.5833127592665003,5.209131669988305
267.0,5.518089761089765,18.545264684019298,0.5851343908811596,5.228530741617374
268.0,5.624282847269484,18.50365931895671,0.5870240926382677,5.2495426992697745
269.0,5.737999511293016,18.47137975187922,0.5889779033259668,5.272222512107743
