Time,J,A,S,tau
0.0,100.0,100.0,0.6489075060100543,8.19672131147541
1.0,96.46507022469584,94.55162863011402,0.6511302899949246,8.449109532043824
2.0,93.04606518015254,89.38987077401987,0.6533564542515661,8.700452980150622
3.0,89.74088620866179,84.50262935849565,0.6555835131705058,8.95042904509122
4.0,86.54570128501318,79.8753893743624,0.6578110157831232,9.198968257050879
5.0,83.4568569865762,75.49439155257488,0.6600384968083374,9.446001356038977
6.0,80.4708990164345,71.34662043490216,0.6622654761685655,9.691459302650987
7.0,77.58459784033397,67.41976245113186,0.664491458514641,9.935273288815294
8.0,74.79498749063303,63.702166466068455,0.6667159327590418,10.177374748634131
9.0,72.09942346046107,60.182815238580915,0.668938371578744,10.417695369999862
10.0,69.4956588237084,56.851284411590605,0.6711582308920866,10.656167106935058
11.0,66.9819481953793,53.697725861023486,0.6730417881292128,10.856157987453816
12.0,64.55710220144648,50.71276185451976,0.6728923761254395,10.832250116661417
13.0,62.22068028485439,47.88753191883304,0.6727362889079718,10.807437018756847
14.0,59.9731156255903,45.213690447557966,0.6725735081760995,10.781734432236673
15.0,57.81581996412098,42.68333200233448,0.6724040166439091,10.755158630308985
16.0,55.751310912118534,40.288996163322786,0.67222779816662,10.727726401181929
17.0,53.78329927595834,38.023664004912405,0.6720448378633392,10.699455024477366
18.0,51.91673088452344,35.88076294361402,0.6718551222386526,10.670362247628793
19.0,50.15776948523924,33.85418521891012,0.6716586393017683,10.640466262018158
20.0,48.51368734161775,31.938313970210352,0.67145537868289,10.609785678510697
21.0,46.992708099212315,30.128087790605978,0.6712453317539205,10.578339505096958
22.0,45.603639378745434,28.419039168309006,0.6710284917253957,10.546147118603093
23.0,44.355472225969145,26.80738092372507,0.6708048537455157,10.513228240290145
24.0,43.25684358248841,25.2900916839315,0.6705744149957181,10.479602911314782
25.0,42.31540315390906,23.865017478514062,0.6703371747881051,10.445291468879791
26.0,41.53697981608681,22.530959180303608,0.6700931346671446,10.410314522710587
27.0,40.924645713864386,21.287717263463453,0.6698422984569343,10.374692927004157
28.0,40.477701283855836,20.136186826212786,0.6695846724062554,10.338447761718701
29.0,40.19146573473399,19.078371435170094,0.6693202650840991,10.30160029580767
30.0,40.05524453840501,18.11727516070116,0.6690490876397422,10.264171978926763
31.0,40.052359504650006,17.256849759327764,0.6687711537331086,10.226184408645457
32.0,40.15977804879816,16.50184445157445,0.6684864796116691,10.187659309566852
33.0,40.34795617784307,15.857519739145076,0.6681950841428768,10.148618510719388
34.0,40.58153960112433,15.329332105028634,0.6678969888420909,10.109083922996394
35.0,40.8203708387115,14.922492159819639,0.6675922178864607,10.069077517428902
36.0,41.02103652786405,14.641439425404975,0.6672807981317778,10.028621304157083
37.0,41.1388893489075,14.489225191680843,0.6669627591244996,9.987737311729958
38.0,41.13048523633828,14.466864136114351,0.6666381330800241,9.946447566944368
39.0,40.9562321253873,14.572608160147974,0.6663069548936952,9.90477407535128
40.0,40.58318449838777,14.80133223200389,0.6659692621052002,9.862738802481388
41.0,39.98771137579389,15.143985749070216,0.6656250948844449,9.820363655570981
42.0,39.15787969662968,15.587270072500228,0.6652744960025134,9.777670465691052
43.0,38.09489935590165,16.113625488233918,0.6649175107805151,9.734680971353088
44.0,36.81363638104006,16.70150977696216,0.6645541870620755,9.691416801661568
45.0,35.34176917308232,17.326080596943743,0.6641845751500834,9.647899461189983
46.0,33.71778058989415,17.96016253292186,0.6638087277664472,9.604150314234719
47.0,31.987929172834175,18.575514055116233,0.6634266999775437,9.560190571405583
48.0,30.2027751554346,19.14428264370637,0.6630385491439955,9.516041274994164
49.0,28.413572318181426,19.6406153918145,0.6626443348428733,9.471723286647178
50.0,26.668884903921953,20.042313232957405,0.6622441188016577,9.427257274564518
51.0,25.011738848697515,20.33241201122649,0.661837964824197,9.382663701585075
52.0,23.477484873969377,20.500407748947893,0.6614259387091298,9.337962814610098
53.0,22.092543881624206,20.54298148284413,0.6610081081801761,9.293174632929745
54.0,20.87421184081238,20.46388860529205,0.660584542794181,9.24831893978459
55.0,19.831251403682344,20.27317834468387,0.6601553138754387,9.20341527092329
56.0,18.96523227916194,19.985725759568492,0.6597204944286928,9.158482906710468
57.0,18.27220892815698,19.619532583541684,0.6592801590510453,9.113540864855645
58.0,17.744217194633748,19.194075319413294,0.6588343838622596,9.068607890972563
59.0,17.370472360919063,18.728903831885965,0.6583832464296362,9.023702451176398
60.0,17.13818456068481,18.242667748386616,0.6579268256824495,8.978842727008798
61.0,17.032910075501544,17.752513498258665,0.6574652018509977,8.934046606641543
62.0,17.038636581767978,17.27381452511042,0.6569984563915581,8.889331680764478
63.0,17.137686255029656,16.82009463582887,0.6565266719207541,8.844715236629366
64.0,17.310644650129873,16.403049479953108,0.65604993216326,8.800214251718593
65.0,17.536398612975468,16.03260581547588,0.6555683218872645,8.755845391349569
66.0,17.792366325657817,15.716921052169857,0.6550819268633,8.711625001799392
67.0,18.055052469287396,15.462352248533447,0.6545908338199085,8.667569107895128
68.0,18.300769765432577,15.273347642435022,0.6540951304037894,8.623693409394727
69.0,18.506698820540112,15.152295123427086,0.6535949051607159,8.580013275883417
70.0,18.65201308855068,15.099375685912188,0.6530902475067744,8.53654374636041
71.0,18.719087338913614,15.112405533056393,0.6525812477215485,8.493299524008322
72.0,18.694665593761005,15.186772236971704,0.6520679969458196,8.450294974935328
73.0,18.57076261299128,15.315459198778612,0.651550587184904,8.407544126285282
74.0,18.34531104767634,15.489198295275674,0.6510291113304307,8.36506066286328
75.0,18.022330523751144,15.696792319977602,0.6505036631849037,8.322857925954349
76.0,17.611639147263812,15.925594958027682,0.6499743375012815,8.280948911602142
77.0,17.128078850038087,16.162135356409216,0.6494412300225579,8.239346270723725
78.0,16.590412099516655,16.392848985928584,0.6489044375463742,8.198062305530888
79.0,16.019882886903833,16.604871003201087,0.6483640580021434,8.157108969067554
80.0,15.438687820395824,16.786804617201117,0.6478201905195146,8.116497866035399
81.0,14.868476978895917,16.9294259200731,0.6472729355345107,8.076240249155507
82.0,14.329035091377078,17.02619644731952,0.6467223948872761,8.036347021167387
83.0,13.837278164046978,17.073589196458794,0.646168671936057,7.996828733144705
84.0,13.406519352405132,17.071154950304287,0.6456118716975437,7.957695583465492
85.0,13.046182821727879,17.021325366673324,0.6450521009659808,7.918957419982204
86.0,12.761714151975358,16.929043521160896,0.6444894684824125,7.880623736896828
87.0,12.554767058375088,16.801211261505326,0.643924085095093,7.842703676437232
88.0,12.423577669233765,16.64609017627359,0.6433560639219825,7.805206028867282
89.0,12.363370381175406,16.472695291060255,0.6427855205369815,7.768139232610047
90.0,12.366811199529208,16.290238797161717,0.6422125731687895,7.731511374259849
91.0,12.424479610487257,16.107654070048472,0.6416373428764707,7.695330190458827
92.0,12.525329940479246,15.933197950971172,0.641059953795044,7.659603065639077
93.0,12.657211248152228,15.774145389778152,0.640480533336016,7.624337034838342
94.0,12.807390427051764,15.636554015969503,0.6398992124001353,7.589538784846589
95.0,12.963116881934257,15.525080332762563,0.6393161256288646,7.555214653145711
96.0,13.112235418819749,15.44286539567178,0.6387314116364919,7.521370629994362
97.0,13.243758510111322,15.39147247348257,0.6381452132301685,7.488012360640128
98.0,13.348418857898682,15.370871069293981,0.6375576776708196,7.455145144927331
99.0,13.41915654395165,15.379499261157685,0.6369689569164536,7.422773939337151
100.0,13.451445639053723,15.414392364837624,0.6363792078479998,7.390903359512491
101.0,13.443519131445896,15.471378503659139,0.6357885925617823,7.359537679801485
102.0,13.396304381288608,15.545347070329985,0.6351972785571008,7.328680837650795
103.0,13.313252614577518,15.630569360037981,0.6346054390139747,7.298336433865069
104.0,13.19994973098462,15.721059468535506,0.6340132529669575,7.268507737655286
105.0,13.063629624710728,15.810946332726957,0.6334209055883188,7.239197686375255
106.0,12.912567041540655,15.89483359788628,0.6328285883801249,7.210408889715748
107.0,12.755445492871482,15.968116142713404,0.6322364993834299,7.182143632437352
108.0,12.600741764786267,16.027228630688935,0.6316448433770392,7.154403877556225
109.0,12.456185364306064,16.069805657185675,0.6310538320521233,7.127191270131669
110.0,12.32832394648701,16.094747299369068,0.6304636841753395,7.100507141151036
111.0,12.222219653265022,16.10218837980771,0.6298746257259729,7.074352512011079
112.0,12.141271938695656,16.093384149248738,0.6292868900239905,7.0487280989003445
113.0,12.087148516701602,16.070528402156224,0.6287007178817955,7.02363431601179
114.0,12.059867089102074,16.036518201966018,0.6281163576584609,6.999071281759569
115.0,12.057952002276716,15.99470019274451,0.6275340652554829,6.97503882658365
116.0,12.07864369975461,15.94862035625466,0.6269541042571104,6.951536494982714
117.0,12.11819668507046,15.901781364284654,0.626376745851459,6.928563554036801
118.0,12.172162782269186,15.85742712769129,0.625802268852701,6.9061189990990535
119.0,12.235718543544188,15.818369351804643,0.6252309596341509,6.884201560944097
120.0,12.303981282323198,15.786855586665007,0.6246631120424541,6.86280971309652
121.0,12.372305128064106,15.76448340014433,0.6240990272787003,6.841941679554081
122.0,12.436542332142452,15.752160368184322,0.6235390137454587,6.821595442908408
123.0,12.493256264233908,15.750108141145137,0.6229833868588476,6.801768752864206
124.0,12.539864618305003,15.757907853977263,0.6224324687986327,6.782459136033343
125.0,12.57474528410094,15.774579596825376,0.6218865882856843,6.763663904045389
126.0,12.597264365352133,15.798688890023987,0.621346080406651,6.745380159106058
127.0,12.607671458330968,15.828493579948585,0.6208112858841536,6.727604817481327
128.0,12.60706470948391,15.862061724360656,0.620282551177967,6.710334603827745
129.0,12.59716150248785,15.897427580338697,0.6197602278855716,6.693566068651841
130.0,12.580148033558146,15.932717516585402,0.6192446721086138,6.6772956061545035
131.0,12.558483617501187,15.966266296421532,0.6187362442321046,6.661519456898279
132.0,12.534687209952263,15.996708407326917,0.6182353083292391,6.646233721958683
133.0,12.511157676521716,16.023040491289574,0.6177422316005392,6.631434375697076
134.0,12.490022784194608,16.04464724940339,0.6172573837746449,6.617117278792145
135.0,12.473021617995963,16.061300418157657,0.6167811364997383,6.603278190880893
136.0,12.461435625359913,16.07313211918606,0.6163138627077615,6.589912783734245
137.0,12.456027936496973,16.080580626159442,0.6158559359701586,6.577016653665011
138.0,12.45702919190682,16.08434124931163,0.6154077296461389,6.564585331356
139.0,12.464267468681587,16.085255518706695,0.6149696164689554,6.552614306291148
140.0,12.477110163271231,16.08426835745946,0.6145419673034443,6.541099026329888
141.0,12.494670024389366,16.08233326122921,0.6141251509468088,6.530034925171004
142.0,12.515803560786457,16.08035070859022,0.6137195329242583,6.519417424119732
143.0,12.539266372782707,16.07910436178912,0.6133254746688984,6.50924195699543
144.0,12.56377487786397,16.079243315232315,0.612943333409277,6.499503972362375
145.0,12.588133800434514,16.08121282481739,0.6125734598973057,6.490198960581172
146.0,12.611235083124374,16.08529538081609,0.6122161995805374,6.481322453381392
147.0,12.632220371618114,16.091568540800143,0.6118718896692416,6.472870049600533
148.0,12.650396747793385,16.099946463343638,0.611540859921077,6.464837422590925
149.0,12.665342939513755,16.110203099336346,0.6112234315997486,6.457220325998963
150.0,12.676873039076638,16.12198422673463,0.6109199147124122,6.450014635419373
151.0,12.685030765546296,16.134875637538872,0.6106306110180375,6.443216309755685
152.0,12.690023965342558,16.148414666708415,0.6103558088760911,6.43682146689774
153.0,12.69223038204563,16.16213448651672,0.6100957854162081,6.430826340930685
154.0,12.69212584665033,16.175598589739355,0.6098508064464536,6.425227312753314
155.0,12.690206231227053,16.188424292102056,0.6096211203983612,6.420020955193269
156.0,12.687050527574026,16.200288911886574,0.6094069675771178,6.415203950816805
157.0,12.683121257335928,16.210978098119785,0.6092085658043113,6.410773246716676
158.0,12.678891732401697,16.220329393670195,0.6090261256475945,6.40672588211288
159.0,12.674722027679413,16.22830699523839,0.6088598339237214,6.403059191746415
160.0,12.670858494222877,16.23491298773467,0.6087098674962422,6.399770627028577
161.0,12.667522946257664,16.240250521903125,0.6085763821617513,6.3968579149312275
162.0,12.664670001230576,16.244445212476098,0.6084595133614513,6.394319017499682
163.0,12.662330447240135,16.24766585635946,0.6083593893799879,6.392152004123534
164.0,12.660386089047906,16.25010479252743,0.6082761063850994,6.390355343162762
165.0,12.658623756517356,16.251942272162015,0.6082097517475241,6.388927604971125
166.0,12.656884914423431,16.2533663727823,0.6081603925297349,6.387867635707672
167.0,12.654907191448999,16.254516722083828,0.6081280694538429,6.387174593557584
168.0,12.652454249191354,16.255529344331567,0.6081128171140757,6.386847726081028
169.0,12.649330205385283,16.256484842124305,0.6081146375573357,6.386886692872185
170.0,12.645320040191429,16.25743281383932,0.6081335206850154,6.387291292909653
171.0,12.64028464267728,16.25840062500168,0.6081694393913802,6.388061560264034
172.0,12.634116379521684,16.259359560080693,0.608222337166524,6.389197879888495
173.0,12.626740796363745,16.260277655447045,0.608292153610171,6.390700695069103
174.0,12.618168230456432,16.26109419786604,0.6083787964526969,6.392570854530826
175.0,12.608393501838918,16.26172203505035,0.6084821533428116,6.394809432528657
176.0,12.597471930199896,16.262082262693816,0.6086021116707627,6.3974175236596365
177.0,12.585557972602462,16.262107853041364,0.6087385268849004,6.400396635022691
178.0,12.572697848626953,16.26171512326587,0.6088912267525662,6.403748575449513
179.0,12.558935161129861,16.260820046252835,0.6090600386064382,6.4074751581241305
180.0,12.544492622180593,16.259379199863066,0.6092447820545603,6.411578329530768
181.0,12.52951298840054,16.25737253469669,0.609445236521806,6.416060503120414
182.0,12.51401256551575,16.254766571248222,0.6096611708667132,6.42092419153617
183.0,12.498039970537853,16.251534816161545,0.6098923540748198,6.426171913018958
184.0,12.481838061802128,16.247713632357833,0.6101385384171996,6.431806422893048
185.0,12.465418915479145,16.24332568632099,0.610399444923399,6.43783078957348
186.0,12.448740085004498,16.23838497850589,0.6106747917922061,6.44424810248326
187.0,12.431827394609106,16.232922092139436,0.6109642973482076,6.451061468144555
188.0,12.414859733702578,16.227014102463833,0.6112676606860157,6.4582742359693315
189.0,12.397777823175195,16.220691118756882,0.6115845576568013,6.4658899347879695
190.0,12.380501053389231,16.213978500454246,0.6119146631688347,6.4739120975611675
191.0,12.362963439025382,16.206905229721063,0.6122576521404979,6.482344262595674
192.0,12.345298668613502,16.19954331843072,0.6126131906388185,6.4911901080638605
193.0,12.327519003471718,16.191920662187087,0.6129809250338287,6.5004534136527
194.0,12.30957231652388,16.18404749213706,0.613360499255799,6.5101379533298855
195.0,12.291406480693835,16.175934039427528,0.613751557235,6.520247501063109
196.0,12.27307780658313,16.16761332897621,0.6141537405468399,6.530785891737315
197.0,12.254674792254773,16.15911044803364,0.614566680417046,6.541756958140963
198.0,12.236188916702671,16.150422569454864,0.6149900052419208,6.553164468238635
199.0,12.217611652930644,16.14154686462005,0.615423343417756,6.565012189991252
200.0,12.198991892776617,16.13249211843123,0.6158663218111101,6.57730397493346
201.0,12.180511896853922,16.12329434924451,0.6163185644521046,6.590043690027915
202.0,12.16218508004878,16.113955714634127,0.616779700673619,6.603234755923025
203.0,12.14401051097132,16.10447548090842,0.6172493602196227,6.61688056518543
204.0,12.125987258231685,16.094852914375732,0.6177271728340853,6.630984510381771
205.0,12.10811439044001,16.08508728134441,0.618212768260976,6.645549984078687
206.0,12.090391016483947,16.075177858918344,0.6187057762451602,6.660580378819749
207.0,12.072936144317824,16.065157479307768,0.6192058315852863,6.676078931769967
208.0,12.05588863858733,16.055069758048614,0.6197125787130864,6.692048534941955
209.0,12.03929099705,16.044934081037873,0.6202256621142488,6.708492057043696
210.0,12.023191311430885,16.03477752986636,0.6207447310577309,6.725412229380633
211.0,12.007626442173747,16.0246300034117,0.6212694426673496,6.742811533823234
212.0,11.99262404755332,16.01452448581452,0.6217994534655443,6.760692473838984
213.0,11.978207799160769,16.004497905964605,0.6223344322071601,6.7790571970816265
214.0,11.96441152707462,15.99458358308934,0.6228740581162258,6.797907533550288
215.0,11.951269162633233,15.984814793500377,0.6234180104763044,6.817245311395644
216.0,11.93878898640486,15.975223326080544,0.6239659679764133,6.837072383152419
217.0,11.926962602486572,15.96583930223447,0.6245176260799131,6.857390120286405
218.0,11.915840152508254,15.956695656510728,0.6250726958490384,6.878199426213952
219.0,11.90547339600817,15.947825409102611,0.6256308885837871,6.899501197014446
220.0,11.895911522184688,15.939261258890253,0.6261919155645255,6.9212963295179595
221.0,11.887116555220242,15.931024205184208,0.6267554951431371,6.943585512203574
222.0,11.879104009792115,15.923139709570114,0.627321367507428,6.966368770429275
223.0,11.871936835969304,15.915638792565533,0.627889276779988,6.989646007745251
224.0,11.865669003508755,15.908551268890186,0.6284589669408511,7.013417131872018
225.0,11.860248650735416,15.90189221040723,0.6290301891152139,7.037681813962139
226.0,11.855712967485834,15.89568750895556,0.6296027146784938,7.062439073979232
227.0,11.852136728515905,15.889967968327488,0.6301763178328373,7.087687842233674
228.0,11.849572395672169,15.884761391554685,0.6307507726545444,7.113427050867718
229.0,11.847946374634796,15.88007903812024,0.6313258627950276,7.1396552780969
230.0,11.847311370248418,15.875949825295084,0.631901389521435,7.1663704931431935
231.0,11.847748516383271,15.872406546538027,0.6324771555910889,7.193570615799306
232.0,11.849294976311112,15.869476027738548,0.6330529637817116,7.221253557302877
233.0,11.851859465095929,15.867168231549597,0.6336286281882152,7.249416757357804
234.0,11.855508117547997,15.865515198721093,0.6342039769393915,7.2780571267329695
235.0,11.860324936973452,15.864551428227747,0.6347788388113728,7.307171553667644
236.0,11.866318490687675,15.864301118067125,0.6353530428691249,7.3367568957956655
237.0,11.873389802778547,15.8647738192938,0.6359264302656089,7.366809435228104
238.0,11.881615793923912,15.866003137999764,0.6364988524106644,7.39732502752544
239.0,11.891081663776962,15.868023811565838,0.6370701609179125,7.428299520880127
240.0,11.901755614547847,15.870854235133525,0.6376402080259699,7.459728696034108
241.0,11.913547572924688,15.874503708240171,0.6382088578243263,7.491607680047375
242.0,11.926541789180643,15.879005235991354,0.6387759812475695,7.523931282614197
243.0,11.940824094436197,15.884392040970303,0.6393414492572994,7.556694312444242
244.0,11.956313067801087,15.8906732965938,0.6399051337687615,7.5898914563007605
245.0,11.97294701380068,15.897859115707211,0.6404669174711123,7.623516705399043
246.0,11.990812356477617,15.905980044302678,0.6410266871730129,7.657563835231387
247.0,12.009990662258547,15.915065924615146,0.6415843296465891,7.692026622117425
248.0,12.030356440661977,15.925115899234049,0.6421397329800091,7.726898643462797
249.0,12.051882410988885,15.936141324132855,0.6426927942493896,7.762172787630868
