Time,J,A,S,tau
0.0,100.0,100.0,0.9470007556509475,10.309278350515463
1.0,100.61787187740762,87.14005168145917,0.9481745844540208,10.798931306250914
2.0,101.90260128879237,75.80718784498504,0.9493159378555582,11.307401380140123
3.0,104.08037315644958,65.83981062085913,0.9504210368177367,11.83462834413474
4.0,107.28690767172631,57.08868899967991,0.9514866434062721,12.380663739746824
5.0,111.51946190160376,49.41886201596567,0.9525098469431458,12.94552033153818
6.0,116.63310388427995,42.70854762335274,0.9534880909518236,13.529166065772491
7.0,122.37671618144391,36.84807888280893,0.9544191968232973,14.131518720251412
8.0,128.4490621285309,31.738899557153406,0.9553013829888606,14.752441476973848
9.0,134.55357932174033,27.292619936918626,0.9561332784336058,15.391739631689955
10.0,140.43810087763214,23.430131685537365,0.9569139296024959,16.049158612177163
11.0,145.91525139393144,20.080780273593042,0.9576428000396637,16.724383421436077
12.0,150.86612694489435,17.18159337417532,0.9583197624457783,17.4170395563385
13.0,155.23285965154844,14.67656349010544,0.9589450832118223,18.126695381541218
14.0,159.00572562455193,12.51598365925309,0.9595193998643248,18.852865867862274
15.0,162.20906651082322,10.65583023732656,0.960043692176428,19.5950175437556
16.0,164.88858341937973,9.057196332491205,0.9605192480110163,20.352574451830083
17.0,167.1011617820321,7.685770721237715,0.9609476251576125,21.124924866557468
18.0,168.90744563466814,6.511359607199106,0.9613306105289442,21.91142851056316
19.0,170.3668605645321,5.507456372088674,0.9616701781401471,22.71142400115471
20.0,171.53463983899204,4.65082171237356,0.96196844704673,23.524236286112657
21.0,172.46023765716484,3.921139949346098,0.9622276407889839,24.349183811029867
22.0,173.1867606016967,3.300687661857547,0.9624500489814335,25.185585265456613
23.0,173.75102836710934,2.7740358671031125,0.9626379920244167,26.032765735641167
24.0,174.18400298914622,2.3277799048562784,0.9627937895184188,26.8900621573435
25.0,174.51139970083685,1.9502985073703545,0.9629197327119277,27.75682800924081
26.0,174.75436445158138,1.6315372612154464,0.9630180611094623,28.632437225246864
27.0,174.93014283876474,1.3628179879306574,0.9630909432140293,29.516287331107456
28.0,175.05270703192667,1.136665024685565,0.9631404612911747,30.40780182554536
29.0,175.13331371645413,0.946651824877574,0.9631685998338478,31.30643187468821
30.0,175.18096247773792,0.7871271226051726,0.9631772373779601,32.211657385981624
31.0,175.10236875337338,0.2999823859304088,0.9631681412500477,33.12298754370862
32.0,175.02101524782137,0.11035746740848208,0.9631429650462624,34.03996083194471
33.0,174.94187329408305,0.04059906799237517,0.9631032480608892,34.96214471904213
34.0,174.86482521158618,0.014936613978503951,0.9630504166290045,35.889134987179666
35.0,174.7897588425856,0.005495957904937182,0.962985786859351,36.82055481773593
36.0,174.7165672278995,0.0020229079522040357,0.9629105684679307,37.75605368513925
37.0,174.6451482996031,0.0007451959438576882,0.9628258694292009,38.69530611267235
38.0,174.5754045896955,0.0002750997335244004,0.9627327012007019,39.63801033621141
39.0,174.50724295379342,0.00010210980584104974,0.9626319843152727,40.58388691449697
40.0,174.4405743089559,3.842221172452153e-05,0.9625245541706757,41.53267731768903
41.0,174.3753133847937,1.4948311035102593e-05,0.9624111668788523,42.48414251975683
42.0,174.31137848704395,0.0,0.9622925050662159,43.43806161465691
43.0,174.2486912728512,0.0,0.9621691835410799,44.39423047155985
44.0,174.18717653700674,0.0,0.9620417547663866,45.35246044014908
45.0,174.12676200844845,0.0,0.9619107140935657,46.312577113671814
46.0,174.06737815639053,0.0,0.9617765047276794,47.27441915473891
47.0,174.0089580051485,0.0,0.9616395224121094,48.23783718505655
48.0,173.95143695766933,0.0,0.9615001198140148,49.20269274266445
49.0,173.89475262798632,0.0,0.9613586105987126,50.16885730915193
50.0,173.83884467605762,0.0,0.9612152732984962,51.13621137935582
51.0,173.78365465853474,0.0,0.9610703547522714,52.10464363127829
52.0,173.72912587837695,0.0,0.9609240734044526,53.07405012221301
53.0,173.6752032363306,0.0,0.9607766224188123,54.044333522341276
54.0,173.62183310353467,0.0,0.9606281723103686,55.01540246468108
55.0,173.56896318071983,0.0,0.96047887365341,55.98717086551082
56.0,173.5165423711631,0.0,0.9603288594463155,56.95955732610861
57.0,173.4645206564971,0.0,0.9601782473209178,57.93248456747099
58.0,173.41284897560152,0.0,0.960027141603574,58.905878896906565
59.0,173.36147910851037,0.0,0.9598756352159775,59.87966971074129
60.0,173.31036355851722,0.0,0.9597238115143095,60.85378900717868
61.0,173.25945544672228,0.0,0.9595717459028614,61.82817095508974
62.0,173.20870839482987,0.0,0.9594195075392414,62.80275143283115
63.0,173.15807641601634,0.0,0.9592671608847448,63.77746760534007
64.0,173.1075138092856,0.0,0.9591147671769555,64.75225751956124
65.0,173.05697505473032,0.0,0.9589623858692932,65.72705970679505
66.0,173.00641470759945,0.0,0.9588100760804578,66.70181278075783
67.0,172.95578729091727,0.0,0.958657898058721,67.67645503101885
68.0,172.9050471903834,0.0,0.958505914623439,68.65092402320485
69.0,172.85414855039795,0.0,0.9583541926184916,69.6251561970749
70.0,172.80304516963733,0.0,0.9582028044044318,70.59908645587485
71.0,172.75169039269372,0.0,0.9580518294526515,71.57264773036144
72.0,172.70003699631454,0.0,0.9579013560796319,72.54577050830542
73.0,172.64803708368385,0.0,0.9577514831261433,73.51838238408745
74.0,172.59564197429285,0.0,0.957602321782895,74.49040757338607
75.0,172.5428020916465,0.0,0.9574539975372253,75.46176640081298
76.0,172.48946684700275,0.0,0.9573066522813084,76.43237475047025
77.0,172.43558450843244,0.0,0.9571604467845917,77.40214342680137
78.0,172.38110208249296,0.0,0.9570155630927928,78.37097754410001
79.0,172.32596519302942,0.0,0.9568722071040233,79.33877587714046
80.0,172.27011795232835,0.0,0.9567306114140512,80.30543014898556
81.0,172.21350282810965,0.0,0.9565910383843629,81.27082426930511
82.0,172.15606048113997,0.0,0.9564537839357963,82.234833394455
83.0,172.0977296483138,0.0,0.9563191806746141,83.19732317144911
84.0,172.0384469763685,0.0,0.9561876020949114,84.1581487117575
85.0,171.97814686889106,0.0,0.9560594667187926,85.11715359186164
86.0,171.91676132311284,0.0,0.9559352425970065,86.07416877028324
87.0,171.85421975985838,0.0,0.9558154520982057,87.02901143920215
88.0,171.7725754103828,0.014872653650702694,0.9556578849638075,87.96433532484849
89.0,171.65641223364688,0.038127864763118614,0.9554329408268607,88.86758348966238
90.0,171.53149644734907,0.05141893942220774,0.955207786733252,89.76502822676308
91.0,171.39636743029598,0.06193189526108668,0.9549826199525152,90.65611630357124
92.0,171.24926124297266,0.07250356991513715,0.9547576697212004,91.5402416376904
93.0,171.08803841580928,0.08441763015056354,0.954533199437438,92.4167399580915
94.0,170.9100935533471,0.09844448017326257,0.9543095087588369,93.28488296645037
95.0,170.71224233683915,0.11523919724611655,0.9540869355265182,94.14387197274675
96.0,170.490580435321,0.13550389828243492,0.9538658574480083,94.99283093319833
97.0,170.24030832159977,0.1600717822529208,0.9536466934527872,95.83079882708516
98.0,169.95551466723322,0.18996423411739025,0.9534299046136588,96.65672132040612
99.0,169.65531878854952,0.33236497116894187,0.9532159945554904,97.4694415819511
100.0,169.34811001202942,0.5447764905401598,0.9530055092398428,98.26769015798898
101.0,169.02010469798503,0.7770267254703731,0.952799036073595,99.05007368354178
102.0,168.66625185120483,1.038859850306321,0.9525972022634644,99.81506223433723
103.0,168.28140564815038,1.3413408565927762,0.9524006724157463,100.56097500773129
104.0,167.8605048929228,1.6972147476768598,0.9522101454550062,101.28596382528312
105.0,167.3988892007168,2.1212261716536105,0.952026350995227,101.98799396366498
106.0,166.89278435110558,2.6303541861876893,0.9518500454805412,102.66482133432967
107.0,166.33998489859104,3.2438788817382314,0.9516820085428251,103.31396501095556
108.0,165.7407349344545,3.98316479960673,0.951523040300788,103.93267342120336
109.0,165.098747900115,4.871011982480489,0.951373960609981,104.51788207868661
110.0,164.42223728397406,5.930387379467718,0.9512356116820189,105.06615983695251
111.0,163.7247362548433,7.182342936038225,0.9511088660381567,105.57363918344595
112.0,163.02540737966254,8.64297601418917,0.9509946423503316,106.03592548678095
113.0,162.34862292067473,10.319351844865347,0.9508939330285654,106.44797439732993
114.0,161.72269976330065,12.204681258056954,0.9508078477508156,106.80392885780545
115.0,161.17854758970063,14.272928397159292,0.9507376811284306,107.09689320304938
116.0,160.7488135106214,16.474127905966967,0.950685012306667,107.31862231010336
117.0,160.46912685563407,18.731295756447317,0.9506518527751115,107.45907594069436
118.0,160.3822515915466,20.94051577060649,0.9506408630484305,107.50577727698834
119.0,160.54453851506304,22.975488025047387,0.9506556720612798,107.4428637336026
120.0,161.03218947407711,24.697202940351453,0.9507013587380767,107.24963117587863
121.0,161.9433207274758,25.96845939686431,0.9507851877209845,106.89824955495992
122.0,163.3923163755716,26.67158582140341,0.950917783727052,106.34998238800745
123.0,165.49516626011436,26.72656875368939,0.9511150649617142,105.54868765956033
124.0,168.34786371085661,26.106335162707996,0.9514016363357494,104.40881583746972
125.0,172.00231932597853,24.846132251991637,0.9518171912935851,102.79137112511172
126.0,176.44364566173172,23.045891492262932,0.9524293663344164,100.4519345680966
127.0,181.58023479126945,20.858692768884037,0.9533628659908399,96.9115838527383
128.0,187.57814656588405,18.164092404503027,0.954871443345009,91.0937756268918
129.0,193.5109053071385,15.843220903023562,0.9574964125303752,80.31896017349005
130.0,199.3427920974161,13.841379113615051,0.9616962443457142,61.562132460148085
131.0,205.04337835783855,12.112050777787424,0.9654625185228083,45.16644685633554
132.0,210.58695437594542,10.615842507286999,0.967651877492418,36.24259046373923
133.0,215.61531115355422,9.664045470643755,0.9688910889490788,31.01004028833795
134.0,219.34556178553143,10.084139505327617,0.9695920128676683,27.532885504587522
135.0,221.39199569582757,12.295110781173129,0.9699517226492435,25.01733300330378
136.0,220.9739510178819,16.686755006737936,0.9700732181051724,23.090815905091556
137.0,217.24183851237237,23.07432286575662,0.9700158858993314,21.55490036384773
138.0,210.1304831836578,30.55648547395176,0.9698167295974486,20.293220648228942
139.0,200.70146991510197,37.96149796023609,0.9695002013556202,19.23243894894363
140.0,190.31189099511954,44.45430271399028,0.9690832083776437,18.32369819206361
141.0,179.82826526028452,49.76407338655715,0.9685778605577475,17.53300421752986
142.0,169.56475163471802,54.01338827490803,0.9679930750354966,16.835876289748818
143.0,159.56373737339158,57.440023440392224,0.9673355641851238,16.21417522300356
144.0,149.84902131801076,60.20028392634508,0.9666104679078985,15.65415016661459
145.0,140.5135440708442,62.33054160309519,0.9658217755132616,15.145182364462958
146.0,131.62393215849175,63.866654609219204,0.9649726148991185,14.678936966549161
147.0,123.20630025792357,64.86506347288605,0.9640654567985243,14.24879098633062
148.0,114.97321804988728,65.66983947095926,0.9631022627646424,13.849410671284543
149.0,106.42317582355872,66.77934549310972,0.9620845908204331,13.47646947269197
150.0,98.45387330796372,67.30110785053115,0.9610136810031392,13.126426841985243
151.0,92.87434048201382,65.58210335725592,0.9598905171327791,12.79636502599935
152.0,89.75503403140569,61.78333466225453,0.9587158761820116,12.483865133932056
153.0,88.05589930555641,57.08369099977709,0.9574903673959064,12.18691094158418
154.0,87.02297302888577,52.27150870966058,0.9562144639526609,11.90381384404288
155.0,86.30483452877546,47.68165260282077,0.9548885290176025,11.633153368603583
156.0,85.75080860796302,43.43198246881996,0.953512837533031,11.373729554871412
157.0,85.29745106386686,39.5518068949919,0.9520875943405881,11.124524905550299
158.0,84.9240694850614,36.032697115234676,0.9506129512147495,10.88467344888836
159.0,84.63367724675624,32.84995016176864,0.949089019997858,10.65343473164549
160.0,84.44375419201315,29.972551110280993,0.9475158833977634,10.430173184702412
161.0,84.37566804449045,27.37360276121797,0.9458936079346401,10.214341298450845
162.0,84.45232988063792,25.030712128759372,0.9442222526164072,10.005464819001826
163.0,84.69866002843027,22.923576318831728,0.9425018782873168,9.803131504858014
164.0,85.13709107228742,21.035827270713174,0.940732555721745,9.606980793174863
165.0,85.78206300206871,19.356827365378702,0.938914372625653,9.416695773369515
166.0,86.63434430746062,17.88272440782484,0.9370474414395515,9.231996515972202
167.0,87.67573395180281,16.616813631366774,0.9351319068807802,9.05263411446735
168.0,88.86284176873453,15.569274204283344,0.9331679487631394,8.87838585663702
169.0,90.12380070549051,14.756651367816895,0.9311557897028295,8.709051209777117
170.0,91.35687106161579,14.200403730880337,0.9290957000831258,8.54444859673622
171.0,92.43458960315675,13.924071120683285,0.9269880030537849,8.384412456473992
172.0,93.21228633973767,13.949613409018049,0.9248330790454125,8.228790954067058
173.0,93.54224929898211,14.292759611843373,0.922631369634585,8.07744392173093
174.0,93.29354843897819,14.956911224038166,0.9203833819869496,7.930241285705302
175.0,92.37567741387696,15.926288861572845,0.9180896918388688,7.787061612300581
176.0,90.76144241594625,17.159438773987027,0.9157509468987154,7.6477909860156865
177.0,88.50059815012284,18.585368095386716,0.9133678695470363,7.512322029014293
178.0,85.71774010463398,20.10434274580748,0.9109412596367158,7.380553109535269
179.0,82.59378068257739,21.594954153043894,0.908471996302596,7.252387658918289
180.0,79.3372916994754,22.92744082761942,0.9059610399231586,7.1277336238938025
181.0,76.15263482673521,23.982547676589462,0.9034094332791406,7.006502998043996
182.0,73.20962291116066,24.67376034919228,0.9008183025182744,6.888611442729189
183.0,70.62019449435446,24.966499647688504,0.8981888576831265,6.773977974157863
184.0,68.43017091089965,24.884326611594343,0.8955223929740156,6.66252471232592
185.0,66.63041036075133,24.496797467044992,0.8928202857479651,6.5541766561088295
186.0,65.17983959165178,23.89578181731362,0.8900839958374221,6.448861521945181
187.0,64.02745086111707,23.173034133643565,0.8873150641502353,6.346509608762119
188.0,63.12421585657198,22.407694119093005,0.8845151106109288,6.247053688681269
189.0,62.42471977754924,21.66360585210318,0.8816858316270554,6.150428922902527
190.0,61.88314968881721,20.9918748593853,0.8788289969944988,6.056572796913035
191.0,61.44842996446626,20.43433473489368,0.8759464462782691,5.965425071970898
192.0,61.06157095133442,20.025605541006563,0.8730400845651689,5.876927748540001
193.0,60.65655196234571,19.793237533834894,0.8701118776649902,5.7910250390949285
194.0,60.16482372085574,19.756334607901042,0.8671638470979474,5.70766335603546
195.0,59.52249218725655,19.923377919637478,0.8641980637841559,5.626791286944185
196.0,58.678970518677424,20.289947243857586,0.8612166424608024,5.548359595158028
197.0,57.604887005742896,20.83720977291704,0.858221734710266,5.472321204945157
198.0,56.297184362199495,21.532177807609923,0.8552155220321758,5.398631186946004
199.0,54.77979427607124,22.330317984469534,0.8522002087463311,5.327246745392423
200.0,53.09925175179253,23.180537609172273,0.849178014715167,5.258127193068285
201.0,51.31637655187642,24.03167040767092,0.8461511682827408,5.191233923527241
202.0,49.4960382967634,24.839156528405184,0.8431218991631833,5.126530367815663
203.0,47.697502518386194,25.570440391113856,0.8400924318355057,5.063981940417203
204.0,45.967333622877895,26.207958231100342,0.8370649793852998,5.003555972594416
205.0,44.33602711577261,26.74911187408943,0.8340417382291935,4.945221617477299
206.0,42.81790550528211,27.203882136433972,0.8310248835900701,4.888949757816234
207.0,41.4136367803443,27.59079710947388,0.8280165669799305,4.8347128746654215
208.0,40.11391861780758,27.932678190217167,0.8250189132915868,4.782484893751674
209.0,38.903222394742556,28.25290731885691,0.8220340213073053,4.732241020835462
210.0,37.76319364641944,28.572604269495375,0.819063965254134,4.683957555320746
211.0,36.67542875810005,28.908847748065234,0.8161107985589351,4.637611668588801
212.0,35.623509953093674,29.273787283803767,0.813176559443169,4.593181169740165
213.0,34.59437042343736,29.67447154072274,0.8102632789683967,4.550644250750931
214.0,33.57897652652001,30.11324865048527,0.8073729909574834,4.509979209606145
215.0,32.572417531382065,30.588564819187873,0.8045077445299331,4.471164161392335
216.0,31.57355019936224,31.095978571672475,0.8016696194629216,4.434176739104053
217.0,30.58416667435072,31.62925356271627,0.798860741375226,4.398993775886764
218.0,29.60804742434037,32.18140836954087,0.7960832999615796,4.365590999808668
219.0,28.650016105506335,32.74556499943036,0.7933395682098445,4.333942730520328
220.0,27.715100703703357,33.31556375683936,0.7906319221504403,4.304021586559057
221.0,26.807889901350755,33.88632684089162,0.787962860912841,4.275798208308787
222.0,25.932109652018966,34.45399621210902,0.7853350276336779,4.249240987221201
223.0,25.090437874917313,35.01586974362554,0.7827512264829619,4.224315868336532
224.0,24.284476400942065,35.57023369015126,0.7802144449814101,4.200986093093475
225.0,23.514920279261872,36.11609002365555,0.7777278544748524,4.179212274221437
226.0,22.78162076730409,36.652956916757454,0.7752948488228629,4.158951885263923
227.0,22.083905216157454,37.18061082200921,0.7729190212465011,4.140159735551306
228.0,21.420669262466287,37.698926030520965,0.7706041825561499,4.1227876898339595
229.0,20.790572793210004,38.20775659315027,0.7683543682055013,4.106784773878883
230.0,20.19214010621673,38.706859445043996,0.7661737977620978,4.092097642160887
231.0,19.62383935691681,39.19584652934993,0.7640669124866628,4.078670280776091
232.0,19.08413826593096,39.674215734964754,0.7620382935580013,4.06644500419718
233.0,18.571510476819427,40.14130696300582,0.7600926979687279,4.055362118531015
234.0,18.08447736937657,40.59639146393762,0.7582349731642823,4.0453609945689735
235.0,17.621571723067696,41.03864180010684,0.7564700543369691,4.036380137040133
236.0,17.181378315408793,41.46719925600729,0.7548029023511487,4.028358003224641
237.0,16.76249077790225,41.88116618710546,0.7532384667561978,4.021233388799235
238.0,16.363514409909474,42.27963279695967,0.7517816177453979,4.014946318521453
239.0,15.983116370798376,42.66170483442897,0.7504371092372397,4.00943846990166
240.0,15.619935231701103,43.026478819004105,0.7492095131650972,4.0046538930275375
241.0,15.272675068260506,43.37308138927991,0.7481031433294435,4.000539974810154
242.0,14.940086678963908,43.700658525284446,0.7471220457093117,3.997047464232762
243.0,14.620901090662235,44.00835996531184,0.74626988332903,3.9941317956266986
244.0,14.313973444493781,44.295377269305654,0.7455499156896112,3.9917533442567286
245.0,14.01817130905687,44.56090964432604,0.7449649774513414,3.9898775700483067
246.0,13.732408247755183,44.804175096663585,0.7445173512635134,3.988476493888403
247.0,13.455737712019596,45.02443057577696,0.7442088261237161,3.9875279904201264
248.0,13.187190752540925,45.220932622484455,0.7440406208085644,3.987016579241718
249.0,12.925938988221914,45.39297967492725,0.7440133320789055,3.9869340430283473
250.0,12.671249384926977,45.53989970159655,0.7441270166302518,3.9872784214213026
251.0,12.42237789874877,45.661032007904616,0.7443810824868078,3.988055191330943
252.0,12.178772606872236,45.75577658988997,0.7447743519619128,3.9892765756000084
253.0,11.939906288277305,45.823558254187176,0.7453051038228471,3.990960981303754
254.0,11.70530386660723,45.863844708897666,0.7459710048873842,3.993133753365213
255.0,11.474667015791992,45.87617377170942,0.7467692430844901,3.995825680423072
256.0,11.24766930385238,45.86011706743088,0.7476965208667067,3.9990729844728135
257.0,11.02410665669035,45.81532728588796,0.7487490664379898,4.00291720301984
