Time,J,A,S,tau
0.0,100.0,100.0,0.8095851530963546,10.1010101010101
1.0,99.41806015210999,36.78888708786496,0.8050324083520275,11.091626897729839
2.0,98.84570582931052,13.533798231357995,0.8005484270135994,12.082682652408726
3.0,98.28253510000427,4.97881903080383,0.796130638712533,13.074125440783423
4.0,97.72815220014783,1.8316491817418044,0.791776487600254,14.065925070699207
5.0,97.18217507484088,0.6738797944864934,0.7874834747150021,15.05805363209039
6.0,96.64423470972054,0.2479622094611331,0.7832491577186728,16.050485288746348
7.0,96.11397449444566,0.09127514387826048,0.7790711503890236,17.04319608865367
8.0,95.59104961649186,0.03363157127777783,0.7749471219054694,18.036163791103007
9.0,95.0751264835866,0.012423848919915824,0.7708747959620597,19.029367708917047
10.0,94.56588217321887,0.004620147233800391,0.7668519497371608,20.022788564307934
11.0,94.0630039077533,0.001747608765850251,0.7628764127457327,21.016408357010224
12.0,93.5661885537725,0.0006892689911822257,0.7589460655969108,22.01021024345967
13.0,93.07514214435135,0.0002984632433587759,0.7550588386767683,23.004178425899678
14.0,92.58957942304966,0.00015335113876389935,0.7512127107736644,23.998298050398134
15.0,92.1092234084784,9.87401349523521e-05,0.7474057076613675,24.992555112847363
16.0,91.63380497838573,7.753149804567159e-05,0.7436359006533565,25.98693637210265
17.0,91.16306247223612,6.871331955385468e-05,0.7399014051398038,26.981429269483677
18.0,90.69674131130347,6.454982102943528e-05,0.7362003791171695,27.976021853927115
19.0,90.23459363561143,6.218980524218987e-05,0.7325310217206552,28.97070271215506
20.0,89.77637795552145,6.057951770035944e-05,0.7288915717586046,29.96546090316614
21.0,89.3218588181286,5.932662649307793e-05,0.725280306260943,30.960285896598958
22.0,88.87080650162902,5.8283703648195555e-05,0.721695539140252,31.95516751510874
23.0,88.4229966935007,5.739471174957092e-05,0.7181356196852267,32.95009587797036
24.0,87.97821020387431,5.663411114157216e-05,0.7145989312295566,33.94506134838372
25.0,87.53623270351488,5.599036816944525e-05,0.7110838899444586,34.94005448294041
26.0,87.09685443555246,5.545784249819479e-05,0.7075889434126114,35.93506598120785
27.0,86.65986995979422,5.503253019781017e-05,0.7041125693853928,36.93008663763452
28.0,86.22507792640513,5.471079599562367e-05,0.7006532747226416,37.9251072941707
29.0,85.79228083466556,5.449118815469986e-05,0.6972095942070929,38.92011879259909
30.0,85.3612847974677,5.4372854628221965e-05,0.6937800893739124,39.91511192747534
31.0,84.93189933419116,5.435417061116899e-05,0.6903633475329979,40.91007739868399
32.0,84.5039371771498,5.44347690489151e-05,0.6869579808930266,41.90500576223988
33.0,84.0772140605733,5.461543376547144e-05,0.6835626255409404,42.89988738130099
34.0,83.65154853226895,5.489701863533374e-05,0.6801759405885054,43.89471237566823
35.0,83.22676178596394,5.527983898175899e-05,0.6767966074935634,44.88947056772196
36.0,82.80267748803512,5.57661130823234e-05,0.6734233293462643,45.884151426623276
37.0,82.37912160646921,5.6358732375723345e-05,0.6700548301691629,46.878744011587095
38.0,81.95592226011165,5.705984389729007e-05,0.6666898544034267,47.87323691030835
39.0,81.53290957948586,5.7872582697377014e-05,0.6633271665339935,48.86761817089782
40.0,81.10991555814287,5.880159994131971e-05,0.6599655506322689,49.861875234094335
41.0,80.68677391947763,5.985184513501723e-05,0.6566038100572379,50.855994859841694
42.0,80.26331999869967,6.1027416005682956e-05,0.6532407673484906,51.849963044475096
43.0,79.83939062509074,6.233546745986775e-05,0.6498752641729746,52.84376493162077
44.0,79.41482400289821,6.37825965775253e-05,0.6465061612249368,53.83738472565655
45.0,78.98945961964283,6.537495529378374e-05,0.6431323385335117,54.83080558236595
46.0,78.56313814334406,6.712234800638257e-05,0.6397526956610398,55.824009501586644
47.0,78.13570133775193,6.903270178077446e-05,0.6363661521476794,56.81697720587252
48.0,77.70699197969171,7.111775449751671e-05,0.6329716480750456,57.809688007228274
49.0,77.27685378657331,7.338721788447661e-05,0.6295681447525217,58.80211966637707
50.0,76.84513135041952,7.585514857873879e-05,0.6261546256524807,59.7942482292397
51.0,76.41167007926047,7.85335321257469e-05,0.6227300973819848,60.786047862451674
52.0,75.97631614783332,8.143903099359523e-05,0.6192935910442229,61.77749065233104
53.0,75.53891645381353,8.458647596743646e-05,0.6158441635408974,62.768546411253
54.0,75.09931858562913,8.799542615705455e-05,0.6123808994225731,63.75918243078921
55.0,74.6573707943437,9.168428856216934e-05,0.6089029125781713,64.74936325175945
56.0,74.21292197950146,9.567581598756501e-05,0.6054093486431356,65.73905036224056
57.0,73.7658216773394,9.999293422741864e-05,0.6018993871487859,66.72820192158449
58.0,73.31592006529958,0.0001046633681162954,0.5983722445652313,67.71677239219137
59.0,72.86306796972235,0.00010971302919545378,0.5948271770150722,68.70471220479659
60.0,72.40711688728972,0.00011517411140671142,0.59126348389915,69.69196732518309
61.0,71.94791901529193,0.00012108035630176838,0.587680511568506,70.67847881407475
62.0,71.4853272910245,0.00012746800419905532,0.5840776574097944,71.66418233867242
63.0,71.01919544240482,0.0001343786447292599,0.5804543744554291,72.64900762260366
64.0,70.54945046068374,0.00021727833068523584,0.576810176480579,73.63287783690596
65.0,70.07602157054326,0.00036714795756885224,0.573144643304911,74.61570896395351
66.0,69.59873804453645,0.0005239055752664119,0.5694574269535209,75.59740904898482
67.0,69.11746616651634,0.0006881593964069928,0.5657482582430129,76.57787740075435
68.0,68.63207431207982,0.0008605691400172854,0.5620169539113732,77.55700371318032
69.0,68.14243314769604,0.0010418506621405097,0.5582634243048551,78.53466710567628
70.0,67.64841588003173,0.0012327810018539361,0.5544876820264445,79.51073503933695
71.0,67.14989849309606,0.0014342038941223705,0.5506898510471431,80.48506214783282
72.0,66.64676003645441,0.0016470352549143128,0.5468701762041999,81.45748900543515
73.0,66.13888294323245,0.0018722700923788536,0.5430290347680911,82.42784061315524
74.0,65.62615334330552,0.0021109886378102728,0.5391669469119528,83.39592498050165
75.0,65.10846144184225,0.002364363784079804,0.5352845884002753,84.36153140249877
76.0,64.58570192594318,0.0026336691509134015,0.5313828042706955,85.3244285635732
77.0,64.05777437753487,0.0029202870217888773,0.5274626223384042,86.28436260844
78.0,63.5245837356401,0.0032257168960854407,0.5235252678523905,87.24105501251387
79.0,62.98604081695394,0.0035515847864488162,0.5195721795288751,88.19420020983773
80.0,62.442062859952294,0.0038996534993978272,0.5156050269457044,89.14346296332387
81.0,61.892574085350375,0.004271832280900345,0.511625727149748,90.08847575050059
82.0,61.33750631779757,0.004670187162877646,0.5076364625612062,91.0288358878604
83.0,60.776799683421345,0.0050969520087613945,0.5036397002620975,91.96410236169775
84.0,60.21040332300971,0.0055545403363353694,0.49963821222869287,92.89379240714332
85.0,59.63827612932136,0.006045555664981317,0.4956350936864195,93.81737821505465
86.0,59.06038756267906,0.006572803231149141,0.4916337836384427,94.73428320076817
87.0,58.47671851949773,0.007139300595602295,0.4876380841518641,95.6438782886037
88.0,57.88726227214995,0.00774828877033524,0.4836521805780553,96.54547789263412
89.0,57.292025407751765,0.008403242227507534,0.4796806599957246,97.43833597607556
90.0,56.691028839173526,0.009107877487333011,0.4757285280436699,98.32164215788798
91.0,56.08430886646406,0.009866160654372756,0.47180122437601646,99.19451782857206
92.0,55.47191828471985,0.010682313171448039,0.4679046357208133,100.05601242152102
93.0,54.85392755407537,0.011560815222272586,0.46404510587289116,100.90509993788932
94.0,54.23042601255789,0.012506406949757694,0.4602294425898973,101.74067572695276
95.0,53.60152306676546,0.013524085607963367,0.45646491849006726,102.56155401053933
96.0,52.967349439072066,0.01461909850163143,0.4527592662911395,103.36646610777385
97.0,52.32805843784588,0.015796931155999443,0.44912066736566264,104.15405956071746
98.0,51.683827215528204,0.017063291811158867,0.4455577345736826,104.92289799461014
99.0,51.03485801760021,0.0184240875542459,0.44207948360679794,105.6714627782974
100.0,50.381379419860984,0.019885395189990773,0.438695296517074,106.39815586626517
101.0,49.723647497554744,0.0214534245575979,0.4354148741998995,107.10130446658452
102.0,49.06194696334319,0.023134473987881037,0.4322481776258006,107.7791676130166
103.0,48.39659197523936,0.024934879132699147,0.4292053574965068,108.42994484198233
104.0,47.72792717568036,0.026860951523805493,0.4262966714996564,109.05178712231319
105.0,47.056328434587485,0.028918910421008852,0.4235323900814587,109.64281000252365
106.0,46.38220305762073,0.03111480918864643,0.4209226911750954,110.20110900500427
107.0,45.70599043191928,0.033454451968736684,0.4184775450006337,110.72477718602075
108.0,45.02816164987404,0.03594330690222003,0.41620658670223293,111.2119248381671
109.0,44.34921968056436,0.03858641553907216,0.41411898920915596,111.66070041732716
110.0,43.669698621717785,0.04138829402684639,0.41222331705616777,112.06931405357041
111.0,42.99016280735869,0.04435284820407988,0.4105274018482872,112.43605946996452
112.0,42.31120432494273,0.04748330549952054,0.40903823142281776,112.75933341970416
113.0,41.63344304424762,0.05078203671601117,0.4077616935919242,113.03767474060629
114.0,40.95335348387481,0.055956996764049506,0.6139531066272977,39.25979064125656
115.0,40.27847433260551,0.09517727876384983,0.6788343050823328,27.096917126789908
116.0,39.675707917500404,0.14727681900372197,0.7145278457193419,21.717894208495235
117.0,39.16944762751977,0.20759140516149585,0.739017243595958,18.41692527616445
118.0,38.7758264040394,0.2750208665780743,0.7573671846302349,16.111346458853028
119.0,38.508599924252444,0.3492151398132627,0.7717738220492102,14.384432181387103
120.0,38.38037161594403,0.43009308080969777,0.7834052989397716,13.033075589769673
121.0,38.40295330769596,0.5176945734452515,0.7929639240059378,11.943437498436081
122.0,38.58744619792953,0.6121194220728151,0.8009082430145188,11.04547334682376
123.0,38.94419643197445,0.7134968613267663,0.8075560390364537,10.293100358185034
124.0,39.47986400180732,0.8234259401135533,0.8131376782138262,9.654440501470052
125.0,40.17889373619061,1.044587462322339,0.8178262750272136,9.106547902346287
126.0,41.23737000447163,1.4478573847065914,0.8217556145332756,8.632389355311894
127.0,42.90244812030505,2.048307727898105,0.8250315749283947,8.218989960415191
128.0,45.3333862312848,2.8531604006063,0.8277396211466787,7.856253497853193
129.0,48.55448661676505,3.866777927174026,0.829949894494023,7.536183721453523
130.0,52.439135765733795,5.091843195486573,0.8317208002609392,7.25235002898692
131.0,56.72369247506663,6.528541074748181,0.8331015787099442,6.999513452763619
132.0,60.935970660370515,8.287418001394517,0.8341341945420166,6.773358233583603
133.0,64.25261648665321,10.738738713561334,0.8348547517460922,6.570294919285561
134.0,65.71575592172253,14.178736877454627,0.8352945759087851,6.387312876198113
135.0,64.5139653747361,18.692920805515946,0.835481051367019,6.221868310709705
136.0,60.43714201545149,24.13688495303394,0.8354382782050507,6.071798018550834
137.0,54.038913039995116,30.17341392078076,0.8351875953701358,5.935251906007427
138.0,46.30714328627899,36.3514798588042,0.8347480003609131,5.810639796475539
139.0,38.31226177869033,42.114664343590825,0.83413649133161,5.6965888291596185
140.0,31.176808004120666,46.69187493217427,0.8333683474194363,5.5919091012748385
141.0,25.756848356341052,49.42926276762479,0.8324573612167955,5.495565676705545
142.0,22.197358966304062,50.28792697954078,0.8314160328478915,5.406655607631707
143.0,20.044348207271423,49.77643749426745,0.8302557334074407,5.324388888750151
144.0,18.726076459882297,48.49539297409528,0.8289868434705557,5.248072608729112
145.0,17.83726459768256,46.866205831444056,0.8276188712584158,5.1770976534204936
146.0,17.1583362294712,45.118313080474714,0.8261605541303895,5.110927483683564
147.0,16.58922408305457,43.358667127960736,0.824619946052147,5.0490886283901215
148.0,16.088248797383915,41.634499718671975,0.8230044939060054,4.991162541087589
149.0,15.638306482476485,39.967826350869764,0.8213211027578153,4.936778745620434
150.0,15.232333304250814,38.37017654586376,0.8195761955489639,4.885608695090495
151.0,14.867463453650881,36.848403983780116,0.8177757608054528,4.83736090139171
152.0,14.542305676302306,35.40726658451999,0.8159254021421941,4.791776098372899
153.0,14.255597168340683,34.05059581459048,0.8140303730078072,4.748623803696331
154.0,14.00539521513155,32.78172882338573,0.8120956086245152,4.707699074549047
155.0,13.788722899602666,31.60360974313106,0.8101257716736028,4.668818466764716
156.0,13.601324864906703,30.518698147450102,0.808125264416055,4.631818663536161
157.0,13.437731728008037,29.5288291465104,0.8060982599149155,4.596553747488082
158.0,13.29120890325934,28.63495290392515,0.8040487223161292,4.562893262454138
159.0,13.154175513553895,27.83690608934691,0.8019804268502465,4.5307204845521305
160.0,13.018606418313375,27.13315548604487,0.7998969768894422,4.499930885008097
161.0,12.876604762847313,26.520594013329838,0.7978018193113484,4.470430778085936
162.0,12.721046314500528,25.994415842168557,0.7956982581689587,4.442136126789017
163.0,12.54620893175986,25.548110079679827,0.793589466842761,4.41497148672076
164.0,12.34829574327295,25.173596721069654,0.791478498830385,4.388869071151499
165.0,12.125764051376427,24.86151598989858,0.7893682973112286,4.3637679225967645
166.0,11.879401910326592,24.601657228622162,0.7872617036082559,4.339613178136332
167.0,11.612137011354358,24.383489609129263,0.7851614646559729,4.316355417348831
168.0,11.328610767375734,24.196736302414692,0.7830702395724771,4.293950083094954
169.0,11.034591945407849,24.031923710272743,0.7809906054114901,4.272356967294984
170.0,10.736326377904419,23.880839357590943,0.7789250621959827,4.251539753195221
171.0,10.439918441522975,23.736845890886215,0.7768760373074193,4.231465607092672
172.0,10.150825394168253,23.595026926841495,0.7748458892662632,4.212104815703384
173.0,9.87350876443518,23.452166556039263,0.7728369109768729,4.19343046316946
174.0,9.611255746260978,23.30658725280849,0.7708513325629363,4.175418140612085
175.0,9.36614852992651,23.157892675529816,0.7688913236031346,4.158045693444274
176.0,9.139153031241538,23.006654507105633,0.7669589949063632,4.141292997006302
177.0,8.930297717352381,22.85408071976545,0.765056401585255,4.125141707756118
178.0,8.7388671955255,22.701743385431037,0.7631855393671582,4.109575228012007
179.0,8.563655413317456,22.55128804666272,0.7613483531939084,4.094578317277163
180.0,8.403135575525974,22.40427258512589,0.7595467327408749,4.080137106083604
181.0,8.255669904095859,22.262023496398175,0.7577825143318242,4.066238923671761
182.0,8.119649142493808,22.125552824506677,0.756057480529491,4.052872194667801
183.0,7.9935897373490485,21.99553865717773,0.7543733613025291,4.0400263152811196
184.0,7.876206166095177,21.87233748279008,0.7527318341229874,4.027691562840922
185.0,7.766453978389236,21.756020039316265,0.751134523665389,4.01585901795716
186.0,7.663530968523879,21.646425504956408,0.7495830011349155,4.004520496018615
187.0,7.566865505098565,21.543227506754555,0.7480787825494537,3.9936684926408526
188.0,7.4760094357403375,21.446001969153418,0.7466233347796382,3.9832960629115175
189.0,7.390815120277303,21.354288946204765,0.7452180627659083,3.9733968779664233
190.0,7.311000868064375,21.267621311388453,0.7438643277492789,3.963965030399032
191.0,7.236622522895007,21.185610047100635,0.7425634156975598,3.9549952065980443
192.0,7.167531366694588,21.10788608441541,0.7413165858226438,3.946482325629995
193.0,7.103625849550664,21.03420208911089,0.740125008330768,3.9384219042509265
194.0,7.044827190263188,20.96435203668363,0.7389898282451589,3.9308096250333047
195.0,6.99082162706201,20.898213606301123,0.7379121091225196,3.9236416530501255
196.0,6.9416087674942935,20.835743662958855,0.7368928506189973,3.916914442933311
197.0,6.896932086495451,20.776905377797757,0.7359330232090873,3.9106246194607612
198.0,6.856434302327656,20.721701246071937,0.7350335158768143,3.9047691883694373
199.0,6.819805281388498,20.67014804910581,0.7341951631909944,3.8993453721802154
200.0,6.786722427775318,20.622261725099513,0.733418744263241,3.8943506136986006
201.0,6.756926872275354,20.57805346161385,0.732704960537625,3.8897826269971736
202.0,6.730117756838626,20.537526247025426,0.7320544772877988,3.885639259385989
203.0,6.706012470502683,20.50066371339998,0.7314678684355186,3.8819186506029935
204.0,6.6844688483405035,20.46744934481642,0.7309456691493136,3.87861904540437
205.0,6.665047210344152,20.437836480948764,0.7304883558953698,3.875738901543945
206.0,6.647742127414718,20.411792150298975,0.7300962927875352,3.873276935488582
207.0,6.632535958933091,20.389281541231206,0.7297698369963573,3.871231885313663
208.0,6.618975651608993,20.370240309623437,0.7295092821420601,3.8696027147257555
209.0,6.607054741056329,20.354634246416794,0.7293147988921894,3.8683886412189405
210.0,6.596821847588305,20.34243306046471,0.7291865481661967,3.867588899759169
211.0,6.587893692517988,20.333584108991175,0.7291246388476537,3.8672029121717952
212.0,6.580256477993732,20.328068175725203,0.72912904957862,3.867230363526186
213.0,6.5739998090015925,20.325873737454312,0.7291997435585033,3.8676709616731757
214.0,6.568840511016914,20.326971307174936,0.7293366361006578,3.868524581194237
215.0,6.564735638047345,20.33135561781841,0.7295395260296702,3.869791342262389
216.0,6.5616829346259085,20.339024999934026,0.729808194900404,3.8714714011253473
217.0,6.559460611443604,20.34996786743272,0.7301423450400715,3.873565142400841
218.0,6.558145680697511,20.36419485276669,0.7305415963327752,3.876073113479816
219.0,6.557623487685795,20.38170533278802,0.7310055521900756,3.878995931973743
220.0,6.557796003228403,20.402503016142866,0.7315337066450792,3.8823345062648404
221.0,6.558752532729719,20.426604258627314,0.7321255138172063,3.886089825331791
222.0,6.560303692614705,20.454008361109477,0.7327803833880331,3.890263049044634
223.0,6.562494819327001,20.484732424685358,0.7334976214750387,3.8948556152196265
224.0,6.565349593293136,20.518792192923026,0.7342765188632379,3.8998690113580126
225.0,6.5687127610947,20.55619369353611,0.7351162845244249,3.905305031362754
226.0,6.57271287095558,20.59696441014648,0.7360160583322746,3.911165670849692
227.0,6.57725927649098,20.64111689765655,0.7369749610650634,3.9174530301379944
228.0,6.582329257145221,20.688672633980822,0.7379920104069668,3.9241696267047423
229.0,6.588042621983254,20.739664309842823,0.7390661940066646,3.931318083821971
230.0,6.594249905175469,20.79410673888267,0.7401964508296285,3.938901301705054
231.0,6.601052286013089,20.852037517119154,0.7413816309404807,3.946922603240587
232.0,6.608489760307032,20.913489785897436,0.7426205713149515,3.9553853887853827
233.0,6.6164576119984435,20.978489179563763,0.7439120285287042,3.964293585122337
234.0,6.625121558610166,21.047085132250846,0.7452547051068654,3.973651437871154
235.0,6.634399895819896,21.119307674669116,0.7466472811116719,3.9834633916437285
236.0,6.644325100665203,21.195200681483687,0.7480883441958686,3.9937346381425325
237.0,6.655040276626818,21.274818098567533,0.7495764592890923,4.004470549790256
238.0,6.66644831289569,21.35819561013525,0.7511101383253898,4.015677066147182
239.0,6.6786692951442275,21.445390291643584,0.7526878305459554,4.027360772336293
240.0,6.691667218347625,21.53644711622325,0.7543079563890688,4.039528625086596
241.0,6.705531266905669,21.63142425818381,0.755968863548951,4.052188542124791
242.0,6.720301073889416,21.73037630131258,0.7576688769514746,4.065348770991606
243.0,6.735994833726544,21.83335953872208,0.7594062502887263,4.079018737362892
244.0,6.752729882855067,21.94044004151997,0.7611792073345623,4.093208374442138
245.0,6.770474368265067,22.05167265011706,0.7629859135276283,4.107928797396743
246.0,6.789386687859388,22.167131513624454,0.7648244880171726,4.12319209335574
