Time,J,A,S,tau
0.0,100.0,100.0,0.25577574140021475,25.0
1.0,96.03005244456925,98.03866576030951,0.2568278527903189,25.181033173279587
2.0,92.19590713150629,96.11158635967837,0.25787491461436407,25.359333367957493
3.0,88.49632579120544,94.21988308420282,0.25891498844462185,25.534594528394443
4.0,84.92702492826591,92.36291402930685,0.25994749994184635,25.706765487257364
5.0,81.48392942208007,90.54005538808407,0.26097185610528495,25.875795959492866
6.0,78.16298690815374,88.75068841638524,0.2619874517791684,26.041636244342296
7.0,74.96040117225914,86.99421538471174,0.2629936635388868,26.204237533043152
8.0,71.87235578240622,85.27004128531917,0.2639898553174863,26.3635516523445
9.0,68.89530079433226,83.5775923012798,0.2649753748977137,26.519531251371014
10.0,66.02566090529275,81.91629750005546,0.26594955633453016,26.672129708604423
11.0,63.2600931734728,80.28560448279073,0.2669117201182818,26.821301132167946
12.0,60.59526584387638,78.68496644893204,0.26786117208481713,26.96700046243948
13.0,58.02800983446962,77.1138503019293,0.2687972069525127,27.10918328363515
14.0,55.55523563403328,75.57173308685779,0.2697191045767627,27.24780609418394
15.0,53.173925140713166,74.05809954030123,0.2706261355071825,27.3828259894427
16.0,50.881217007185846,72.57244936111276,0.27151755634504937,27.514201009425136
17.0,48.674246512907025,71.1142852176077,0.2723926153379816,27.64188980858973
18.0,46.550347194237425,69.68312700695907,0.2732505488065148,27.7658519514526
19.0,44.50681821764105,68.27849584653876,0.2740905851284368,27.886047694778213
20.0,42.54115787435094,66.8999295783194,0.27491194333338265,28.00243812702919
21.0,40.65083849886282,65.54696809230737,0.2757138349659155,28.1149851393696
22.0,38.83349813130169,64.21916524753121,0.27649546483905335,28.223651362175644
23.0,37.08679004519419,62.916079816817735,0.27725603120679354,28.32840034139485
24.0,35.408471684411346,61.6372800356884,0.2779947279346584,28.429196286889486
25.0,33.79638080824562,60.38234327893511,0.2787107439069802,28.52600440696227
26.0,32.248387830711444,59.15085139938459,0.2794032656199494,28.618790550924324
27.0,30.762504570551776,57.94239907848322,0.2800714767439598,28.707521586554982
28.0,29.336726569568405,56.75658215626156,0.28071456044011767,28.792165072451148
29.0,27.969231916547262,55.593012367612054,0.2811463183050362,28.843539009964754
30.0,26.658166168148583,54.45130584069514,0.28043680012212946,28.716295429494973
31.0,25.40177905167756,53.331078695655215,0.27971505684524095,28.588609237697284
32.0,24.198388991122517,52.231958128621166,0.2789813393778252,28.46054041872882
33.0,23.046429390659444,51.153581037089566,0.2782359129608991,28.33214771903612
34.0,21.94435698504761,50.0955876261414,0.27747905564808206,28.203488724899895
35.0,20.890728370513134,49.05762628316043,0.27671105762332415,28.074619879325116
36.0,19.8841813115414,48.03935230588567,0.2759322224440172,27.945596298745585
37.0,18.923400551730303,47.04042529489276,0.27514286433907137,27.81647198476025
38.0,18.00719130012445,46.0605138493009,0.2743433089969651,27.687299697377643
39.0,17.13441569314366,45.09929126997998,0.27353389316428195,27.558130920227164
40.0,16.30400412325823,44.15643611787549,0.27271496260820094,27.429016046203774
41.0,15.515034087816126,43.231636966287375,0.2718868736898642,27.300004126434565
42.0,14.766598543364019,42.3245841709275,0.27104999077362707,27.171143107162568
43.0,14.057943049657464,41.43497805126377,0.2702046865954838,27.04247975549935
44.0,13.3883656222651,40.562522872454274,0.2693513420957488,26.914059549419328
45.0,12.75728518893112,39.706930760385255,0.2684903441163525,26.78592701643556
46.0,12.164216335426943,38.86792031921988,0.26762208736093207,26.65812525579369
47.0,11.608763051453286,38.04521623017232,0.26674697062678915,26.53069659486253
48.0,11.090632775311853,37.23855052895548,0.26586539963014183,26.403681836621434
49.0,10.609752528960964,36.447667652954635,0.2649777836224321,26.277121027836365
50.0,10.165953788940522,35.67231054726808,0.2640845358980649,26.151052988610665
51.0,9.759369566806626,34.91223884242455,0.2631860735749114,26.02551551099032
52.0,9.390080244763103,34.167213982420655,0.2622828161791429,25.900545342859825
53.0,9.05840365672018,33.43701166691179,0.26137518581492103,25.776178250409448
54.0,8.764668897862743,32.72141422736596,0.2604636061580909,25.652448906129525
55.0,8.50940804503437,32.020217416714864,0.2595485022188614,25.529391125675787
56.0,8.293175991142931,31.333226270149485,0.2586302995665532,25.40703765756789
57.0,8.116627590635785,30.660257893979797,0.2577094239434271,25.285420370492925
58.0,7.980555389954182,30.001144211281865,0.25678630091034566,25.164570195925915
59.0,7.885807284229909,29.35573126510563,0.2558613551343445,25.04451712132553
60.0,7.833280028957248,28.72387947743125,0.2549350101009695,24.92529029682339
61.0,7.823998245677573,28.105468308604888,0.2540076877356558,24.80691797810006
62.0,7.858967416079781,27.50039402186463,0.2530798077716264,24.68942756261762
63.0,7.939236908982206,26.908573073944957,0.2521517875259049,24.57284561761831
64.0,8.065865316386152,26.32994319823373,0.25122404151798117,24.457197896592387
65.0,8.239915278073097,25.76446565297526,0.25029698110024257,24.342509346006256
66.0,8.462405693347556,25.212126695712435,0.2493710140481179,24.228804115061568
67.0,8.734282496992181,24.67293892867453,0.24844654430363491,24.11610558533004
68.0,9.056397547034232,24.14694315322691,0.24752397170598786,24.004436386789724
69.0,9.429487621317586,23.634210411631106,0.24660369171324756,23.893818409515415
70.0,9.854128904468585,23.13484396258793,0.24568609506980238,23.7842728098639
71.0,10.33069823507201,22.648981599275324,0.24477156747872494,23.675820015914606
72.0,10.859277225815509,22.17679344723755,0.24386048968629964,23.568479789552633
73.0,11.439821183346075,21.718489395540193,0.24295323715150013,23.462271196581167
74.0,12.071673740577133,21.27431518203794,0.24205017916353097,23.35721258802682
75.0,12.754433946201383,20.844563165586678,0.24115168009720547,23.253321699755308
76.0,13.486639269893615,20.42955393547937,0.240258097971284,23.150615622572918
77.0,14.266822934244464,20.029655720793038,0.2393697850158963,23.049110808523135
78.0,15.092776832755334,19.645273465428133,0.23848708693311385,22.94882307177378
79.0,15.961864825144659,19.27685113272301,0.23761034336944759,22.849767638476408
80.0,16.871029264729174,18.924872963354147,0.23673988759245024,22.75195913545095
81.0,17.816551425563496,18.589858165295393,0.23587604624072017,22.655411599792842
82.0,18.794184696039437,18.27236003907806,0.23501913941911148,22.560138500436356
83.0,19.799118119484206,17.972962213869206,0.23416948060273238,22.46615274899529
84.0,20.825982367271553,17.692274500918042,0.23332737657931518,22.37346671156689
85.0,21.868874028314636,17.430928019033736,0.23249312739648212,22.28209221985077
86.0,22.92138610105406,17.18956919139627,0.23166702627610308,22.19204057936447
87.0,23.97662148478385,16.968851921626968,0.23084935961188882,22.103322584200217
88.0,25.027265844214316,16.769429621873975,0.23004040698059844,22.015948530313963
89.0,26.0656545386821,16.591946024469777,0.22924044113333722,21.929928227010876
90.0,27.08385075439049,16.437024942963895,0.22844972799426294,21.845271008354302
91.0,28.073752946029327,16.305258934605895,0.22766852664102696,21.76198574253016
92.0,29.027166808627687,16.197196022254015,0.22689708928844216,21.680080842118794
93.0,29.935915512158203,16.113326445319366,0.22613566135874705,21.599564278792133
94.0,30.791964753541066,16.054068771381946,0.22538448151605414,21.520443594774456
95.0,31.587542577577985,16.019755263994597,0.2246437816990723,21.44272591393538
96.0,32.31526804001659,16.01061668056443,0.22391378715444044,21.366417952449634
97.0,32.968287645092296,16.026765746082518,0.22319471643366146,21.29152602705079
98.0,33.5403661425291,16.068181984773243,0.22248678146326223,21.21805606801439
99.0,34.02601993264492,16.13469772419985,0.22179018762861216,21.146013631520695
100.0,34.420626632114136,16.225984747426082,0.22110513383517874,21.075403910563363
101.0,34.72050325157188,16.341541903791082,0.22043181257169392,21.006231746143563
102.0,34.92306346261311,16.48068592913773,0.2197704099959907,20.938501637198964
103.0,35.026876049582405,16.64252879774776,0.21912110558699976,20.872217731594723
104.0,35.03155230843988,16.826004536707206,0.21848407321594354,20.807383888114135
105.0,34.938049714740096,17.029830008585286,0.21785948006425124,20.744003624414695
106.0,34.74841287618022,17.252525766229276,0.21724748734163798,20.682080165907166
107.0,34.46588133161301,17.492426336281163,0.21664825051181302,20.621616455740675
108.0,34.094827204318456,17.747668985453558,0.21606191877750064,20.56261514116384
109.0,33.64066042501568,18.016220618372017,0.21548863557854528,20.505078601228586
110.0,33.109724471226194,18.295893074315597,0.21492853867884557,20.44900895584324
111.0,32.50919753370401,18.584358693994183,0.2143817600750083,20.394408068003177
112.0,31.84693673370405,18.87917614255873,0.21384842614837696,20.341277555479746
113.0,31.13133297849107,19.177817451025394,0.21332865774347848,20.28961879995105
114.0,30.371151923451954,19.477698014957838,0.21282257026536924,20.239432956243878
115.0,29.57537473395286,19.776208392294933,0.21233027376201913,20.190720960764057
116.0,28.753042420072074,20.07074775061555,0.21185187300694303,20.14348353976582
117.0,27.913107518894265,20.35875841289214,0.211387467581594,20.09772121741999
118.0,27.064293438293117,20.63776097020917,0.21093715194954227,20.053434323341246
119.0,26.214969541968898,20.905389888757664,0.21050101552114805,20.01062299970384
120.0,25.373052630748703,21.159427250459924,0.21007914275988718,19.96928720980439
121.0,24.545914803578317,21.397834281359003,0.2096716132639858,19.929426745246236
122.0,23.740313836435856,21.618780278977184,0.20927850184523838,19.891041232920045
123.0,22.96234177300847,21.820668128269975,0.2088998786068669,19.854130141768945
124.0,22.217391425246927,22.002155008154126,0.2085358090197209,19.818692789310234
125.0,21.51013305989875,22.162169755809494,0.20818635397952895,19.784728347292774
126.0,20.844521318633976,22.299922907990933,0.2078515698874629,19.752235848240026
127.0,20.223813359514622,22.414909362269366,0.20753150875354814,19.72121419231896
128.0,19.650581104591584,22.50690824938302,0.20722621821613654,19.691662151259386
129.0,19.126768622689333,22.575970477146257,0.2069357417056209,19.663578376937945
130.0,18.653707324370338,22.62240301991717,0.2066601184891996,19.636961404534667
131.0,18.23213982813398,22.646769836465868,0.20639938338250363,19.611809648683575
132.0,17.862436790962484,22.64982753422547,0.20615356785474614,19.588121439838094
133.0,17.544280319127108,22.6325572652109,0.20592269805322524,19.56589496277346
134.0,17.277193123819398,22.59606380982602,0.20570679762185273,19.545128348752016
135.0,17.060237031663984,22.541613155008214,0.20550588532488065,19.525819605472545
136.0,16.892254502069324,22.470564433261966,0.20531997664941395,19.507966668528113
137.0,16.77177652730803,22.384352981108375,0.20514908297382803,19.4915673716742
138.0,16.69716760357375,22.28446636251384,0.20499321206109475,19.476619473127556
139.0,16.666609359571698,22.172416406544368,0.20485236812662705,19.463120652158388
140.0,16.678133798992135,22.049720098492536,0.20472655157015712,19.45106850379167
141.0,16.72966006887591,21.9178801928552,0.20461575919244135,19.440460549575928
142.0,16.81900654360872,21.778372058015453,0.20451998444227848,19.431294242683027
143.0,16.943917526561727,21.632629600815072,0.2044392171174852,19.423566960185475
144.0,17.10206721741122,21.482033988453438,0.20437344350138212,19.41727601130121
145.0,17.291064541789527,21.32791055728705,0.20432264664625077,19.41241864310417
146.0,17.50848615884733,21.171520727702852,0.2042868061042099,19.408992032849707
147.0,17.751860597178066,21.014055550045292,0.20426589797836858,19.40699329356849
148.0,18.018666249535137,20.856639135723928,0.20425989523943539,19.40641948051161
149.0,18.306373222863733,20.70032514872642,0.20426876749253814,19.407267583661124
150.0,18.612421383506742,20.54609248423344,0.20429248094172164,19.409534530475113
151.0,18.934210117911334,20.394851677238417,0.2043309987354226,19.413217193207714
152.0,19.2691494152487,20.24744424616288,0.20438428077451865,19.41831238177591
153.0,19.614645129974598,20.10463867338079,0.20445228359123255,19.424816843436364
154.0,19.96807656243522,19.967137803494012,0.20453496071835922,19.432727271130787
155.0,20.326856078870602,19.835579409247302,0.20463226253986097,19.442040296788154
156.0,20.68842951825335,19.71053239378356,0.20474413609437597,19.452752487978607
157.0,21.05024048869113,19.592502942243275,0.2048705254557078,19.464860357170522
158.0,21.409795192649558,19.481936480782633,0.2050113716257576,19.478360355517747
159.0,21.764679995092237,19.379213604627992,0.20516661228289365,19.493248866930113
160.0,22.112514581528405,19.28465494936616,0.2053361821511963,19.50952221767133
161.0,22.451016724612714,19.19852398694095,0.2055200129406353,19.52717667092755
162.0,22.77803437650113,19.121023084127934,0.20571803305830233,19.546208418697937
163.0,23.091492476932007,19.05229716284864,0.20593016794627095,19.566613591134793
164.0,23.389451206945502,18.992437262500587,0.2061563400727347,19.588388252205352
165.0,23.670141931871935,18.941477343015453,0.20639646865212533,19.611528390796334
166.0,23.93192517894932,18.899395713251188,0.20665046983176147,19.636029926278344
167.0,24.173324098367956,18.866123190273452,0.20691825696584137,19.66188871123911
168.0,24.39309906782369,18.84153294667822,0.20719973980702974,19.689100507361395
169.0,24.590101455477445,18.82545394634679,0.20749482565594504,19.717661019976656
170.0,24.763501345584114,18.81766422193836,0.2078034181141928,19.74756585129565
171.0,24.912531199928672,18.81789770903805,0.20812541833327602,19.778810547804632
172.0,25.036796643151252,18.825842846481116,0.20846072357449297,19.81139053771831
173.0,25.13590340885618,18.841153244942472,0.20880922930336854,19.84530121408826
174.0,25.209905852566173,18.8634299524615,0.20917082582803423,19.880537804386798
175.0,25.258898595996584,18.892260257680356,0.20954540257613663,19.91709551630496
176.0,25.283196253074504,18.927179514609065,0.20993284442432422,19.954969426210813
177.0,25.28338895830603,18.967704063332814,0.21033303319569555,19.994154497452435
178.0,25.26013586167103,19.01332672405564,0.2107458486698909,20.034645644091864
179.0,25.214351203530082,19.063512958979963,0.21117116617878695,20.076437622842985
180.0,25.147063976457712,19.11771642255608,0.21160885910800098,20.119525131327492
181.0,25.05948682072779,19.175373518546927,0.21205879648194165,20.163902707063713
182.0,24.952940147079342,19.235914944626696,0.21252084541825045,20.209564825943808
183.0,24.82887366941224,19.29876483594759,0.21299486859468483,20.2565057942412
184.0,24.688825961054665,19.363347555201404,0.21348072667336956,20.304719845852013
185.0,24.534422420793245,19.429091594310634,0.21397827631953265,20.35420105836113
186.0,24.367363682362665,19.495433193032053,0.2144873715406719,20.40494340632355
187.0,24.189371366791065,19.56182059883902,0.2150078628448744,20.456940718043104
188.0,24.002226265019416,19.627719408518303,0.21553959761215302,20.510186695215527
189.0,23.807697563378053,19.692612472692662,0.21608242022140187,20.564674908621715
190.0,23.607564552866485,19.756009950425714,0.2166361714362431,20.62039877256216
191.0,23.403597843733568,19.817444014886984,0.21720068935975081,20.67735158291769
192.0,23.19751026852126,19.876480852001173,0.21777580833118598,20.73552646101393
193.0,22.991013915013994,19.932715882420876,0.21836135992413114,20.79491640236833
194.0,22.7857230455824,19.985779531097812,0.21895717227097317,20.85551423359425
195.0,22.583230538353146,20.03534081874075,0.21956307028235805,20.917312627629123
196.0,22.38503315770553,20.081101957085156,0.2201788759277766,20.98030410713346
197.0,22.1925588272881,20.122810297251064,0.2208044075230297,21.04448100925858
198.0,22.007170018006196,20.1602463100564,0.22143948073189146,21.10983553317252
199.0,21.830109728158963,20.193236153458518,0.22208390751038057,21.1763596767777
200.0,21.662577524327375,20.22164195518334,0.2227374970098882,21.244045288991355
201.0,21.50564056647435,20.245366440816504,0.22340005505372212,21.312884027551647
202.0,21.360311796416333,20.26435268376396,0.22407138421689093,21.38286736934215
203.0,21.22749926289683,20.27857671976377,0.2247512842818145,21.453986625011968
204.0,21.10801935492738,20.288057917993516,0.22543955127998747,21.52623288166064
205.0,21.002617923831238,20.292840956202927,0.2261359789539357,21.59959708669314
206.0,20.911936350721152,20.293013409259462,0.22684035697097474,21.674069931075767
207.0,20.8365559505074,20.2886823301968,0.2275524730384517,21.749641980697202
208.0,20.77696872053607,20.27999440797324,0.2282721106012262,21.82630352323176
209.0,20.733587485221875,20.267111835348228,0.22899905129304304,21.904044717007686
210.0,20.706782993496784,20.25022848036173,0.22973307275907143,21.9828554607561
211.0,20.69680515683927,20.22955658960615,0.2304739500415346,22.06272544207322
212.0,20.703911567352588,20.205322817485754,0.23122145602946642,22.143644227559864
213.0,20.728233936132597,20.177780859473458,0.23197535874626027,22.225600990837652
214.0,20.769868844763145,20.14718806289803,0.2327354254487893,22.308584834840687
215.0,20.82888226647785,20.113816869913407,0.23350142001006086,22.3925846439758
216.0,20.905255195722937,20.07795377306306,0.2342731021512775,22.47758891755216
217.0,20.99894992914823,20.039886502050027,0.23505023109202802,22.56358611027424
218.0,21.10985281294993,19.999911988423502,0.23583256206290407,22.65056437916348
219.0,21.237826883171746,19.95833117934904,0.23661984714621784,22.738511536301626
220.0,21.38270790158463,19.915445556845487,0.23741183784607556,22.82741535305855
221.0,21.544227400012197,19.87155840599243,0.2382082813484569,22.917263224101685
222.0,21.722154566048072,19.826971439355802,0.23900892269636992,23.008042253553256
223.0,21.9161967649891,19.781985898850944,0.2398135060821999,23.099739489915745
224.0,22.125958226371132,19.736897496393492,0.24062177141786728,23.192341533686978
225.0,22.351127642538682,19.691998460161148,0.24143345735657923,23.285834756888644
226.0,22.591274183284103,19.64757859001155,0.24224830128996666,23.38020544010491
227.0,22.84590538056457,19.603916521728685,0.2430660367909107,23.475439360653194
228.0,23.114632022244834,19.56128765217322,0.24388639682627727,23.57152213014207
229.0,23.39687719658467,19.5199617391126,0.24470911266084389,23.66843920865478
230.0,23.69207955062504,19.480194501090608,0.2455339125864045,23.766175524414585
231.0,23.99976498743552,19.442239367891414,0.2463605246482607,23.864715893486203
232.0,24.31921849655138,19.406340027517345,0.24718867490396645,23.964044897699743
233.0,24.649824959331543,19.37272587477738,0.248018087472325,24.064146589090182
234.0,24.991022172269663,19.341624536551365,0.24884848635413645,24.165004940055592
235.0,25.342001232481483,19.313249705240267,0.24967959358928365,24.266603577026967
236.0,25.702097824669895,19.287804075074504,0.2505111303999145,24.368925693039234
237.0,26.070560541635494,19.265485348105617,0.25134281746924697,24.471954363735726
238.0,26.446573548470187,19.2464742244642,0.2521743742824917,24.57567213899212
239.0,26.82943765762618,19.2309473644196,0.2530055203788258,24.680061375871997
240.0,27.218237238232483,19.219067457401913,0.25383597434618954,24.785104077389544
241.0,27.612224971539174,19.210986256852962,0.25466545502139665,24.890781795237768
242.0,28.01053118227155,19.20684918424978,0.2554936808901126,24.997075934775268
243.0,28.412265605275582,19.206784058597975,0.2563203706585432,25.10396730863857
244.0,28.81664795840152,19.21091485655265,0.25714524349659784,25.21143653721848
245.0,29.22269217872667,19.219349834868677,0.25796801860647495,25.31946381459301
246.0,29.629611014433515,19.23218722330228,0.2587884165802799,25.428028857533274
