Time,J,A,S,tau
0.0,100.0,100.0,0.8817635580693128,2.092050209205021
1.0,92.6033713357966,92.19663926247308,0.8674717712617708,2.0857585874059024
2.0,85.77939773187443,85.0339736698434,0.8537125636408416,2.0789352630569633
3.0,79.48490237078401,78.46021803455837,0.8532877940531028,2.0773932123451915
4.0,73.67725972334824,72.42489090395303,0.8539518124660627,2.076350238575602
5.0,68.31750357367946,66.88204959719333,0.8546198919050961,2.075348110583052
6.0,63.37001923609849,61.789798138558105,0.8552916190874051,2.0743893108269797
7.0,58.802433736651196,57.10999438500134,0.8559665871363665,2.0734762616430387
8.0,54.58554400080639,52.80796306393859,0.8566443959383622,2.0726113222267077
9.0,50.69339259182481,48.852362566198735,0.857324652524167,2.0717967853096058
10.0,47.103412014384396,45.21516773060487,0.8580069713662668,2.0710348745396607
11.0,43.79651848999143,41.87172980720028,0.8586909746396021,2.070327742151551
12.0,40.75720234352495,38.80106428676195,0.8593762925200336,2.069677466205962
13.0,37.973359477328806,35.98622527160244,0.8600625634102256,2.0690860484447535
14.0,35.43574566508305,33.41473484863485,0.8607494341400515,2.068555412322076
15.0,33.136895340358514,31.078943453933398,0.8614365601409849,2.0680874012159998
16.0,31.069375229796936,28.97616266390385,0.8621236056959037,2.0676837758725086
17.0,29.22351702930084,27.108147834449937,0.8628102438754391,2.067346214724743
18.0,27.584281626575287,25.479807032095565,0.863496156819746,2.0670763109917583
19.0,26.129292054938354,24.096940679976427,0.8641810357759204,2.0668755719234353
20.0,24.82816769133745,22.962968427187505,0.8648645811013804,2.0667454183810765
21.0,23.644510169144883,22.075030867904047,0.8655465024013534,2.066687183092421
22.0,22.54096830203376,21.420654953128963,0.8662265184692611,2.066702110734926
23.0,21.48555862490819,20.976013269586556,0.8669043573443604,2.0667913568761622
24.0,20.457117292318085,20.707123770014363,0.867579756235304,2.0669559881616544
25.0,19.447418103599155,20.573791348768044,0.868252461531551,2.067196981625073
26.0,18.459191586010096,20.535310335708004,0.8689222287210029,2.0675152248793416
27.0,17.501487507096392,20.555837387006704,0.8695888223187129,2.0679115161789987
28.0,16.584658912518226,20.607836916272817,0.8702520157913668,2.0683865644999693
29.0,15.716833640335498,20.672942921344806,0.8709115914547302,2.0689409898683326
30.0,14.902484219914392,20.740749171873656,0.8715673403505935,2.069575323875915
31.0,14.142577699288996,20.806603086763857,0.8722190620985656,2.070290010451531
32.0,13.435520762995488,20.869362377700835,0.8728665648126431,2.0710854059392347
33.0,12.778257665019986,20.92959595444904,0.873509665048415,2.0719617788249627
34.0,12.167135696467511,20.988436317204602,0.8741481873291909,2.0729193138964863
35.0,11.598441303458557,21.04699747860461,0.8747819642738229,2.0739581100796647
36.0,11.068698277902678,21.106124793917292,0.8754108363182135,2.0750781825326667
37.0,10.574771837764317,21.166362100062823,0.8760346515496661,2.0762794635623694
38.0,10.11387503320906,21.22800717551761,0.8766532655238892,2.077561803727268
39.0,9.683529190757206,21.291191113000867,0.8772665410775966,2.0789249729943178
40.0,9.281512356179844,21.355948553255274,0.8778743481375545,2.0803686619430506
41.0,8.905812061787243,21.42226792237392,0.8784765635260046,2.0818924830206496
42.0,8.554586196887081,21.490121911816537,0.879073070759718,2.0834959718757227
43.0,8.22614327964569,21.559483431552128,0.8796637598671136,2.085178588528552
44.0,7.918916745357656,21.630331360143664,0.8802485271909722,2.0869397186724967
45.0,7.631453306115456,21.702651366045384,0.8808272751796329,2.088778675157563
46.0,7.362403965030895,21.77643444957097,0.8813999121916295,2.0906946993377646
47.0,7.110515659100982,21.851674864082426,0.8819663522929647,2.092686962528677
48.0,6.87462524705908,21.92836829426746,0.8825265150974865,2.0947545669469148
49.0,6.653653310157104,22.00651056755308,0.8830803255134421,2.0968965478752137
50.0,6.446599284352892,22.086096832327712,0.8836277136130792,2.099111874294631
51.0,6.252534371177748,22.167120925628254,0.8841686144610109,2.1013994500110265
52.0,6.070594047438717,22.249575062255442,0.8847029678780328,2.1037581156715226
53.0,5.899976096856103,22.333449902940632,0.8852307183104259,2.1061866494619235
54.0,5.739934671154792,22.418734548955328,0.8857518145663139,2.108683769654899
55.0,5.589780740115476,22.50541679523324,0.8862662097720378,2.111248134200203
56.0,5.448871132223264,22.593482601338742,0.8867738611922948,2.113878342002307
57.0,5.316605798595891,22.68291626318285,0.8872747299867937,2.116572935343097
58.0,5.192424416263127,22.77370038872514,0.8877687810623414,2.1193304010081175
59.0,5.075814807412424,22.865816731315803,0.8882559830280771,2.1221491701124724
60.0,4.966293319820948,22.95924482433342,0.8887363080487202,2.1250276187629296
61.0,4.863406823966783,23.05396248722812,0.8892097315369194,2.127964071912422
62.0,4.766736790529345,23.149946261190024,0.8896762321239529,2.130956803024004
63.0,4.675896473177442,23.247171098860438,0.8901357917444971,2.134004031401111
64.0,4.590515184088964,23.345609613815206,0.8905883951114009,2.1371039294736227
65.0,4.510257241814165,23.44523367902974,0.8910340298501552,2.1402546202768216
66.0,4.434804127587921,23.546012754211155,0.8914726864821505,2.1434541759266255
67.0,4.363852261639943,23.64791426351714,0.8919043579769641,2.1467006245884788
68.0,4.297133601099651,23.750905225966537,0.8923290400290068,2.1499919453884373
69.0,4.234381831921777,23.85494935781249,0.8927467307776207,2.1533260710631064
70.0,4.175355733003717,23.96000967653684,0.8931574305577429,2.15670089306807
71.0,4.119829697527195,24.06604701635698,0.8935611422840134,2.1601142526177743
72.0,4.067582605605494,24.173019875591713,0.8939578707544065,2.1635639531222233
73.0,4.018425587562373,24.280886444183174,0.8943476232010064,2.167047749740238
74.0,3.9721611424608954,24.38960133243346,0.8947304086713541,2.170563359017217
75.0,3.9286214123078693,24.49911909407469,0.8951062382930511,2.1741084549863747
76.0,3.887632618304053,24.609390672631136,0.895475125149397,2.1776806687650248
77.0,3.849048996604372,24.72036728262237,0.8958370840660878,2.1812775949301844
78.0,3.812715935817553,24.831996292820893,0.8961921317872049,2.184896784466974
79.0,3.7785029651826645,24.944225187082573,0.8965402866167644,2.18853575470998
80.0,3.746273200611153,25.056997847143805,0.8968815687353526,2.1921919793477023
81.0,3.71591411141064,25.17025844126087,0.8972159997826514,2.195862900079711
82.0,3.6873018722294835,25.283947452596514,0.8975436030165427,2.199545919730197
83.0,3.6603364380718326,25.398005383949215,0.8978644032506522,2.2032384064103376
84.0,3.6349081577272186,25.512369655559475,0.8981784266214242,2.2069376958961695
85.0,3.6109274255424317,25.626977142784998,0.8984857009212938,2.210641086449087
86.0,3.5883002921858727,25.74176257829532,0.8987862550086609,2.214345850415353
87.0,3.5669381426306366,25.856659071188922,0.8990801191483799,2.2180492270982657
88.0,3.546760615485739,25.971598248503778,0.8993673250064198,2.221748423582225
89.0,3.527691384335679,26.08651054223247,0.8996479052652281,2.225440623534395
90.0,3.5096564122456275,26.201324753562112,0.8999218938088469,2.2291229828221177
91.0,3.49258668583716,26.31596831466616,0.9001893256785,2.2327926316259354
92.0,3.4764163752151656,26.4303672349524,0.9004502369331747,2.236446678228055
93.0,3.4610833670407377,26.544446443168003,0.9007046645723942,2.240082210752114
94.0,3.4465302784142553,26.658129874590497,0.9009526465214079,2.2436962985530875
95.0,3.432698952436096,26.77133954022241,0.9011942217253566,2.2472859919297012
96.0,3.419535640167154,26.883996893204824,0.9014294297515073,2.250848330240359
97.0,3.4069922387118217,26.996022609990717,0.9016583109919369,2.254380339514456
98.0,3.395023029052149,27.107336425578655,0.9018809065523267,2.2578790365366945
99.0,3.3835753290942447,27.21785604681889,0.9020972581400075,2.2613414318957803
100.0,3.3726089874593335,27.3274997005006,0.9023074079694035,2.2647645330270785
101.0,3.3620879688599175,27.436185177610973,0.9025113987545822,2.268145346186222
102.0,3.3519716124713947,27.54382881220554,0.9027092736612193,2.271480881960932
103.0,3.342213774751505,27.650345636213324,0.9029010761014383,2.2747681557101074
104.0,3.3327860279185066,27.755652004038662,0.9030868497840704,2.2780041928141777
105.0,3.3236636603736307,27.85966436819886,0.9032666385951025,2.2811860303455904
106.0,3.314806086915035,27.962296837545367,0.9034404864756364,2.284310728334294
107.0,3.30617548660783,28.06346355731301,0.9036084373710296,2.2873753608022223
108.0,3.297753104137671,28.16308055998215,0.9037705351774225,2.2903770297016646
109.0,3.289523519235152,28.26106447946724,0.9039268236478099,2.293312863371468
110.0,3.281445500748214,28.35732897407865,0.9040773461290654,2.296180033800332
111.0,3.27348900385708,28.451789013488174,0.9042221457609885,2.2989757371044943
112.0,3.2656434397524623,28.544362027319853,0.9043612652221708,2.301697217601745
113.0,3.2579017260633556,28.634966620045816,0.9044947467091319,2.304341762420139
114.0,3.2502225472931636,28.723518009534143,0.9046226315277447,2.3069067247893624
115.0,3.2425809577364,28.809933609238797,0.9047449605652048,2.3093894924750247
116.0,3.2349726538019916,28.894134015545,0.9048617737866316,2.311787524827842
117.0,3.2273813502297015,28.976039734381978,0.904973110254553,2.314098343916706
118.0,3.2197920891550016,29.05557250001973,0.905079008035972,2.3163195410800594
119.0,3.212191204885153,29.13265523174346,0.9051795041128416,2.3184487813483226
120.0,3.20456630428303,29.207212286145154,0.9052746342864972,2.320483808339829
121.0,3.1969057994729453,29.279169535784114,0.9053644330914679,2.3224224484955878
122.0,3.1891991841861804,29.348454544769716,0.9054489337128203,2.3242626152526022
123.0,3.1814373511781318,29.41499674020927,0.9055281679011589,2.326002313423094
124.0,3.173612001262117,29.478727474984225,0.9056021658845922,2.327639643678349
125.0,3.1657157180723643,29.53958015488124,0.9056709562956503,2.329172806235382
126.0,3.1577420731055397,29.59749037055347,0.9057345660978399,2.330600104632444
127.0,3.1496857585533644,29.652396034917306,0.9057930205128452,2.331919949520946
128.0,3.1415424640121303,29.704237491722065,0.9058463429479566,2.333130862456569
129.0,3.133308528955046,29.75295758429339,0.9058945549348518,2.3342314790221086
130.0,3.1249811919842614,29.798501796373486,0.9059376760726006,2.3352205518309384
131.0,3.116558575898542,29.84081835839003,0.9059757239738965,2.33609695335649
132.0,3.1080396809802466,29.87985835425223,0.9060087142143751,2.336859678631543
133.0,3.0994245091767687,29.915575842285598,0.9060366602866875,2.337507847731988
134.0,3.0907135652665834,29.947927891832517,0.9060595735609891,2.3380407078510625
135.0,3.081908150209429,29.9768747112376,0.9060774632544747,2.3384576349906263
136.0,3.073010284581054,30.00237972624811,0.9060903364046297,2.3387581354382494
137.0,3.0640226743550563,30.024409662956444,0.9060981978463198,2.338941847076208
138.0,3.054948756809677,30.04293463126726,0.9061010501978093,2.3390085402222276
139.0,3.045792556156392,30.057928183064192,0.9060988938496599,2.3389581183300687
140.0,3.036558917124989,30.069367409856383,0.9060917269627302,2.3387906182491682
141.0,3.027253049223719,30.077232950011098,0.906079545468989,2.338506210285541
142.0,3.0178807913380603,30.081509077273715,0.9060623430827609,2.338105197784398
143.0,3.008448438196199,30.082183727728466,0.906040111316146,2.337588016462098
144.0,2.998962830580385,30.07924855743531,0.9060128394997701,2.336955233506984
145.0,2.989431248236759,30.072698963716956,0.9059805148111452,2.336207546251588
146.0,2.979861409401718,30.06253411848209,0.9059431223065038,2.3353457807051097
147.0,2.97026144963213,30.048756986256578,0.9059006449613701,2.334370889607568
148.0,2.9606398405831564,30.031374333260647,0.9058530637132776,2.333283950402916
149.0,2.951005441750465,30.010396740565124,0.9058003575135228,2.332086162729608
150.0,2.9413673546777788,29.98583859019028,0.9057425033802571,2.3307788458613685
151.0,2.931735030844224,29.957718071148847,0.9056794764603129,2.3293634356922728
152.0,2.9221180791684502,29.92605714448533,0.9056112500918735,2.327841481688529
153.0,2.912526413018235,29.890881539931723,0.9055377958751984,2.326214643429039
154.0,2.9029700280606803,29.852220702011135,0.9054590837438368,2.3244846871248757
155.0,2.8934591729618186,29.81010777529417,0.9053750820430189,2.3226534817792475
156.0,2.8840041124941873,29.764579533667003,0.9052857576082003,2.320722995341012
157.0,2.8746153088189277,29.715676352590247,0.9051910758498308,2.318695290550956
158.0,2.8653031823605475,29.663442123530075,0.9050910008379032,2.316572520801739
159.0,2.856078292780638,29.607924212062738,0.9049854953917587,2.3143569257400336
160.0,2.846951108117778,29.549173359382507,0.9048745211692597,2.3120508269080458
161.0,2.837932176163615,29.48724362548387,0.9047580387602587,2.3096566231729474
162.0,2.8290319111467372,29.422192279651362,0.9046360077790114,2.307176786225004
163.0,2.820260746885119,29.354079728234932,0.9045083869599226,2.3046138559063034
164.0,2.811628950146318,29.282969396133698,0.9043751342518611,2.301970435638101
165.0,2.8031467464152415,29.208927638817503,0.9042362069148191,2.2992491877198935
166.0,2.794824170250384,29.132023617071287,0.9040915616148641,2.296452828754164
167.0,2.786671152501878,29.052329192870964,0.9039411545204055,2.2935841249841977
168.0,2.778697420781099,28.96991880008603,0.903784941396629,2.2906458877784335
169.0,2.7709125332306868,28.88486932356148,0.9036228777001564,2.2876409690712527
170.0,2.763325846839281,28.79725996909886,0.9034549186719294,2.2845722569618356
171.0,2.755946477319167,28.70717212462565,0.9032810194291899,2.2814426713165017
172.0,2.748783359292948,28.614689233562004,0.9031011350558925,2.2782551595291993
173.0,2.7418451036682217,28.519896636209452,0.9029152206911419,2.2750126923368765
174.0,2.7351401458253077,28.42288144693446,0.9027232316162088,2.2717182597817325
175.0,2.728676568206485,28.32373238659309,0.9025251233390701,2.2683748672803175
176.0,2.7224620729736206,28.222539632872987,0.9023208516775071,2.2649855318273646
177.0,2.7165042711299,28.119394706058525,0.9021103728395735,2.26155327831856
178.0,2.710810398209872,28.014390283380113,0.9018936435017372,2.258081136029687
179.0,2.7053874843578067,27.907620066965393,0.9016706208841759,2.2545721352373973
180.0,2.70024218185799,27.79917861004381,0.901441262824855,2.251029303989211
181.0,2.6953808805469346,27.68916117812803,0.9012055278498208,2.247455665026967
182.0,2.690809633574607,27.577663586633513,0.9009633752427837,2.2438542328480016
183.0,2.6865341967134224,27.46478205356843,0.9007147651107541,2.2402280109340897
184.0,2.6825600132258787,27.35061304566929,0.9004596584490743,2.236579989108718
185.0,2.6788922151653547,27.23525312861575,0.9001980172028881,2.232913141063577
186.0,2.675535634370993,27.118798819290202,0.8999298043278914,2.229230422008552
187.0,2.6724947919318924,27.0013464381917,0.899654983848206,2.2255347664816605
188.0,2.6697739157108336,26.882991966982285,0.8993735209133884,2.221829086279948
189.0,2.6673769320079592,26.763830906248522,0.8990853818533678,2.2181162685343883
190.0,2.665307479888652,26.643958138645257,0.8987905342324717,2.2143991739028155
191.0,2.6635689109055805,26.52346779404802,0.898488946902187,2.2106806348878125
192.0,2.6621642969287707,26.402453119308348,0.8981805900531373,2.2069634542671555
193.0,2.661096438394277,26.2810063520488,0.8978654352665122,2.2032504036301006
194.0,2.6603678668106956,26.159218598481687,0.8975434555650883,2.1995442220163364
195.0,2.6599808578829482,26.037179716447312,0.8972146254642189,2.195847614644688
196.0,2.659937433728864,25.91497820308181,0.896878921023151,2.192163251727889
197.0,2.6602393732119074,25.79270108706018,0.8965363198964534,2.1884937673678646
198.0,2.6608882266957363,25.670433828839496,0.8961868013872533,2.1848417585068223
199.0,2.6618853136182508,25.54826022140163,0.8958303464999449,2.181209783963817
200.0,2.663231750249926,25.426262303253164,0.8954669379963383,2.177600363493472
201.0,2.66492842501382,25.30452026814961,0.8950965604507376,2.1740159769377
202.0,2.6669760522957318,25.183112392787464,0.8947192003107823,2.170459063350145
203.0,2.66936834181224,25.062114160302784,0.8943348455615537,2.166932027597845
204.0,2.6720950257544422,24.941597903150704,0.8939434866015044,2.16343722305509
205.0,2.675176744795571,24.82163816431128,0.8935451170208311,2.159976940326034
206.0,2.67862672171764,24.70230823737708,0.8931397304959523,2.1565534673697546
207.0,2.6824059400124143,24.58367048488683,0.8927273230793932,2.153169038497515
208.0,2.68653270310529,24.465791576075706,0.8923078954130431,2.149825802357829
209.0,2.691035426539874,24.348739417837038,0.8918814485200719,2.14652590112928
210.0,2.695869285495231,24.23256949306031,0.8914479847610681,2.143271445277208
211.0,2.701037923515878,24.117339238391047,0.8910075122395509,2.1400644411276746
212.0,2.7065811634241994,24.003110505403548,0.8905600402195524,2.136906876291577
213.0,2.7124982309119137,23.889938172781914,0.89010557944291,2.1338007093486517
214.0,2.718760028845607,23.777869224260577,0.8896441447580957,2.1307478238539823
215.0,2.725366153951752,23.666951637729706,0.8891757536971098,2.127750058653675
216.0,2.7323159892048845,23.557231456541615,0.8887004268436981,2.1248092007498434
217.0,2.7396083042999884,23.44875272222267,0.8882181879506829,2.1219269843694724
218.0,2.7472415997865065,23.34155721336473,0.887729064065036,2.1191050899813932
219.0,2.755214211927927,23.235684356801748,0.8872330856551415,2.11634514332513
220.0,2.763524361094278,23.13117119847717,0.8867302867471507,2.113648714344759
221.0,2.772170149156311,23.028052408700347,0.8862207050610994,2.1110173161736214
222.0,2.781149632899041,22.926360317616584,0.8857043821586353,2.108452403990101
223.0,2.7904607192678896,22.826124935703074,0.8851813635887681,2.1059553739420442
224.0,2.800101215205074,22.727374001271233,0.8846516990448832,2.1035275619514118
225.0,2.8100687020740183,22.630133002511656,0.8841154425251824,2.1011702425085543
226.0,2.8203608344702418,22.534425267613784,0.883572652497947,2.098884627449744
227.0,2.830975117248525,22.44027197634293,0.8830233920670446,2.096671864752616
228.0,2.841908964660256,22.347692215712385,0.8824677291428867,2.0945330372975697
229.0,2.85315967653,22.256703022949395,0.8819057366194352,2.092469161578919
230.0,2.8647244069611175,22.16731942926828,0.8813374925513011,2.0904811864463824
231.0,2.876600035321179,22.079554489636834,0.8807630803373635,2.0885699917891793
232.0,2.8887832498637187,21.993419342877132,0.8801825889134042,2.086736387141924
233.0,2.901270788999385,21.908923301294987,0.8795961129362868,2.0849811104277607
234.0,2.9140592220809474,21.826073870932824,0.8790037529682612,2.083304826713283
235.0,2.9271449595013084,21.74487680645693,0.8784056156656856,2.081708126933504
236.0,2.9405242438507018,21.665336163457287,0.8778018139694992,2.080191526616163
237.0,2.9541928815711462,21.58745431223201,0.8771924672952204,2.0787554646286943
238.0,2.968146549555765,21.511232035767048,0.876577701735432,2.0774003018060068
239.0,2.9823808968825314,21.436668601636764,0.8759576502397696,2.076126319854503
240.0,2.996891365506603,21.36376179127072,0.8753324527958087,2.0749337202513063
241.0,3.0116731714546865,21.2925079519261,0.8747022566112751,2.0738226231390744
242.0,3.0267212837938686,21.222902048228455,0.8740672162930839,2.072793066265068
243.0,3.0420301171295625,21.15493767032129,0.8734274940251835,2.071845003940479
244.0,3.057594071158641,21.088607166792773,0.8727832597493074,2.0709783059790166
245.0,3.073407366019033,21.023901676050247,0.8721346913155086,2.0701927569625274
246.0,3.089463953196257,20.96081116671412,0.8714819746345325,2.0694880554816315
247.0,3.1057575114904417,20.89932448962214,0.8708253038267819,2.068863813409085
248.0,3.122281385159674,20.83942942068168,0.87016488135881,2.068319555298797
249.0,3.139028418601378,20.78111268767219,0.8695009181758003,2.0678547178189675
