Time,J,A,S,tau
0.0,100.0,100.0,0.8095851530963546,10.1010101010101
1.0,102.7984823573496,98.73201842571518,0.8052384296995483,11.079058581799798
2.0,105.75178937441375,97.4884582005942,0.8009652620603401,12.057458131692247
3.0,108.8550616950975,96.26865875060707,0.7967624618386767,13.035857681584696
4.0,112.1051484840167,95.07177517777704,0.7926269377773872,14.014257231477146
5.0,115.49865141758956,93.8969860504306,0.7885556714425559,14.992656781369595
6.0,119.03172985334002,92.74350820890888,0.7845457725554129,15.971056331262044
7.0,122.7003397802453,91.61058384686316,0.7805944247470316,16.949455881154496
8.0,126.50011797758542,90.49748606320755,0.7766989166157681,17.927855431046943
9.0,130.42652931970358,89.4035151498107,0.7728566147175587,18.906254980939394
10.0,134.4748269512505,88.32799579743752,0.769064969377023,19.884654530831842
11.0,138.64013302184085,87.27028124866354,0.7653215120671941,20.863054080724293
12.0,142.91744287779224,86.22974371987264,0.761623839761478,21.841453630616744
13.0,147.30167067668017,85.2057846314992,0.7579696319960834,22.81985318050919
14.0,151.7876655232228,84.19782016191094,0.7543566190170179,23.798252730401643
15.0,156.37024971991042,83.20529550558607,0.750782612748354,24.776652280294094
16.0,161.04422299976238,82.22766766214839,0.747245464727886,25.755051830186545
17.0,165.80441093089576,81.26442155393181,0.7437431047727171,26.733451380078996
18.0,170.6456460921758,80.31505221923285,0.7402734948751067,27.711850929971444
19.0,175.56283109220126,79.3790806041647,0.7368346694164374,28.690250479863895
20.0,180.55089922245108,78.45603730875912,0.7334246909420972,29.668650029756346
21.0,185.60488416334155,77.54547596629081,0.7300416862706224,30.647049579648797
22.0,190.71987281958516,76.64696039375215,0.726683809180809,31.625449129541245
23.0,195.89106779371565,75.7600740712809,0.7233492682004456,32.603848679433696
24.0,201.1137449326413,74.88441140707016,0.720036298709747,33.58224822932615
25.0,206.3833011397746,74.01958344764522,0.7167431820435829,34.56064777921859
26.0,211.69523788308007,73.16521447887156,0.7134682291729635,35.53904732911104
27.0,217.045142840589,72.32093905497734,0.7102097813668808,36.517446879003494
28.0,222.42875731058226,71.48640933288009,0.7069662182606871,37.495846428895945
29.0,227.84187027783966,70.66128251421844,0.703735935265459,38.47424597878839
30.0,233.28045540332113,69.84523550104113,0.7005173706555194,39.45264552868084
31.0,238.74053335868928,69.0379501027403,0.6973089731466344,40.43104507857329
32.0,244.21825542182125,68.23912119218927,0.6941092231978933,41.40944462846574
33.0,249.7098938821022,67.44845634001014,0.6909166233260707,42.387844178358186
34.0,255.211763540893,66.66566694144491,0.6877296882980355,43.36624372825064
35.0,260.72035388145156,65.89048256464659,0.6845469652662797,44.34464327814309
36.0,266.2321902700737,65.12263655817465,0.6813670074411806,45.32304282803554
37.0,271.74388597619503,64.36187103036916,0.6781883880553168,46.30144237792799
38.0,277.2521843110215,63.60794266384958,0.6750097006274073,47.279841927820435
39.0,282.753841138467,62.860609219632124,0.6718295424709281,48.258241477712886
40.0,288.2457284216466,62.1196417857529,0.6686465330012128,49.23664102760534
41.0,293.7247962528874,61.384821373942614,0.6654593016141476,50.21504057749779
42.0,299.18800332004497,60.65592964765074,0.6622664818755895,51.19344012739023
43.0,304.63241219906354,59.932762295861735,0.6590667261457093,52.171839677282684
44.0,310.05513726880577,59.21512277406871,0.6558586920900316,53.150239227175135
45.0,315.45329872319957,58.50281494182599,0.6526410419106471,54.128638777067586
46.0,320.82410233168844,57.79565729701874,0.6494124524113285,55.10703832696004
47.0,326.16479002447517,57.093475080160374,0.6461716032068999,56.08543787685248
48.0,331.4726052325527,56.396093581343685,0.6429171771134241,57.06383742674493
49.0,336.7448439154072,55.70335019843495,0.6396478687319559,58.04223697663738
50.0,341.97883725489186,55.01509109069952,0.6363623743537703,59.020636526529834
51.0,347.1719160535454,54.33116224856041,0.6330593922665892,59.999036076422286
52.0,352.3214361946565,53.651418826058276,0.6297376304384199,60.97743562631474
53.0,357.42478237103694,52.975726523696935,0.6263957975660135,61.95583517620718
54.0,362.47933912806906,52.30395089222833,0.6230326034813164,62.93423472609963
55.0,367.4824984874573,51.635963605705534,0.6196467671899665,63.91263427599208
56.0,372.431672989187,50.97164952748703,0.6162370079144167,64.89103382588453
57.0,377.32427673454276,50.310894438304274,0.6128020444516119,65.86943337577698
58.0,382.15772194671007,49.65358509435726,0.609340603720302,66.84783292566942
59.0,386.92942920412287,48.99962252920666,0.6058514175486619,67.82623247556188
60.0,391.6368228551294,48.348912220667565,0.6023332155759685,68.80463202545432
61.0,396.2773264819105,47.70135923861469,0.5987847309524444,69.78303157534677
62.0,400.84836373068765,47.056877314138696,0.5952047099795044,70.76143112523923
63.0,405.3473616304503,46.41539067916475,0.5915918970148808,71.73983067513167
64.0,409.7717473463172,45.776823693349975,0.5879450366585984,72.71823022502412
65.0,414.1189497734221,45.141103115682576,0.5842628884967409,73.69662977491657
66.0,418.3864026753667,44.50816959544218,0.5805442196027293,74.67502932480902
67.0,422.5715405324307,43.87796637103677,0.5767877955070928,75.65342887470146
68.0,426.6718005713524,43.25043636147801,0.5729923902016285,76.63182842459392
69.0,430.6846348347503,42.62553316788944,0.569156801847213,77.61022797448636
70.0,434.6075003212413,42.00321842224341,0.5652798289724468,78.58862752437881
71.0,438.43785477451405,41.383453289819776,0.5613602720945389,79.56702707427125
72.0,442.17317802441903,40.76620263486206,0.5573969623757791,80.54542662416371
73.0,445.8109751653364,40.15144566801711,0.5533887496693602,81.52382617405615
74.0,449.348752672468,39.53916323165324,0.5493344834787316,82.50222572394861
75.0,452.7840245084324,38.92933533115023,0.545233023920925,83.48062527384106
76.0,456.11436032467105,38.32195119589692,0.5410832853766693,84.45902482373351
77.0,459.3373547655196,37.7170110177792,0.536884195682202,85.43742437362596
78.0,462.4506026149724,37.114515197638525,0.5326346825042505,86.41582392351842
79.0,465.4517288142731,36.514463456920495,0.5283337061311668,87.39422347341086
80.0,468.3384451925717,35.91686966772562,0.5239802971642156,88.37262302330332
81.0,471.10847905605215,35.321753660749415,0.5195734936761861,89.35102257319576
82.0,473.7595599742603,34.72913474407034,0.5151123366146187,90.32942212308822
83.0,476.28949527771834,34.139034122021556,0.5105959398527515,91.30782167298067
84.0,478.6961873652578,33.551488375396126,0.5060234894230617,92.28622122287312
85.0,480.9775443887455,32.96653641675357,0.5013941739007216,93.26462077276557
86.0,483.1314868253318,32.38421523098522,0.4967071956876442,94.24302032265803
87.0,485.1560756762941,31.804567988643694,0.4919618837233648,95.22141987255048
88.0,487.0494604797463,31.227652717459108,0.4871576345674906,96.19981942244293
89.0,488.80979211326496,30.65352803381066,0.4822938454007635,97.17821897233539
90.0,490.4352383293236,30.082250445826336,0.47736993171863346,98.15661852222783
91.0,491.9241487844803,29.513880712613624,0.47238548162650673,99.13501807212029
92.0,493.27498376608514,28.948495892358867,0.4673401755935729,100.11341762201275
93.0,494.486205106128,28.386173917679013,0.4622336947836033,101.09181717190519
94.0,495.55628607633935,27.82698972510661,0.45706573426380853,102.07021672179765
95.0,496.48390106706705,27.27101839430053,0.45183619472629405,103.0486162716901
96.0,497.26789229109016,26.718355493364786,0.44654513347953756,104.02701582158254
97.0,497.9071068795224,26.16909812380469,0.44119261173644464,105.005415371475
98.0,498.400392181853,25.623343207575857,0.4357786910621535,105.98381492136744
99.0,498.74670863240425,25.081177520573803,0.4303035647960469,106.9622144712599
100.0,498.94531232835214,24.54270428174966,0.4247677445407438,107.94061402115234
101.0,498.99550695005644,24.00803760968021,0.4191717880748315,108.91901357104479
102.0,498.8965961778769,23.47729162294223,0.41351625317689733,109.89741312093724
103.0,498.64792895902053,22.950578432627996,0.40780175477349195,110.87581267082969
104.0,498.2491260821583,22.42800699977779,0.4020292429323225,111.85421222072215
105.0,497.69984922467273,21.909704100205847,0.3962126555605722,112.8310612819889
106.0,496.9998552149497,21.395816349211362,0.39038894592686507,113.80188190909777
107.0,496.1489936532421,20.88648254203283,0.38458339278357134,114.76343372435826
108.0,495.14724018634564,20.381841802290758,0.3788176144672285,115.71272007791072
109.0,493.9946560429259,19.882037150676357,0.37311899307126994,116.64586163834178
110.0,492.69140158019104,19.387219661199975,0.367523129294872,117.5576860808109
111.0,491.23773036288907,18.89754890590743,0.3620767367951152,118.44123723553528
112.0,489.6339726879005,18.413194245403037,0.3568392644910066,119.28749560802524
113.0,487.8805364287188,17.934338252984762,0.3518884728193169,120.08445995718402
114.0,485.9778921847115,17.461181034181728,0.3473258802905821,120.81626884902967
115.0,483.92655999853184,16.99394450771317,0.3432842571036001,121.46203308872184
116.0,481.72709162251977,16.532880796208623,0.33993866310360593,121.99420856977615
117.0,479.38004745338844,16.078282490504762,0.33752153214085034,122.37654499271645
118.0,476.8859659752919,15.630498320423904,0.33634422911875433,122.56144397957587
119.0,474.2453222334909,15.18995591332834,0.33682886024141495,122.48655356841319
120.0,471.4584688211182,14.757197231626028,0.3395569663526141,122.07036323315502
121.0,468.5255500172862,14.332933303485854,0.3453445953172175,121.20676187618946
122.0,137.8928165004426,334.6371045590746,0.7133868576090046,18.216373472647565
123.0,55.68872517564375,403.1055159832653,0.8937099024676749,5.094016462428718
124.0,34.506420209641064,410.4994770848551,0.9304888236100002,3.115323569562335
125.0,31.539405487902272,399.8033836584666,0.95051098491384,2.117945788230785
126.0,30.764966902332105,387.12937737952524,0.9632973313122543,1.5128507132706681
127.0,29.991709883625617,374.6735723424004,0.9720699331670866,1.1139731241293378
128.0,29.220154772307865,362.4388355693566,0.9783340004039554,0.8385332619748189
129.0,28.450833127783003,350.4278678703025,0.9829186535373203,0.6427191387955238
130.0,27.684286456336128,338.64319408675823,0.9863288740515281,0.5007642990840387
131.0,26.921064842309022,327.0871538063211,0.9888933916246585,0.3964213360515929
132.0,26.16172548330213,315.76189247486724,0.990836345602469,0.31893666358140055
133.0,25.406831137692443,304.6693531196554,0.9923156975680358,0.26094236882496424
134.0,24.656948489670217,293.81126873531605,0.9934454926544044,0.21726086005115167
135.0,23.912646423814667,283.18915471072296,0.9943095699859226,0.18418418483471152
136.0,23.174494244789233,272.80430265488326,0.9949703820366692,0.159019645134412
137.0,22.443059823132092,262.65777441573897,0.9954749305629955,0.13979051051925884
138.0,21.718907691039178,252.75039697358525,0.9958588655886634,0.12503362680595295
139.0,21.002597109654403,243.08275860797843,0.9961493915208037,0.11365898265023408
140.0,20.294680078566156,233.6552048870647,0.9963673699565232,0.10485030217436948
141.0,19.595699333757274,224.4678358691981,0.996528860360393,0.09799378172042025
142.0,18.90618634196835,215.52050428864607,0.9966462654215291,0.09262628446810636
143.0,18.226659313731368,206.81281486545788,0.9967291903102782,0.0883973367464074
144.0,17.55762118373397,198.34412320962642,0.9967850913388899,0.08504106873567117
145.0,16.89955771543386,190.11353790962062,0.9968197696815498,0.0823553359667833
146.0,16.252935534102146,182.11992042366205,0.9968377487744935,0.08018611063751899
147.0,15.618200358772034,174.36188941067522,0.9968425621640203,0.0784158360454019
148.0,14.99577509984087,166.83782086729093,0.9968369768257206,0.07695459359543128
149.0,14.386058423157824,159.54585718003509,0.9968231637441819,0.07573350010878638
150.0,13.789422797304173,152.48390540434457,0.9968028295998095,0.07469971619328424
151.0,13.206213529481147,145.64965122221952,0.9967773207541782,0.07381259809123465
152.0,12.63674715441055,139.04056032928594,0.9967477017239302,0.07304084874267819
153.0,12.081309830187875,132.65387991288375,0.9967148165781022,0.07236033598906874
154.0,11.540157384911856,126.4866636006712,0.9966793374697175,0.0717524058423015
155.0,11.013513057363552,120.53575895930568,0.9966418016178712,0.07120262193709431
156.0,10.501568488713797,114.79784151603135,0.996602640859765,0.07069978028694085
157.0,10.004480026423156,109.26937957185847,0.9965622042293085,0.07023517136155759
158.0,9.52237502498762,103.94673944697423,0.9965207750417597,0.06980202917730063
159.0,9.055343339130879,98.82608026797135,0.9964785856591827,0.0693950697202743
160.0,8.603439984756207,93.90341233245256,0.9964358277166697,0.06901017330891285
161.0,8.166693839160912,89.17469772265665,0.9963926622859948,0.06864408091702019
162.0,7.745098017470506,84.63576894533428,0.9963492235007363,0.06829428041156446
163.0,7.338602169367019,80.28224207719887,0.9963056271586671,0.06795876066110176
164.0,6.947156309761037,76.11001860009547,0.9962619724295375,0.0676359582495418
165.0,6.5706453564103455,72.11462137602516,0.9962183464484323,0.06732463013133527
166.0,6.20896150667642,68.2919370231908,0.9961748267216275,0.06702378598044337
167.0,5.86194542502403,64.63774047845008,0.9961314822515794,0.06673265605792789
168.0,5.529432877737131,61.148141768128895,0.9960883766999339,0.06645060732382581
169.0,5.211246023531111,57.81960264744261,0.9960455678162998,0.06617715604245245
170.0,4.907159781178123,54.648882615088034,0.9960031102297899,0.06591189613048942
171.0,4.617009473555997,51.63369842424618,0.9959610546406235,0.0656545174342562
172.0,4.340506148374439,48.772160931471404,0.9959194497041709,0.0654047586240865
173.0,4.0775201705917485,46.06384984397315,0.9958783415675023,0.06516241658642852
174.0,3.827692505155747,43.508983429479365,0.9958377748599246,0.06492732194410385
175.0,3.590973921984329,41.10947024304084,0.9957977926059197,0.06469933943158453
176.0,3.3670022361982737,38.867892527368184,0.995758436646445,0.06447835717609249
177.0,3.155418877543747,36.787756945601366,0.9957197477170858,0.06426428355293844
178.0,2.955978673443188,34.872986944668675,0.9956817655608066,0.06405704317786318
179.0,2.7682178124417613,33.12694695126544,0.9956445290370372,0.06385657337011105
180.0,2.5916499649406455,31.551669499936253,0.9956080761688029,0.06366282177976096
181.0,2.4257319072684105,30.14690971409495,0.9955724441761897,0.06347574440140212
182.0,2.2699069564181458,28.909453086549693,0.9955376694977192,0.06329530396009315
183.0,2.123489288631744,27.832646318537822,0.9955037877791727,0.06312146872762828
184.0,1.9859022245885207,26.90660617664718,0.9954708338711037,0.06295421143561368
185.0,1.856616295725786,26.11874137700378,0.9954388418089875,0.06279350848070564
186.0,1.735074288213745,25.454607378147347,0.9954078447840523,0.06263933928574171
187.0,1.6208296246650162,24.89892531450149,0.9953778751123408,0.062491685766040236
188.0,1.5134910294739046,24.436495272066146,0.9953489641981043,0.06235053191441598
189.0,1.4127113676045906,24.05293125553405,0.9953211424941266,0.06221586346553563
190.0,1.318170014831842,23.735156815884693,0.9952944394594773,0.06208766762749359
191.0,1.2295761990833298,23.47167273499901,0.9952688835147137,0.06196593286514607
192.0,1.1466548065781266,23.25262862322692,0.9952445019987362,0.06185064872545536
193.0,1.0691381908709126,23.069763847446957,0.9952213211245243,0.06174180569894971
194.0,0.9967546671780798,22.916265591553802,0.9951993659380161,0.061639395109121975
195.0,0.9292518749019555,22.786601680381523,0.9951786602648691,0.061543409024680924
196.0,0.8663676081962352,22.676316745876818,0.9951592266825161,0.061453840187532124
197.0,0.8078573442636211,22.581867534110376,0.9951410864570552,0.06137068195970131
198.0,0.7534719476688404,22.50044212020322,0.9951242595292998,0.061293928275306934
199.0,0.7029568929158744,22.429829386856465,0.9951087644538725,0.061223573617171206
200.0,0.6560986477429427,22.368292794518172,0.9950946183989529,0.06115961295943909
201.0,0.6126667579048517,22.31447921115231,0.9950818370678373,0.06110204178327182
202.0,0.5724275779927857,22.26733626701237,0.9950704346376507,0.06105085606775968
203.0,0.5351974250707532,22.22603274749558,0.9950604239260132,0.06100605219052297
204.0,0.500782221471431,22.189939824595367,0.9950518160225323,0.060967627042197395
205.0,0.4689543555389389,22.158547670186106,0.9950446206679903,0.06093557795039349
206.0,0.43958883892770817,22.131480865258915,0.9950388458645575,0.06090990263753672
207.0,0.4124667624318188,22.108431367616074,0.9950344981132833,0.060890599345283854
208.0,0.38746803106092687,22.089168677890047,0.9950315823445685,0.06087766664696506
209.0,0.3644137629628613,22.073510978060707,0.9950301017302219,0.06087110366276049
210.0,0.343171506751992,22.061315220991172,0.9950300580734939,0.060870909838443954
211.0,0.3236146799077687,22.05247608333565,0.99503145124304,0.06087708513326028
212.0,0.3055967640355174,22.046904447699237,0.9950342798137812,0.060889629892861105
213.0,0.2890366824908728,22.04454231478324,0.9950385404310906,0.06090854489544977
214.0,0.2738088750762202,22.045337556911374,0.9950442283658217,0.06093383136287078
215.0,0.2598034917180184,22.0492543577655,0.9950513372002797,0.060965490963080786
216.0,0.24692390561011332,22.056267504506703,0.9950598589482759,0.061003525788095314
217.0,0.23509055874397478,22.066362159924754,0.995069783992335,0.06104793837208429
218.0,0.22421495152787693,22.07952843922135,0.9950811012172429,0.06109873170284439
219.0,0.2142235007997259,22.09576403489724,0.995093798000321,0.061155909198728285
220.0,0.20505540746558934,22.11507350608521,0.9951078601305533,0.061219474755196235
221.0,0.1966393689263392,22.137463716794915,0.9951232719914198,0.06128943274385307
222.0,0.18891341860252253,22.162947341927882,0.9951400165002848,0.0613657880254668
223.0,0.18182189334997823,22.191541058067784,0.9951580751672385,0.06144854596692545
224.0,0.17531652516735297,22.223265996612515,0.9951774281169181,0.0615377124704397
225.0,0.16934989850393928,22.25814653341222,0.9951980541337706,0.06163329401533325
226.0,0.16387732826876006,22.296210619553573,0.9952199307083565,0.06173529769440646
227.0,0.15885817311968123,22.337489590860354,0.9952430340655248,0.06184373127506406
228.0,0.15425493095503368,22.382018047605936,0.9952673392330861,0.06195860325030476
229.0,0.15004198477543132,22.429835153680834,0.9952928200448594,0.062079922940228266
230.0,0.14618296368666198,22.480981356429456,0.9953194492205533,0.06220770061110744
231.0,0.14264936754139104,22.535501223112018,0.9953471983931788,0.062341947596123985
232.0,0.1394152143147731,22.59344236046532,0.9953760381575485,0.06248267647082815
233.0,0.13645666238884785,22.654855532322316,0.9954059381137111,0.06262990126626292
234.0,0.13375187619368198,22.71979460859675,0.9954368669090667,0.06278363773440579
235.0,0.13128086885355875,22.788316555566706,0.9954687922782867,0.06294390367886521
236.0,0.12902535767295303,22.860481428184887,0.995501681080131,0.06311071936677624
237.0,0.1269686298947679,22.936352365804577,0.9955354993300948,0.06328410804190145
238.0,0.1250954215511822,23.01599559095712,0.9955702122275891,0.06346409656400485
239.0,0.12339219978409152,23.099480469483545,0.9956057841756351,0.06365071621017679
240.0,0.12184881977166291,23.18687973523839,0.9956421787893953,0.06384400369744532
241.0,0.12045119983123362,23.27826848728498,0.9956793589045965,0.06404400236838027
242.0,0.11918880399653313,23.373725340478305,0.9957172865550885,0.06425076380297871
243.0,0.1180520722466653,23.473331977037986,0.9957559229435976,0.06446434975766657
244.0,0.11703237428887113,23.577173201640424,0.9957952283875506,0.06468483462107703
245.0,0.11612191259043309,23.685336935448465,0.9958351622376347,0.06491230849721066
246.0,0.11531364696775878,23.797914222220044,0.9958756827620497,0.06514688108654978
