Time,J,A,S,tau
0.0,100.0,100.0,0.9907161141531272,9.25925925925926
1.0,99.96858500311257,97.57531886351812,0.9912211879168131,9.440257107610714
2.0,99.93654952200141,95.20374752674952,0.9917239851397063,9.618557288506008
3.0,99.90387857963998,92.88652032226038,0.9922236127552959,9.793818381648128
4.0,99.87055053566914,90.62245138430474,0.9927198744666825,9.965989395629475
5.0,99.83654362613186,88.41031457865654,0.9932125698428006,10.135019708038566
6.0,99.8018366508667,86.24896743984607,0.9937014830127625,10.300860011391256
7.0,99.76640855917124,84.13730264423046,0.9941863945891118,10.463461294393863
8.0,99.73023890381525,82.07416490738738,0.9946670761050571,10.62277528737535
9.0,99.69330962579889,80.0585056141169,0.9951432838005009,10.778754931188901
10.0,99.6556033091541,78.08928686883621,0.9956147707485028,10.931353410040504
11.0,99.61710534511123,76.16545252972776,0.9960812774903506,11.080524861450574
12.0,99.57779799242832,74.2859985344817,0.9960605371689383,11.054337223404307
13.0,99.53767647606868,72.44993078300162,0.9959884415847088,11.010259417334451
14.0,99.4967387874248,70.65630125932299,0.9959139266384266,10.965881786976594
15.0,99.45498734311529,68.90414984065448,0.9958369311670843,10.921226403689094
16.0,99.41243795846897,67.1925914617378,0.9957573920795936,10.876314804573417
17.0,99.3691075964103,65.52072546916555,0.9956752459322553,10.831168426033331
18.0,99.32503381386287,63.88766270701647,0.9955904272310577,10.785808081850508
19.0,99.2802707638071,62.29259119416872,0.9955028692946533,10.740254221563218
20.0,99.23487461471157,60.73465705526139,0.9954125050287951,10.694527157312534
21.0,99.18894436239756,59.213052778006315,0.9953192651472951,10.648646456746642
22.0,99.14259649455464,57.72702566924201,0.995223079702478,10.602631460994136
23.0,99.09595786993751,56.27577808381602,0.995123878080507,10.556501260094164
24.0,99.04922639571662,54.85858924008598,0.9950215877687741,10.510274205770143
25.0,99.00261449210136,53.47476667943054,0.9949161359282745,10.463968521578364
26.0,98.95636626659353,52.12358550817009,0.9948074488452587,10.417602043223175
27.0,98.91082560326743,50.80441708653547,0.9946954514324342,10.371191956030003
28.0,98.86634508929524,49.51663885713282,0.9945800684373866,10.324755367774213
29.0,98.82334732800773,48.259624473466225,0.9944612237132421,10.27830887079368
30.0,98.78237574152179,47.03285373936892,0.9943388403474397,10.231868543320342
31.0,98.74397591155278,45.8357950007556,0.9942128413017891,10.185450389057994
32.0,98.70881728675015,44.66796083916979,0.994083148918264,10.139069803202906
33.0,98.67769456447114,43.52896965117061,0.9939496853178631,10.09274181874639
34.0,98.65138628963955,42.418407975941534,0.9938123724797154,10.046481377993524
35.0,98.6308658957789,41.33598729516436,0.9936711324076761,10.000302736992973
36.0,98.61723734019714,40.28153056781477,0.993525887293522,9.954219878292637
37.0,98.61157897642111,39.25483486561681,0.9933765592479269,9.908246725413832
38.0,98.61510050998935,38.255825522251676,0.9932230710895452,9.862396578356401
39.0,98.62920270903194,37.28461713939317,0.9930653464929278,9.816682380471518
40.0,98.65526205918468,36.341309432474674,0.9929033090876932,9.771117047796338
41.0,98.694631020247,35.42612274752824,0.9927368837297795,9.725713002869682
42.0,98.74883439968679,34.539562807207915,0.9925659972444176,9.680482223274533
43.0,98.81939142948055,33.682151222803384,0.9923905766001164,9.635436653548416
44.0,98.90760626750748,32.854539147399684,0.9922105504664304,9.590587849254824
45.0,99.0147640819379,32.0576315819988,0.992025849786346,9.545947012154837
46.0,99.1419329253146,31.292411386109357,0.9918364066307737,9.501525166333492
47.0,99.28988658223699,30.560140257362065,0.9916421562461539,9.457332951458946
48.0,99.45913018561878,29.862168356242883,0.9914430352171499,9.413380850066545
49.0,99.64956891385411,29.200076589657936,0.9912389836300414,9.369678995069556
50.0,99.86061724033793,28.57556575727951,0.9910299437808693,9.326237320944601
51.0,100.09095729488826,27.990527653761657,0.990815861752317,9.283065466109532
52.0,100.3384691921283,27.44692894690337,0.9905966865399596,9.240172852455673
53.0,100.60020217881215,26.946852886923786,0.9903723711801246,9.19756864390831
54.0,100.87212587723243,26.492373756867828,0.9901428726075174,9.155261766271138
55.0,101.14939762901047,26.085562427145163,0.9899081518335978,9.113260927998958
56.0,101.42600683542165,25.728316728669107,0.9896681749541352,9.071574579668454
57.0,101.69526176310507,25.422373862000565,0.9894229121151841,9.03021098684416
58.0,101.94960665981097,25.169045996540905,0.9891723397145611,8.989178149341573
59.0,102.18105937288377,24.969282651628138,0.9889164383898074,8.94848389698729
60.0,102.38152124597707,24.82331428450721,0.988655195848869,8.908135804824148
61.0,102.54297253602759,24.730739126053347,0.9883886047358255,8.868141273439548
62.0,102.65823595471555,24.69018737961052,0.9881166651311675,8.82850747308519
63.0,102.72102989608888,24.699378138473012,0.9878393831183926,8.78924138876002
64.0,102.72659444997427,24.754959468083,0.9875567719691163,8.750349803797985
65.0,102.6720994512603,24.85245874000284,0.9872688525510002,8.711839302493972
66.0,102.55675467037206,24.98636305235057,0.9869756531694444,8.67371628173828
67.0,102.38201573931146,25.150187368627016,0.9866772101653057,8.635986949241516
68.0,102.15152581033732,25.336649798815625,0.9863735681292632,8.598657328194859
69.0,101.87091458841121,25.5379195104452,0.9860647801982768,8.561733260200038
70.0,101.54746743330494,25.74591181311365,0.9857509083381615,8.525220408358223
71.0,101.18966167551957,25.952643457010833,0.9854320236174904,8.489124260314455
72.0,100.8066513505391,26.150585724178175,0.985108206486229,8.453450131082535
73.0,100.40772032829722,26.33301377151955,0.9847795470226914,8.418203166012066
74.0,100.00177458104261,26.49429980151311,0.984446145159612,8.383388343985528
75.0,99.59691897143217,26.63012482491459,0.9841081108742235,8.34901048077943
76.0,99.20011918129416,26.737616727941127,0.9837655645013812,8.31507423048652
77.0,98.8170349006475,26.81534458165212,0.9834186367050122,8.281584091032812
78.0,98.45190603350063,26.86325643669496,0.9830674686670697,8.248544408412478
79.0,98.10747713175759,26.882627280190285,0.9827122134077144,8.215959361337857
80.0,97.78534198624006,26.875623247326466,0.982353033351908,8.183833002452738
81.0,97.48586983277094,26.845301422200603,0.9819901029686363,8.1521692215947
82.0,97.20849338456533,26.79524285733444,0.981623607492708,8.120971770614625
83.0,96.95185762175849,26.729366681031877,0.9812537430972402,8.090244263794926
84.0,96.71396415734972,26.651732901155746,0.9808807175352457,8.0599901733941
85.0,96.49235652983482,26.566360231406744,0.9805047496896288,8.030212837063452
86.0,96.28424083673731,26.47710699311531,0.9801260692785598,8.000915464324738
87.0,96.08658508899745,26.387565372642467,0.9797449172315671,7.972101134688879
88.0,95.89622564486949,26.300966068398324,0.9793615457350686,7.943772798174544
89.0,95.7099449251752,26.220149415205068,0.9789762175457131,7.915933284709441
90.0,95.52454838405566,26.14752636340221,0.9785892059574669,7.88858530583207
91.0,95.3369479053782,26.08503267709075,0.9782007950776969,7.861731452132419
92.0,95.14423319088226,26.03412092475835,0.9778112794119879,7.835374197734927
93.0,94.94370153632629,25.99581471744418,0.9774209624912747,7.809515915974339
94.0,94.73303767631582,25.970595722081566,0.9770301592400326,7.784158852638435
95.0,94.51016334862369,25.95859537406421,0.9766391915730503,7.7593051732371165
96.0,94.27362983366157,25.95938418801611,0.9762483937974485,7.734956901663965
97.0,94.02221467869944,25.972310384440632,0.97585810493842,7.7111160061064306
98.0,93.75533578883511,25.99625594889358,0.9754686752331198,7.6877843193139945
99.0,93.47274859049217,26.02990605762962,0.9750804602249352,7.664963608740441
100.0,93.17479113276505,26.071669505599104,0.9746938246597205,7.642655522148995
101.0,92.8621022532579,26.119846870888804,0.9743091379913437,7.620861643743984
102.0,92.53577738282559,26.172640735364997,0.9739267773372353,7.599583446141698
103.0,92.19713411835505,26.228254145783314,0.9735471237903772,7.578822340295892
104.0,91.84774767721245,26.284967536840544,0.9731705643726201,7.558579634644017
105.0,91.48930705439793,26.341166847280054,0.9727974892492935,7.538856576868275
106.0,91.12355646738575,26.395441126902085,0.9724282926883854,7.519654321698416
107.0,90.75222891066933,26.44657589279384,0.9720633710929253,7.500973963424269
108.0,90.37694717856385,26.493624775643564,0.9717031231454676,7.482816513050062
109.0,89.999213722785,26.535889020639498,0.9713479484196162,7.465182921176064
110.0,89.6203329954504,26.57293236522305,0.9709982470929954,7.448074067201971
111.0,89.2414142559296,26.60457567563188,0.9706544186810228,7.431490770020568
112.0,88.86325616648035,26.63090381126598,0.9703168611599446,7.415433765150035
113.0,88.48658259910155,26.65211018588867,0.9699859717305485,7.3999037690782705
114.0,88.11173303816888,26.668661634616775,0.969662142246404,7.384901393621093
115.0,87.73893721039734,26.681081793046854,0.9693457630236081,7.37042722209988
116.0,87.36825204179452,26.69000294163814,0.9690372191737764,7.356481788699746
117.0,86.99950694381116,26.696119097805607,0.9687368881183411,7.343065543347462
118.0,86.63248999421174,26.70013645840167,0.9684451455055721,7.330178927664198
119.0,86.2668460033496,26.70273589757239,0.9681623545945641,7.317822303087025
120.0,85.9021724431035,26.704568461843404,0.9678888733050698,7.3059959898897
121.0,85.53803634829072,26.706235988930356,0.9676250524467472,7.294700286900997
122.0,85.17400560269483,26.70821444546679,0.9673712270262874,7.283935410977786
123.0,84.80964772397114,26.710952675578582,0.9671277292267035,7.273701569915941
124.0,84.4445865005478,26.714753091849598,0.9668948741450275,7.263998920012606
125.0,84.07850971185854,26.7198270155742,0.9666729652905076,7.254827565037275
126.0,83.71111740890984,26.72633813181906,0.9664623016110493,7.246187613539705
127.0,83.34228157747347,26.73427011648315,0.9662631533350711,7.238079086912727
128.0,82.97192055932007,26.743570368518018,0.966075783847026,7.230501979086018
129.0,82.59997146730662,26.754154173067256,0.9659004530735144,7.223456296483256
130.0,82.22654267065677,26.765811997895575,0.9657373869181571,7.216941973801713
131.0,81.85180843780817,26.778303992529132,0.9655867979318584,7.210958898579408
132.0,81.4759542134539,26.791382178859436,0.9654488978865602,7.205506967912121
133.0,81.09926814076644,26.804761312979398,0.9653238693913105,7.2005860498424905
134.0,80.72209324651338,26.818155133762033,0.9652118683565889,7.196195937857639
135.0,80.3447771356264,26.83127708627036,0.9651130501825443,7.192336426310951
136.0,79.96771579018368,26.84385389925716,0.9650275518420409,7.1890073138731525
137.0,79.59130348560076,26.85566181371858,0.9649554711543215,7.186208316167319
138.0,79.21592810821345,26.866483619673144,0.9648969018172692,7.183939134543154
139.0,78.842001525632,26.876121926157204,0.9648519298070787,7.182199488787507
140.0,78.46988615490919,26.884460194089215,0.9648205971070416,7.180989032413027
141.0,78.09991127598764,26.891401194680792,0.9648029333845096,7.180307382616105
142.0,77.73242357936307,26.89685513090463,0.9647989688092031,7.180154176246527
143.0,77.36772514329677,26.90080388095169,0.9648086958823887,7.1805290228168
144.0,77.00602684749734,26.903268309240875,0.9648320732273028,7.1814314486653545
145.0,76.64753745527464,26.904269625602424,0.9648690589053,7.182860978058501
146.0,76.29248388028502,26.903842513063122,0.9649196118346863,7.184817166243293
147.0,75.94103960116689,26.902070367254705,0.9649836460702349,7.187299534858024
148.0,75.59329013955373,26.899040923338394,0.9650610381547007,7.190307500788664
149.0,75.24931960771998,26.89484165905325,0.9651516641864135,7.193840479029615
150.0,74.90921309458967,26.88956068280479,0.9652554004728265,7.197897886982597
151.0,74.5730724175321,26.88330305677826,0.9653721105529904,7.2024791891213775
152.0,74.2409448989235,26.87615534511841,0.9655016019311231,7.207583731439693
153.0,73.91285637734977,26.868192953356086,0.9656436702964047,7.213210809552955
154.0,73.58883269139677,26.85949128702214,0.9657981113380154,7.2193597190765715
155.0,73.26890537969693,26.850127384799663,0.9659647205484372,7.226029772348436
156.0,72.95312647377621,26.840165010027917,0.966143264232811,7.233220285515183
157.0,72.64152637066022,26.829636011424196,0.9663334711913828,7.240930435620956
158.0,72.3341324261684,26.81856998114739,0.9665350682689107,7.2491593867137984
159.0,72.03097199612021,26.806996511356385,0.9667477823101527,7.257906302841757
160.0,71.73209369518133,26.79494622524415,0.9669713417997465,7.2671704166352775
161.0,71.43756086172624,26.78242878441025,0.9672054367649013,7.276950859782579
162.0,71.14741703954675,26.769440393080245,0.9674497328779982,7.287246614527469
163.0,70.8617057212243,26.7559772389977,0.9677038957818982,7.298056662852683
164.0,70.58047039934024,26.742035509906184,0.9679675911194624,7.309379986740958
165.0,70.30375456647602,26.727611393549267,0.9682404845335522,7.3212155681750275
166.0,70.03161871291024,26.71270301435297,0.9685222314339257,7.333562381350736
167.0,69.76413362476279,26.69730939232084,0.9688124642378285,7.3464193103258655
168.0,69.5013512035709,26.681427250293087,0.9691108167881718,7.359785197023447
169.0,69.24332631478073,26.665057505010537,0.9694169180840496,7.373658858555375
170.0,68.9901024871806,26.648206000322087,0.9697303903449553,7.388039038027727
171.0,68.74173872613068,26.63087758277088,0.970050855364662,7.4029245447980925
172.0,68.49827812583696,26.613088223060213,0.9703779292229516,7.41831405972039
173.0,68.25973310997698,26.594861696528014,0.9707112247401618,7.434206098951058
174.0,68.0261160678963,26.576221784766435,0.971050354734393,7.450599178477277
175.0,67.79743938894046,26.557192269367622,0.9713949320237457,7.467491814286233
176.0,67.57371546245506,26.537796931923726,0.9717445694263203,7.484882522365109
177.0,67.3549730908025,26.518065773289617,0.972098873945574,7.502769889770275
178.0,67.14122097398878,26.498041504326334,0.9724574597571657,7.521152285623164
179.0,66.93243588746147,26.477766137969176,0.9728199523750122,7.540027867410025
180.0,66.72859456948146,26.457281681349023,0.9731859773262254,7.559394792402725
181.0,66.52967375830961,26.436630141596748,0.973555160137917,7.579251217873135
182.0,66.33565019220684,26.415853525843225,0.9739271263371988,7.599595301093123
183.0,66.1465007266675,26.39499397212556,0.9743015011045563,7.6204252028796935
184.0,65.96220201713197,26.37409906000108,0.9746779061667691,7.641739111352688
185.0,65.7827156057736,26.353215393420847,0.9750559965821918,7.663534851221464
186.0,65.60799853086588,26.33238724158195,0.9754354388019051,7.685810126861288
187.0,65.4380078306823,26.311658873681484,0.9758158992769896,7.708562642647424
188.0,65.27270054349633,26.291074558916538,0.976197044458526,7.73179010295514
189.0,65.11203370758149,26.2706785664842,0.9765785407975947,7.7554902121597005
190.0,64.9559622396364,26.250514777720205,0.9769600533265752,7.77966068686494
191.0,64.80442272634164,26.230622353055377,0.9773412556259613,7.804299164134831
192.0,64.65736354910669,26.211040070190112,0.9777218677261407,7.829402869796559
193.0,64.51473733777812,26.19180724008802,0.9781016161956121,7.8549689722805764
194.0,64.37649672220248,26.172963173712706,0.9784802276028742,7.880994640017337
195.0,64.2425943322263,26.154547182027777,0.9788574285164258,7.907477041437294
196.0,64.11298279769616,26.13659857599684,0.9792329455047656,7.9344133449709
197.0,63.9876046707581,26.11915393545734,0.9796065031825467,7.9618007332358065
198.0,63.86637577377714,26.10224092525375,0.9799778515884312,7.9896361524991315
199.0,63.74924614567332,26.085894467313423,0.980346784316528,8.017916170345554
200.0,63.63616931695127,26.070150343800233,0.9807130972131695,8.046637335342838
201.0,63.52709881811564,26.05504433687805,0.9810765861246877,8.07579619605875
202.0,63.421988179671054,26.040612228710756,0.9814370468974152,8.105389301061052
203.0,63.320790932122165,26.026889801462215,0.981794275377684,8.135413198917512
204.0,63.22343382930677,26.01390619053807,0.9821480668473643,8.165864432433622
205.0,63.12982492614414,26.001684773257555,0.9824982559451325,8.196739137900714
206.0,63.039917812055855,25.99025940332531,0.9828447077008665,8.228033163408458
207.0,62.95366686947203,25.97966412431066,0.9831872874098012,8.259742354699627
208.0,62.87102648082279,25.96993297978292,0.9835258603671716,8.291862557516989
209.0,62.791951028538236,25.96110001331141,0.9838602918682124,8.324389617603314
210.0,62.71639461854939,25.95319920709955,0.9841904471627855,8.357319381146045
211.0,62.644258073781,25.94625212477878,0.9845161948660828,8.39064762847698
212.0,62.57545630440203,25.940281416274534,0.9848374475659945,8.424369595880998
213.0,62.50994443092556,25.935318219625426,0.9851541333545509,8.458480343521188
214.0,62.44767757386464,25.931393672870087,0.9854661803237829,8.492974931560633
215.0,62.38861085373235,25.928538914047135,0.9857735165657204,8.527848420162421
216.0,62.332699391041764,25.926785081195195,0.9860760701723944,8.563095869489635
217.0,62.279893346096195,25.926162228598443,0.9863737689081072,8.59871234335583
218.0,62.23006999959304,25.926682803310896,0.9866665503165056,8.63469271379955
219.0,62.18315894970643,25.928366876653,0.9869543883920479,8.671031259554232
220.0,62.13911695574631,25.931239965991317,0.9872372631569024,8.707722168183103
221.0,62.0979007770226,25.935327588692395,0.987515154633238,8.7447596272494
222.0,62.05946717284525,25.940655262122796,0.9877880428432235,8.782137824316353
223.0,62.0237729025242,25.947248503649078,0.9880559078090274,8.819850946947195
224.0,61.99075817030867,25.955129135794976,0.9883187293642302,8.857893184274534
225.0,61.960289970342,25.964299400447057,0.988576501701427,8.896258356313195
226.0,61.93231354485332,25.97477417980267,0.9888292425142982,8.934939716023292
227.0,61.90678797684925,25.98657112746224,0.9890769711431594,8.973930478197873
228.0,61.883672349336386,25.999707897026195,0.9893197069283262,9.013223857629992
229.0,61.862925745321334,26.014202142094966,0.989557469210114,9.052813069112696
230.0,61.84450724781069,26.030071516268976,0.9897902773288386,9.092691327439038
231.0,61.82833802743233,26.047325367879793,0.9900181505574904,9.132851862728662
232.0,61.81428511511251,26.065956204482365,0.990241122198887,9.173287344073065
233.0,61.80230663779825,26.08597177709439,0.9904592390829254,9.213989852210991
234.0,61.79236513539291,26.107380698444675,0.990672548345171,9.254951453807019
235.0,61.78442314779987,26.13019158126203,0.9908810971211893,9.29616421552573
236.0,61.778443214922476,26.15441303827526,0.9910849325465454,9.3376202040317
237.0,61.7743878766641,26.180053682213174,0.9912841017568049,9.379311485989508
238.0,61.772206101245004,26.207119177549476,0.9914786519546119,9.42123014078347
239.0,61.77175167194227,26.235591138035613,0.9916686364200931,9.463367864713684
240.0,61.77296333128576,26.26546366175513,0.9918541179401966,9.505715438299713
241.0,61.77580337474304,26.29673543121562,0.9920351600699717,9.548263545481941
242.0,61.7802340977817,26.32940512892466,0.9922118263644674,9.591002870200752
243.0,61.78621779586929,26.36347143738984,0.9923841803787325,9.633924096396528
244.0,61.793716764473395,26.39893303911875,0.9925522856678163,9.677017908009654
245.0,61.80269237384142,26.435788421129182,0.9927162057927189,9.720274991581974
246.0,61.813024227207045,26.474016747331756,0.9928760061943446,9.763685921484875
247.0,61.824619370827286,26.513596457633295,0.9930317564521922,9.807240104717152
248.0,61.83743776055797,26.55451588969926,0.9931835266532549,9.85092658530895
249.0,61.85143935225491,26.596763381195128,0.9933313868845257,9.894734407290406
250.0,61.86658410177394,26.64032726978636,0.9934754072329978,9.938652614691668
251.0,61.882831964970876,26.685195893138427,0.9936156577856641,9.982670251542878
252.0,61.900142897701556,26.731357588916797,0.9937522086295179,10.026776361874177
