Time,J,A,S,tau
0.0,100.0,100.0,0.987967619679315,9.00900900900901
1.0,99.64846489210501,98.4849625067079,0.9860994074292105,8.795916296079193
2.0,99.26779184725343,96.9338233942727,0.9839619103957082,8.562387999512627
3.0,98.85637385387061,95.34874458747908,0.9815362113281925,8.308487986403984
4.0,98.41209818572743,93.73033048262965,0.9787998356806904,8.033999430937977
5.0,97.93274323498734,92.07934021393639,0.9757289530790577,7.7387130476994335
6.0,97.41600925739642,90.3966210453417,0.9722987731656461,7.422424968043899
7.0,96.8595235963871,88.68316325241221,0.9684835215592337,7.084938056936256
8.0,96.26083612963114,86.94008678630881,0.9661844883069267,6.950689289191099
9.0,95.61743720903272,85.16864201543424,0.9638757619035749,6.833567997105237
10.0,94.92676212288448,83.37020737708569,0.9614335545681205,6.719378971663973
11.0,94.18621969706159,81.54630483398002,0.9588528123121024,6.608067922372512
12.0,93.39318768571052,79.69857300069734,0.9561285806802639,6.499581441829769
13.0,92.54506538848119,77.82879248131528,0.9532559773861538,6.393865498347537
14.0,91.63925908215612,75.9388696594775,0.9502303089547516,6.290867231398097
15.0,90.67324339888943,74.03083214932538,0.947046999467981,6.190533381349764
16.0,89.64456331094355,72.1068388273764,0.9437017648887388,6.092811949642348
17.0,88.55087937915113,70.16914722668375,0.9401904792280688,5.99765072247332
18.0,87.39001228813235,68.22014525323473,0.9365094277643699,5.904998799352335
19.0,86.15994447505518,66.26229544377983,0.9326550913130816,5.814805237892281
20.0,84.85893733807198,64.29818163688067,0.9286244913541601,5.727020425549331
21.0,83.48545978685387,62.3304387030072,0.9244148829419211,5.641594875327859
22.0,82.03841137094786,60.36180446871645,0.9200241913213134,5.558480411736858
23.0,80.51694935024553,58.39504665184731,0.9154506197976282,5.47762915130534
24.0,78.92085633877163,56.433008911852326,0.9106931583361424,5.398994469076025
25.0,77.25024066442435,54.47854871950181,0.9057511337159861,5.32253020244337
26.0,75.506094609408,52.5345686338011,0.9006247480888196,5.248191362394368
27.0,73.68987626776635,50.60398310725109,0.8953146456763951,5.1759336455132585
28.0,71.80417818891137,48.689726338125084,0.8898223281047639,5.10571372420027
29.0,69.85240014777827,46.794744723964435,0.8841498703682651,5.037489030864423
30.0,67.83938386153872,44.922060809781414,0.8783002652234726,4.971218159065364
31.0,65.7711789752377,43.07475316170813,0.8722771408821339,4.9068604001675356
32.0,63.655451342697965,41.25606127047379,0.8660849653288597,4.844376051660242
33.0,61.501591409128,39.46949764540105,0.8597290365884428,4.783726367401834
34.0,59.320566594103184,37.71894633750894,0.8532154231928086,4.7248734793593945
35.0,57.1248719520215,36.00886190268041,0.846551020681731,4.667780466094354
36.0,54.92812810763002,34.34445498369193,0.8397435305828577,4.612411333466577
37.0,52.744478474101406,32.73189346293088,0.8328014559487313,4.558731016977211
38.0,50.58771408129388,31.178447338694024,0.8257340812520352,4.506705371636673
39.0,48.47022178400316,29.69254398623882,0.8185514505993041,4.456301170648642
40.0,46.4019170361538,28.283645605807045,0.811264327519788,4.407486084898031
41.0,44.389217495827694,26.96196751372731,0.8038841756199283,4.360228695788122
42.0,42.43444545027584,25.73791531369348,0.7964231114297682,4.314498480621377
43.0,40.53576019413968,24.621286766905683,0.7888938587660597,4.270265804944725
44.0,38.687801632694566,23.620289994057238,0.7813096976697099,4.227501914210099
45.0,36.88299049007492,22.740507195465113,0.7736844073342128,4.1861789225470005
46.0,35.11335825043279,21.983941877194646,0.7660322114900048,4.146269812096052
47.0,33.372386550974646,21.348453741589765,0.7583677106308733,4.107748414431696
48.0,31.656485100266597,20.827638992840075,0.7507058179978627,4.070589400886965
49.0,29.965786137169875,20.41121715235033,0.7430616912855564,4.034768279083721
50.0,28.304179329686438,20.086029885586022,0.7354506651710986,4.000261376843546
51.0,26.67855762466887,19.837269463254923,0.7278881813310206,3.967045834279687
52.0,25.09765875986676,19.649797747681106,0.7203897196177448,3.9350995934442885
53.0,23.57080017191449,19.50929356565157,0.7129707301266728,3.904401389889415
54.0,22.106771864906765,19.40304924408173,0.7056465663359814,3.874930739097321
55.0,20.713063193362775,19.320388968765382,0.6984324209313053,3.8466679258696406
56.0,19.395423682358985,19.252765487559305,0.6913432632457661,3.8195939962514234
57.0,18.157763214861202,19.19361640583313,0.6843937819505042,3.7936907477117776
58.0,17.00222098990105,19.138079329635683,0.6775983302453745,3.7689407173208447
59.0,15.929360340489609,19.082672952626602,0.6709708749887692,3.745327172814028
60.0,14.938400267913437,19.02498868645596,0.664524953125731,3.7228340995502753
61.0,14.027531225403173,18.963428927179894,0.658273634022989,3.7014461889364756
62.0,13.194152227486198,18.89701038082544,0.6522294532437197,3.6811488617581642
63.0,12.434952823572845,18.825177599182037,0.6464044359969114,3.661928192351593
64.0,11.746112508340689,18.747723119228898,0.640810023447443,3.643770958655311
65.0,11.123540077554026,18.664685838179196,0.6354570702307033,3.626664608308164
66.0,10.56299362499026,18.576294353378653,0.6303558194593071,3.6105972564195303
67.0,10.060062637140673,18.482933726402244,0.6255158961947467,3.595557674273813
68.0,9.61037492035261,18.38510612763496,0.6209462932797074,3.5815352824542837
69.0,9.209630607627501,18.283410066355312,0.6166553665285563,3.568520142848808
70.0,8.8536611050333,18.178521824183253,0.6126508319690048,3.5565029510998136
71.0,8.538475944651186,18.071180013787263,0.6089397659141258,3.5454750292888844
72.0,8.260298130611016,17.96217254888493,0.605528607418696,3.5354283188852786
73.0,8.015589170228859,17.852325224671773,0.6024231626868901,3.5263553739597433
74.0,7.801064834840022,17.742491522723043,0.5996286109995302,3.5182493546640137
75.0,7.613702737411083,17.633543399087692,0.5971495117389103,3.5111040209755564
76.0,7.450742851799777,17.52636288768576,0.5949898121072992,3.504913726706317
77.0,7.3096820936845175,17.421834406028033,0.5931528551601545,3.4996734137734458
78.0,7.18826406032764,17.320837679009102,0.5916413878050558,3.495378606728026
79.0,7.084457847975771,17.224241645352667,0.5904575699994563,3.4920254076692787
80.0,6.996464223075542,17.132896969962104,0.5896029772393132,3.489610490709396
81.0,6.922664512519662,17.047632368087438,0.5890786135041788,3.48813109757323
82.0,6.861631958650408,16.969247676442333,0.5888849075534341,3.4875850344651536
83.0,6.81208068276753,16.898510206373132,0.589021727022767,3.48797066537017
84.0,6.7728636342227375,16.836148959544314,0.5894883713808267,3.4892869131577204
85.0,6.74294380354315,16.78285049471657,0.590283585493406,3.491533245779107
86.0,6.72137088722432,16.739254246413683,0.5914055574940645,3.4947096768771484
87.0,6.707298212180935,16.705947914474862,0.5928518926805455,3.4988167734032034
88.0,6.699890809036522,16.68346116291415,0.5946196475765169,3.5038556437899353
89.0,6.698346138785915,16.672261619561446,0.5967053279733936,3.50982792306489
90.0,6.70193457546219,16.672753309129785,0.5991048463774495,3.5167357832625443
91.0,6.709873974363267,16.685260611716743,0.6018135450742071,3.5245819492156074
92.0,6.721377395905776,16.710031166183715,0.6048262219721303,3.533369647634537
93.0,6.735672133970076,16.747229726909215,0.6081370706473518,3.5431026421506044
94.0,6.751913858619656,16.796919452936642,0.6117397034864313,3.553785240564387
95.0,6.769225230481672,16.85906716423443,0.61562718350154,3.5654222460796277
96.0,6.786712388974131,16.933534294509137,0.619791971472435,3.5780189913554117
97.0,6.803406018051645,17.020056808216093,0.6242259460680217,3.5915813475046963
98.0,6.818300300624037,17.11825380304265,0.6289204442444872,3.6061156753363783
99.0,6.830370095500931,17.227616049678804,0.6338662201686487,3.621628858538321
100.0,6.838542291454596,17.347489519373227,0.6390534656411317,3.6381283139028877
101.0,6.841736536382867,17.477088999748226,0.6444718603530365,3.655621942537102
102.0,6.838885157526631,17.615487124152054,0.650110547205658,3.6741181622779697
103.0,6.8289371606910185,17.7616084354373,0.6559581564033123,3.6936259185900515
104.0,6.810897667605526,17.914250076735954,0.6620028650241202,3.7141546356964366
105.0,6.783847916716272,18.07207652186794,0.6682323924625624,3.7357142483088044
106.0,6.746978388759155,18.23363129143558,0.6746340309743847,3.7583152125997996
107.0,6.699617489013834,18.39736518890715,0.6811947119365547,3.7819684572061862
108.0,6.641241654060558,18.56164216272313,0.6879010234858127,3.8066854143388094
109.0,6.57152527380975,18.72477210616477,0.6947392491400541,3.832478030180866
110.0,6.490345507042797,18.885042815503844,0.7016954361447616,3.8593587157181743
111.0,6.397768368450939,19.040738691588427,0.708755435180198,3.8873403772793744
112.0,6.294098290892596,19.190189975736043,0.7159049471367886,3.9164364256513347
113.0,6.179851396921132,19.331799216094716,0.7231295874679703,3.946660726699334
114.0,6.055709474817756,19.46406758922937,0.7304149454459993,3.97802763137613
115.0,5.922556062141065,19.58564729292221,0.7377466385129139,4.01055198419031
116.0,5.7814145971201505,19.695347733182857,0.7451103673329509,4.04424907057339
117.0,5.6334292113487505,19.79217178134137,0.752491979400293,4.079134650056698
118.0,5.479812865891727,19.875329422248694,0.7598775339653453,4.115224944551688
119.0,5.3218295332669925,19.9442512761149,0.7672533544195084,4.152536628387975
120.0,5.160751257107502,19.99858954716394,0.7746060844394488,4.191086819227364
121.0,4.997826146941778,20.03821534712814,0.7819227408223614,4.2308930713611295
122.0,4.834245764849309,20.063210876792624,0.7891907691897204,4.27197337224934
123.0,4.6711277962455116,20.073858355406028,0.7963980969149984,4.31434613811415
124.0,4.509502579107782,20.070618579755802,0.8035331698870537,4.358030197432439
125.0,4.350296971632967,20.054108166495006,0.8105849926715349,4.403044781490928
126.0,4.1943278827081345,20.02507655958921,0.8175431641625133,4.44940951485241
127.0,4.042297305228547,19.984382269842715,0.8243979186158973,4.497144411450232
128.0,3.8948015566734413,19.932968654305224,0.8311401499663006,4.546269859266163
129.0,3.7523352827019125,19.871838821498272,0.8377614246357539,4.596806602288251
130.0,3.615298159757219,19.802034544520023,0.8442540010252534,4.648775728263169
131.0,3.4840006043320844,19.72461674210995,0.8506108311138966,4.702198655293044
132.0,3.3586740219142275,19.640648384842702,0.8568256200103928,4.757097141836865
133.0,3.2394916104754525,19.551180126841786,0.8628927395529233,4.813493207181676
134.0,3.126559946335519,19.457238975695738,0.8688072955795987,4.871409202415282
135.0,3.0199460872242403,19.359815882404547,0.8745651138301896,4.930867713742781
136.0,2.919676919855851,19.25986637159087,0.8801626376053437,4.991891567463736
137.0,2.8257482339375577,19.15829340813686,0.8855970884328074,5.054503857713208
138.0,2.7381332467090025,19.055957519260737,0.8908662220542668,5.11872780390637
139.0,2.6567902620687387,18.95366304178606,0.8959685452446569,5.184586923485693
140.0,2.5816629536991758,18.85216669408175,0.9009030618506583,5.252104764048344
141.0,2.5126948183781455,18.75217366967662,0.9056694219236436,5.321305128198793
142.0,2.4498208179819283,18.654337335630032,0.9102677804146657,5.392211797538264
143.0,2.392988833497719,18.55926802769945,0.9146988328476561,5.464848788718603
144.0,2.3421417211966435,18.467526422977304,0.9189637240958711,5.539239995538611
145.0,2.297243566003365,18.379636141888213,0.9230640640466595,5.61540950709384
146.0,2.258258491440471,18.296076379831753,0.9270018499099655,5.693381200762722
147.0,2.2251844057402383,18.21729510656632,0.9307794995004642,5.773179173460313
148.0,2.1980155496634297,18.143706431229248,0.9343996855437814,5.854827151545159
149.0,2.1767916944066927,18.07569432216549,0.9378654893989429,5.938349033924595
150.0,2.161553610212854,18.01362060158038,0.9411801543856911,6.02376834723833
151.0,2.1523856686147935,17.95782192335511,0.9443472412012353,6.111108578753122
152.0,2.1493854919332227,17.908617908615636,0.947370453792997,6.200392842202979
153.0,2.1526990957424292,17.866313339532777,0.9502537178195806,6.291644174691629
154.0,2.1624923638662477,17.831200577281376,0.9530010638970033,6.384885144562541
155.0,2.178972201303702,17.803563738777317,0.9556166501400478,6.480138042395886
156.0,2.202387093041414,17.783681411585437,0.958104724920363,6.57742474728594
157.0,2.2330235021809375,17.771829854720668,0.9604695920834995,6.676766674726567
158.0,2.2712155359764763,17.76828651420544,0.9627156008933936,6.778184828519054
159.0,2.3173423636383292,17.773332089387555,0.9648471143874846,6.881699608739634
160.0,2.3718332609097486,17.787254010996083,0.9668684941694166,6.98733085060676
161.0,2.4351693062049193,17.810348950747926,0.9687840818703375,7.095097759408287
162.0,2.5078855000032876,17.84292550317862,0.9705981832180719,7.205018861378033
163.0,2.5905737838108767,17.88530690894322,0.9723150534212492,7.317111958818483
164.0,2.6838847955884133,17.937833702209275,0.9739388825806001,7.431394059857871
165.0,2.7885260265584417,18.00086539402834,0.9754737856797652,7.547881325554688
166.0,2.905265357945946,18.074783308727294,0.9769237920092325,7.666589026936227
167.0,3.0349300484993242,18.159992507763207,0.9782928368118166,7.787531489463904
168.0,3.1784057444360094,18.25692373042151,0.9795847538665277,7.910722035901053
169.0,3.336634545150828,18.36603516394267,0.9808032694222256,8.036172930804904
170.0,3.51061198774137,18.487814007654727,0.9819519972807439,8.163895324616998
171.0,3.7013828195201413,18.622777819901128,0.9830344349445469,8.293899197437439
172.0,3.910035456039327,18.77147562224057,0.9840539607443336,8.426193302570836
173.0,4.137695113403237,18.934488712754593,0.9850138318549074,8.560785110331153
174.0,4.385515448961391,19.11243119640054,0.9859171830849384,8.697680750882089
175.0,4.6546686331127445,19.305950124147326,0.9867670264891045,8.83688495637527
176.0,4.946334218937646,19.515725295321037,0.9875662516324127,8.978401005676973
177.0,5.2616866358122385,19.742468656445297,0.9883176264159974,9.122230668186589
178.0,5.601881500632078,19.986923277279775,0.9890237984204358,9.26837414795355
179.0,5.968040934278309,20.249861881025403,0.9896872967018003,9.41683002821934
180.0,6.361238112130442,20.532084877314087,0.9903105341151334,9.567595216861648
181.0,6.782480815499622,20.83441809324201,0.9908958091614931,9.720664881678761
182.0,7.2326966895245315,21.1577096719482,0.9914453101174994,9.876032424152763
183.0,7.712716165902077,21.5028268201669,0.9919611175409321,10.033689401395302
184.0,8.22325748701764,21.87065231700639,0.9924452062010367,10.1936254952246
185.0,8.764906968391596,22.26207982802893,0.9928994480937905,10.35582838757559
186.0,9.338116613265283,22.67800928922478,0.9933256224634079,10.520283839580449
187.0,9.943181432565304,23.119342563446914,0.9937254092370761,10.686975604242312
188.0,10.580222828257174,23.586976802896192,0.9941003978538178,10.855885130799354
189.0,11.249206560527332,24.081801085829717,0.994452095288403,11.026992152652328
190.0,11.949890917775695,24.604687478657873,0.994781917982561,11.200273706116427
191.0,12.681874962140006,25.15649029176976,0.9950912119425637,11.375705169547377
192.0,13.444530941307626,25.73803268010003,0.9953812354246376,11.553259041503305
193.0,14.237075368400923,26.350111797175238,0.9956531873274845,11.732906173808438
194.0,15.058485785821063,26.993478453285785,0.9959081826867839,11.914614386102352
195.0,15.907586756809412,27.66884907480835,0.9961472847145787,12.098349798633292
196.0,16.782980771967697,28.376884462536516,0.9963714837395549,12.284075582873285
197.0,17.683102621261295,29.118196926115967,0.9965817164322969,12.471752679230217
198.0,18.60619689835604,29.89333960613505,0.996778861702369,12.661339596453999
199.0,19.550329235516788,30.702801339859253,0.9969637429279508,12.852792121699991
200.0,20.513414592148496,31.547011564319348,0.9971371372844912,13.046063712712767
201.0,21.49319602973868,32.426326405514345,0.9972997709428502,13.241105158260682
202.0,22.48728028678821,33.341032249008336,0.997452325547538,13.437864555431759
203.0,23.493147874868786,34.29134727086718,0.9975954428660461,13.636287596456183
204.0,24.508149126017397,35.277408332117304,0.9977297210004488,13.836317108166462
205.0,25.52954620137356,36.29928164712318,0.9978557225540913,14.037893306766545
206.0,26.554511104442987,37.356958303073625,0.997973975183481,14.24095385804094
207.0,27.580148525728326,38.45034755618759,0.9980849706267662,14.44543346556122
208.0,28.603524533508782,39.579289052410246,0.9981891718548386,14.651264293904815
209.0,29.621670621925883,40.743543872643414,0.998287011267094,14.858375759296942
210.0,30.631622016324073,41.94279625947917,0.9983788926575395,15.06669434418367
211.0,31.630429010129745,43.17666298695257,0.9984651959277824,15.276144001005607
212.0,32.61518097745666,44.44468272824499,0.9985462747054931,15.486645744857086
213.0,33.58303749794215,45.746325730273306,0.9986224602071584,15.698117765991437
214.0,34.531233469071374,47.08099722573378,0.9986940633541425,15.910475661192555
215.0,35.45712120468466,48.44802989305654,0.9987613731309116,16.123631967674516
216.0,36.35817806421209,49.846696997891996,0.9988246609375099,16.33749653115731
217.0,37.23202175370249,51.276210240981946,0.9988841806469423,16.551976467514333
218.0,38.076450988237305,52.73571880340858,0.9989401685166249,16.766975836707754
219.0,38.88943148589499,54.2243211989218,0.9989928467409949,16.982396101441616
220.0,39.66913284126387,55.74105885489514,0.9990424221088687,17.198135793731907
221.0,40.41393891894415,57.2849249809918,0.9990890880196687,17.414090532830137
222.0,41.1224290976045,58.85486869907187,0.9991330260839196,17.630153418383944
223.0,41.793446043454466,60.44979176120316,0.9991744045032763,17.84621423145828
224.0,42.42601226188587,62.068563169186255,0.9992133825063558,18.062160584529536
225.0,43.01943619295037,63.710011217001636,0.9992501069336347,18.27787658339738
226.0,43.573236499384805,65.37293445047348,0.9992847157159669,18.493243872358622
227.0,43.60992526469653,65.67230714230901,0.9993173387478226,18.708141493426965
228.0,41.8147384421177,61.048671910140904,0.9993480965443515,18.922445434864652
229.0,40.0018538594115,56.889425065946476,0.9993771019452848,19.13602898444509
230.0,38.172525083197634,53.14828399632334,0.9994044604589296,19.348762681956256
231.0,36.328014844075625,49.78348863817978,0.9994302707009682,19.560514318916876
232.0,34.46959019307621,46.75732970902075,0.9994546248971046,19.771148979923733
233.0,32.59851772787226,44.03575429034041,0.9994776092607716,19.98052904685387
234.0,30.716058746921842,41.58806789926431,0.9994993044026064,20.18851423052102
235.0,28.823464544494556,39.38652400596274,0.9995197857131587,20.394961609150837
236.0,26.921971534169824,37.40612903606724,0.9995391236654569,20.59972563818571
237.0,25.012796689657954,35.62433095514643,0.9995573841679155,20.802658204441233
238.0,23.09713304060799,34.02077377489977,0.9995746288606474,21.003608667662238
239.0,21.17614509505173,32.57709985798974,0.9995909153719997,21.202423892924823
240.0,19.25096455731292,31.27678684706926,0.9996062975863791,21.398948303498262
241.0,17.3226862976492,30.104938262510537,0.9996208258920618,21.593023943267376
242.0,15.392364435581042,29.048130213418215,0.9996345474043722,21.784490538861245
243.0,13.461008454714205,28.094291364097053,0.9996475061646488,21.97318555881308
244.0,11.529579752323325,27.232559275356664,0.9996597433400618,22.158944294750043
245.0,9.598988314310827,26.45317186099213,0.999671297404509,22.341599944117718
246.0,7.670089604958821,25.74736214001442,0.9996822043038032,22.52098370015711
247.0,5.743681782405431,25.107270573322122,0.999692497615592,22.69692485370949
248.0,3.820503138425795,24.525847034936017,0.9997022086941038,22.869250907664686
249.0,1.9012292985282282,23.996790040780624,0.9997113667917208,23.037787683502323
250.0,0.009782690551222733,23.491194824290428,0.999719999205499,23.202359468127817
