Time,J,A,S,tau
0.0,100.0,100.0,0.893215943878429,10.309278350515463
1.0,97.6267080515807,92.160774756922,0.8849393419416032,9.965982300729156
2.0,95.18629499562493,84.92047541840623,0.8758644068803425,9.595938068848941
3.0,92.68234392988056,78.23738491033757,0.8659741684759465,9.19900610562574
4.0,90.1176507212793,72.06959493311682,0.8552491056592754,8.774844921797294
5.0,87.49557251657212,66.37828391189389,0.8436728456998958,8.323121010264076
6.0,84.82021857912966,61.12748927695708,0.8312325904017261,7.843509448117122
7.0,82.0969094334642,56.2838911937673,0.8179195517002807,7.335694520778699
8.0,79.33314244376149,51.81666002997354,0.810417620509146,7.105409233198084
9.0,76.54027484552321,47.69712092108865,0.8046202288044761,6.962265989765481
10.0,73.73616200296875,43.89884852585785,0.7987283348004593,6.823407335752453
11.0,70.94819843747791,40.39739275765659,0.7927453285657924,6.688718643121921
12.0,68.21604512792563,37.17024530481365,0.786674859535502,6.558087828552137
13.0,65.59259447196551,34.19704056831171,0.7805208340124616,6.4314053922090055
14.0,63.1415036366801,31.460285279729337,0.7742874128088018,6.308564460422686
15.0,60.929972179689784,28.946842589663618,0.7679790016219548,6.189460750126352
16.0,59.016739065570434,26.65056774120329,0.7616002471293626,6.073992602499482
17.0,57.43667888869589,24.575534499018065,0.7551560287658654,5.962060972775739
18.0,56.18527067725623,22.738846070283433,0.7486514519818502,5.8535694373981935
19.0,55.207883215384825,21.171058544435418,0.7420918338275254,5.748424139109261
20.0,54.40042231211069,19.91286401355738,0.7354826938777862,5.646533781823415
21.0,53.6238722679454,19.007416999737924,0.7288297429744177,5.547809612585965
22.0,52.731371196946604,18.48904417254279,0.7221388700268644,5.452165389327094
23.0,51.5998386303904,18.370630795743264,0.7154161278340149,5.35951734597292
24.0,50.15590786667278,18.633268752635935,0.7086677186594215,5.269784158227438
25.0,48.38797823553882,19.22259065535594,0.7018999785732243,5.182886903352884
26.0,46.34169345251477,20.055095610895144,0.695119361897179,5.09874902428311
27.0,44.10161090032847,21.033651614118387,0.6883324243189253,5.017296285636775
28.0,41.76721592914444,22.065890237564723,0.6815458065167197,4.938456735667034
29.0,39.43217900422319,23.077898864695094,0.6747662164960871,4.862160658971434
30.0,37.1717191796378,24.019929527027873,0.6680004122576496,4.788340534345982
31.0,35.03759092602353,24.8657404990226,0.6612551846684757,4.716930992336685
32.0,33.05835907811002,25.608506029799763,0.6545373384709621,4.647868763934821
33.0,31.243013166183896,26.255158637421793,0.6478536777694842,4.581092652593887
34.0,29.58661280515643,26.820347990616717,0.641210986594901,4.516543469290417
35.0,28.076018810597645,27.32127600179295,0.6346160114256525,4.454163993560295
36.0,26.694804075311172,27.77394013849116,0.6280754457453891,4.393898935824868
37.0,25.42669023720589,28.19101635536898,0.6215959141313296,4.335694889762278
38.0,24.257447028145684,28.581119925288974,0.615183956649633,4.27950028698768
39.0,23.175548374494085,28.94903585751121,0.6088460142018779,4.225265354320066
40.0,22.171983005256205,29.29649580423566,0.6025884137259635,4.172942069298026
41.0,21.239700489694346,29.62311941325044,0.5964173564168687,4.122484127380241
42.0,20.372942444538108,29.927292568381628,0.5903389059133649,4.073846897923801
43.0,19.566638319725296,30.206846164361128,0.584358974526165,4.026987375326737
44.0,18.816128311504414,30.45947839962499,0.5784833167430726,3.981864155272696
45.0,18.11689832095531,30.68302399984158,0.5727175164709218,3.938437384841684
46.0,17.464548053360694,30.87557011363267,0.5670669801869078,3.896668728630572
47.0,16.854806778110106,31.035501669784523,0.5615369298051145,3.856521332572002
48.0,16.283580669794777,31.16151061614641,0.5561323965794517,3.8179597886654344
49.0,15.747006025461134,31.25259163023015,0.5508582160523532,3.780950100690423
50.0,15.24149145402344,31.30803572125193,0.5457190241184251,3.7454596498370223
51.0,14.76374416188287,31.32742739758256,0.540719253037238,3.7114571667079974
52.0,14.31082520750124,31.31062605645904,0.5358631321980162,3.6789126907451424
53.0,13.880108171041847,31.257775492979476,0.531154684616508,3.647797545429523
54.0,13.469357023998699,31.169280423366285,0.5265977255883831,3.6180843228491804
55.0,13.076592625938984,31.045827577801514,0.5221958621805713,3.5897468495603277
56.0,12.699998359237801,30.888367467368326,0.5179525097115641,3.562760084031387
57.0,12.338647885518002,30.697977770941435,0.5138708622688578,3.537100281003363
58.0,11.99107423905278,30.476109067226556,0.509953931170019,3.512744732155511
59.0,11.656815617576179,30.22424934523812,0.5062045261928383,3.489671892167777
60.0,11.334982004822077,29.944212417783355,0.5026252576516307,3.4678613530095883
61.0,11.025074065586569,29.637900626085507,0.4992185655578017,3.4472936941999617
62.0,10.726968077223162,29.30732793621344,0.4959866859005502,3.4279506514653413
63.0,10.44023348929332,28.954685569761416,0.4929316896753193,3.409814947517921
64.0,10.16496476408536,28.582170824948307,0.49005547530261867,3.3928702906854036
65.0,9.901122281328558,28.192090475032877,0.48735975980655644,3.377101474452723
66.0,9.648596435779178,27.786795819969267,0.48484611656644117,3.3624941824211385
67.0,9.407715485931048,27.36860411900186,0.4825159458394104,3.3490351028057863
68.0,9.178423728726404,26.939885113343756,0.4803705000603198,3.336711897248076
69.0,8.960863211561861,26.50295921082009,0.4784108943988846,3.325513078628017
70.0,8.755306255790595,26.060099026617685,0.4766380830547502,3.3154281639447323
71.0,8.56170244098274,25.613554107613876,0.47505290003942297,3.3064475314017985
72.0,8.380357705278925,25.165478086082178,0.47365603880771096,3.298562421520453
73.0,8.211360867001117,24.717965153325956,0.4724480583245256,3.291765030796264
74.0,8.054751269859418,24.27302818411677,0.47142940768439884,3.286048342249371
75.0,7.91082668468936,23.832578635730446,0.47060039581757945,3.281406233213463
76.0,7.779587764677477,23.398444573775354,0.4699612224706227,3.2778334503664537
77.0,7.661194511962493,22.972357063701896,0.4695119743182202,3.2753255049901093
78.0,7.555851043503643,22.55595137361747,0.4692526074658005,3.2738788172683253
79.0,7.463591871239544,22.1507659831761,0.4691829820570556,3.2734905871833324
80.0,7.38468475489926,21.75825878992658,0.46930283448493165,3.274158804841679
81.0,7.319271531602773,21.37979266406928,0.46961178760649713,3.2758823374631665
82.0,7.267519300587676,21.016647384915473,0.4701093646461358,3.2786607769271696
83.0,7.2297486002145215,20.67004677116664,0.47079495809779304,3.2824945498930975
84.0,7.206163567660301,20.34112352972286,0.47166785773721603,3.287384890634301
85.0,7.197098219806197,20.0309659326581,0.47272723979971404,3.293333752770703
86.0,7.202930832125956,19.74061823614606,0.47397214925728365,3.3003439504260195
87.0,7.224019970207252,19.47105485428749,0.4754015278245329,3.3084190323726252
88.0,7.260866255308145,19.22325474788299,0.47701418455987593,3.3175633071853623
89.0,7.313960137088011,18.998147678834854,0.4788088015646058,3.3277819210167077
90.0,7.383858244319617,18.79663995885706,0.48078394488138004,3.3390807162247915
91.0,7.471208257780651,18.619671694049668,0.48293803220365733,3.3514663504787916
92.0,7.5766660740184255,18.468134954072994,0.4852693546228464,3.3649462589729486
93.0,7.700969151736852,18.342956991013104,0.48777606787073136,3.379528583581902
94.0,7.844887518902154,18.245090190202433,0.4904561701187609,3.3952223127176753
95.0,8.00922053729013,18.175459306601255,0.493307527401925,3.4120371503658444
96.0,8.194791704083247,18.13507201825179,0.49632784837006483,3.429983561629925
97.0,8.402405971287092,18.124916831191264,0.4995146820354972,3.449072835708228
98.0,8.632854628476624,18.145993868505233,0.5028654336922679,3.4693169528325893
99.0,8.88682243737864,18.199375312991023,0.5063773335533158,3.490728716647439
100.0,9.164896004509739,18.286063594381925,0.5100474529572344,3.5133216963516776
101.0,9.467479413507405,18.407099644769755,0.5138727052373693,3.5371101771879063
102.0,9.794667719192164,18.563489167165063,0.5178498199875992,3.5621092959126703
103.0,10.146278863457363,18.756122601999543,0.5219753698256878,3.588334898943288
104.0,10.521571461476613,18.985886728741846,0.5262457535073352,3.6158036247538727
105.0,10.919305146945533,19.25342062030652,0.5306571972493893,3.6445328896766753
106.0,11.337487398964248,19.559180242488026,0.5352057575451209,3.674540881427566
107.0,11.773263810364666,19.903349525262716,0.5398873239531031,3.7058465534361673
108.0,12.222781420201029,20.28572000063171,0.5446976160168676,3.7384696424325536
109.0,12.681042805153563,20.70561662596511,0.5496321894583198,3.77243065793111
110.0,13.141812778907434,21.1617800935433,0.5546864393127082,3.8077508829652498
111.0,13.597578822781898,21.652234697958463,0.5598556027811117,3.8444523755102056
112.0,14.039560882948559,22.174173684037747,0.5651347658851772,3.8825579659901064
113.0,14.45784258201333,22.72383210744198,0.5705188690331716,3.922091255996663
114.0,14.841620486438897,23.296375702568508,0.5760027136832299,3.9630766163560374
115.0,15.179588515648366,23.885813494464156,0.5815809699476253,4.005539186026853
116.0,15.460462783089373,24.484953627990024,0.5872481855304662,4.049504868287881
117.0,15.673631196372373,25.08541487174257,0.5929987950029164,4.09500032612428
118.0,15.809878313276974,25.677709920509667,0.5988271298858836,4.1420529776244654
119.0,15.8621248965446,26.251414216867325,0.6047274294085385,4.190690990476249
120.0,15.826109111494072,26.795429210153628,0.6106938516592371,4.240943275909215
121.0,15.70088471879877,27.298336218440763,0.6167204862313285,4.292839482877893
122.0,15.489081664779548,27.748833718742706,0.6228013668666109,4.346409988245343
123.0,15.196870762095687,28.13622840582408,0.6289304845371233,4.401685887137458
124.0,14.83361598965848,28.450945413077033,0.6351018009924032,4.458698982364885
125.0,14.411240294219706,28.685012739893313,0.6413092628847495,4.517481773489479
126.0,13.943443530165617,28.832494840355206,0.6475468147127678,4.5780674417962
127.0,13.444678663778983,28.88976601141854,0.653808415277526,4.64048983900614
128.0,12.929311546310739,28.855680615335924,0.6600880501614832,4.704783465948783
129.0,12.41077026889412,28.731573633084864,0.6663797475129274,4.770983461864734
130.0,11.900937474802674,28.521084182270403,0.6726775921106002,4.83912558105579
131.0,11.409791189419328,28.229881929855168,0.6789757383539086,4.9092461699155345
132.0,10.945184481522999,27.865272658439423,0.6852684257293695,4.981382150006851
133.0,10.512886291768183,27.435753363259693,0.6915499914867991,5.055570989530537
134.0,10.11673880255255,26.950565108003136,0.6978148839211151,5.13185067837652
135.0,9.7589024405157,26.419264012034585,0.7040576759505308,5.2102597037236595
136.0,9.440180346320759,25.85135378382938,0.7102730756101373,5.290837013755976
137.0,9.160312202114778,25.255978736090306,0.7164559382069552,5.373621988332934
138.0,8.918261711542703,24.641694975322693,0.7226012770056484,5.458654404615189
139.0,8.71246655939982,24.016314478745166,0.7287042731914743,5.545974400648566
140.0,8.54104409786722,23.38681455969252,0.7347602848996971,5.6356224362979095
141.0,8.40195259881817,22.759299764526105,0.7407648555082306,5.727639250981925
142.0,8.293114667517255,22.139009186243005,0.7467137221574943,5.822065828038829
143.0,8.212503288370614,21.530351001627448,0.752602820920255,5.918943340996087
144.0,8.158196562788815,20.936957545491822,0.7584282922273246,6.018313103435223
145.0,8.128429398311669,20.361759105034324,0.7641864879747209,6.120216535463307
146.0,8.121595873465745,19.80705283975124,0.7698739716965558,6.224695089242375
147.0,8.136286498437995,19.274583302994678,0.7754875261904104,6.331790219074404
148.0,8.171272749820318,18.765611142533174,0.7810241533492907,6.441543305069663
149.0,8.225476680592042,18.28097986295803,0.7864810700577058,6.553995571394518
150.0,8.298017477957632,17.821200369871146,0.791855708103604,6.669188085375376
151.0,8.388295224255806,17.3864930215588,0.7971457501524775,6.7871617119376335
152.0,8.495648346360555,16.97681249785549,0.8023490461749505,6.907956850023252
153.0,8.619931089667803,16.591989482534682,0.8074637220869754,7.031613783639975
154.0,8.760774205374073,16.2316115951599,0.8124880636230079,7.158172018727933
155.0,8.918246646618789,15.8952249454025,0.817420593493103,7.287670821463923
156.0,9.092408121693598,15.582233197150563,0.8222600393322494,7.420148635096554
157.0,9.283473168032687,15.291991896586682,0.827005305906503,7.555643328722828
158.0,9.491963760844829,15.023849939912214,0.8316555335653781,7.694192098726838
159.0,9.71834070810183,14.777082891135633,0.8362100156149243,7.8358311565338195
160.0,9.963287150326783,14.550979180713467,0.8406682387053921,7.98059589224202
161.0,10.227657505943924,14.344840649187624,0.8450298750263611,8.128520709407528
162.0,10.512381407411343,14.157967877511844,0.8492947569758855,8.27963887113554
163.0,10.818535880209353,13.989692630010467,0.8534628769273973,8.433982544007588
164.0,11.147386679326354,13.839393161008552,0.8575343924207055,8.591582705015558
165.0,11.500259383802922,13.706466841734473,0.8615096019340921,8.752468898281883
166.0,11.87859509818938,13.59035034949868,0.8653889385307035,8.916669296658073
167.0,12.284014327454846,13.490539995372853,0.8691729741525431,9.08421067439598
168.0,12.718212345344327,13.40656659755464,0.8728624034867228,9.255118114788024
169.0,13.182961550693543,13.338001064909802,0.876458030980436,9.429415039402967
170.0,13.680170586897711,13.284470390297969,0.8799607714146732,9.607123223013591
171.0,14.211852686335266,13.245649986572646,0.8833716440653424,9.788262555278513
172.0,14.780050356039675,13.221247279782995,0.8866917540114201,9.97285094749233
173.0,15.386893757872182,13.211014171954869,0.8899222904828964,10.160904403166105
174.0,16.03462289853711,13.214755929730917,0.8930645260937164,10.352436876340784
175.0,16.725469688888463,13.232301095178398,0.8961197985771262,10.547460036820725
176.0,17.46169811769676,13.263510980605028,0.8990895065433333,10.74598338486881
177.0,18.245649705940465,13.30829340168665,0.9019751095036938,10.948014200718772
178.0,19.079635484596174,13.366575128337994,0.9047781145994882,11.15355723040216
179.0,19.965932379141318,13.4383030821046,0.9075000692806954,11.362614784378163
180.0,20.90682844486541,13.523454042563333,0.9101425604220815,11.57518675644149
181.0,21.904567753766205,13.622027190024749,0.9127072074792613,11.791270347434509
182.0,22.96128038006633,13.734024600928917,0.915195652105632,12.010860041396414
183.0,24.079024353709208,13.859464370275047,0.9176095571994122,12.233947703370411
184.0,25.259782772333054,13.998385132410988,0.9199506038699536,12.460522405814254
185.0,26.5053429643916,14.150816510815664,0.9222204807160793,12.69057024308393
186.0,27.817316808756022,14.316786791705976,0.9244208819143984,12.924074464447994
187.0,29.19722009327959,14.496348532696599,0.9265535086762536,13.161015527517398
188.0,30.646244323475404,14.689528542543433,0.9286200555175413,13.401370520784983
189.0,32.16538073096229,14.896348722241926,0.9306222135876356,13.645113894255672
190.0,33.755393670677215,15.116853321875203,0.9325616675680133,13.892216647794125
191.0,35.41661057895888,15.351013563485038,0.9344400848154072,14.142646869123297
192.0,37.14923167843783,15.59888074651434,0.936259125713232,14.396369230043003
193.0,38.95287939203356,15.860355197311982,0.9380204269350156,14.65334579703064
194.0,40.826803778780594,16.135425169534024,0.9397256009412742,14.913533639824205
195.0,42.770448250051516,16.424204417330003,0.9413762649045246,15.176889201498486
196.0,44.78223373669021,16.726541286975166,0.9429739914807685,15.443364498003984
197.0,46.86017115952742,17.042352265007796,0.9445203248785515,15.712907217397213
198.0,49.001982194771486,17.37151033683193,0.9460167920166102,15.98546291712652
199.0,51.20485574854178,17.71391036987961,0.9474648846506335,16.26097279423794
200.0,53.46567704626442,18.06941584468548,0.9488660752077497,16.53937578196771
201.0,55.780731136941945,18.437854014363694,0.950221796915868,16.82060642338365
202.0,58.14593609194221,18.819019498702026,0.9515334568221213,17.104596343387605
203.0,60.55680746372602,19.212727405815887,0.9528024301026337,17.391273659385185
204.0,63.00840726531475,19.618720434933415,0.954030057656422,17.68056283780376
205.0,65.49550198555231,20.036764908006678,0.9552176522939491,17.972385338148708
206.0,68.01243770564254,20.46657093672689,0.9563664881806947,18.26665855062292
207.0,70.55332945842825,20.907839021935352,0.9574778126264836,18.563297023087344
208.0,73.11198856356509,21.360257650984792,0.9585528344549,18.86221128606793
209.0,75.68203806144486,21.82346660481329,0.9595927329513908,19.163308711444685
210.0,78.25694409332323,22.29712099416284,0.9605986531340271,19.466493108378053
211.0,80.83005369827325,22.78081772781353,0.9615717057912956,19.771664572227973
212.0,83.3946805905152,23.27416549835791,0.96251297257452,20.078720128538425
213.0,85.9441400657955,23.77672999165121,0.9634234975618909,20.387552683213
214.0,88.47179514493703,24.28807383314801,0.964304298366533,20.698052230472744
215.0,90.97114784737907,24.807744915734002,0.9651563557814745,21.010104691433586
216.0,93.43586163144224,25.33524568978339,0.9659806228067621,21.323592758406505
217.0,95.85983283898318,25.870084363779362,0.9667780202295615,21.638395485185974
218.0,98.23722577747914,26.411735200536942,0.9675494374910593,21.9543881325199
219.0,100.56247735503875,26.959682521709325,0.9682957372457934,22.271442800178512
220.0,102.83042640022005,27.513379147659247,0.969017748308034,22.589427361246482
221.0,105.03622082328371,28.07227247547647,0.9697162757355458,22.908206674427085
222.0,107.17547338520814,28.63580303639637,0.9703920920075751,23.227641395000248
223.0,109.24417919857744,29.20338495753523,0.9710459451572055,23.54758881962868
224.0,111.23880362408481,29.774444695537234,0.9716785540806252,23.867902334219824
225.0,113.15623681637291,30.348379360526085,0.9722906130323726,24.188431676266333
226.0,114.99386471810796,30.924598566169884,0.9728827881652886,24.509022592908206
227.0,116.74945401534437,31.50249041100181,0.9734557247368122,24.829517488875634
228.0,118.42137780158964,32.08144737720955,0.9740100352751683,25.149753747133243
229.0,120.00821824628453,32.66085975143764,0.9745463210085622,25.469566810272656
230.0,121.50927742311852,33.24010734113301,0.9750651446963348,25.788785585098758
231.0,122.924060931769,33.81857393774208,0.9755670582174594,26.107237152032052
232.0,124.25254649031812,34.395652912584296,0.9760525873027346,26.424743619071403
233.0,125.49520671720828,34.97071633894572,0.9765222307619823,26.741122109016395
234.0,126.65265763299541,35.54316794741287,0.9769764785462685,27.05618789821885
235.0,127.7261148233533,36.112400924413365,0.9774157855783024,27.369748992054117
236.0,128.7169816804918,36.67779316365184,0.9778405957738956,27.681611080596536
237.0,129.62690826780164,37.23872008128972,0.9782513325231501,27.991575132722943
238.0,126.7185574897464,34.636637295889706,0.978648398683734,28.29943735496606
239.0,123.40094733620604,32.18395304705596,0.9790321788695548,28.604989489029307
240.0,120.05533641491522,30.14687029541649,0.9794030395604552,28.908018653161758
241.0,116.68255484854177,28.458884451208075,0.9797613295488278,29.208307269005708
242.0,113.28345836164544,27.06399247427936,0.9801073803555299,29.505632985579698
243.0,109.85892583295224,25.91503283850634,0.9804415066354578,29.799768606157567
244.0,106.40985592264242,24.972271631436737,0.980764006560843,30.090482015505366
245.0,102.93716367804208,24.202253021103065,0.9810751621943112,30.377536113040676
246.0,99.4417774430224,23.57680662009187,0.9813752397894523,30.660688731330637
247.0,95.9246352456522,23.07217053667099,0.9816644901835871,30.939692595631293
248.0,92.38668143634449,22.668370363475937,0.9819431490216728,31.214295240797234
249.0,88.82886321257061,22.348539069887167,0.9822114371216899,31.48423898842221
