Time,J,A,S,tau
0.0,100.0,100.0,0.7047905930855021,10.1010101010101
1.0,99.24106635462748,98.24182769782912,0.7154456127174359,10.384866382887468
2.0,98.52532727202914,96.5216798087331,0.7262892110310207,10.67039586739399
3.0,97.85392164004061,94.83886446605445,0.7373128037598707,10.957198551399808
4.0,97.22822583130494,93.19203564556682,0.7485184394089307,11.245199701094926
5.0,96.64957021918478,91.57991621351135,0.7599081812902903,11.53432454401695
6.0,96.11931753931991,90.00129474943328,0.7714841868260698,11.824498283272368
7.0,95.63872985294607,88.45497231857013,0.7832485491955192,12.115646107987024
8.0,95.2090019212476,86.93984353558973,0.7952034540769799,12.407693171383006
9.0,94.83131772674294,85.4548224586826,0.8073511101172615,12.700564620190258
10.0,94.50667274598825,83.99886365096013,0.8196936762126085,12.994185580451491
11.0,94.23601560501564,82.57099868125466,0.8322334404875326,13.288481158242975
12.0,94.02023929287243,81.1702607413258,0.8449726572132361,13.583376456980991
13.0,93.85998097969411,79.79573577349241,0.8579135459910486,13.87879656165984
14.0,93.75584738828506,78.44656644917613,0.871058449183185,14.17466654717232
15.0,93.56942243089965,77.258496039156,0.8745777475618524,14.259489227765355
16.0,93.36875584348998,76.15651991466306,0.8749434445681652,14.275393188861448
17.0,93.19162220300646,75.10023495825104,0.8752747968087156,14.289855415093648
18.0,93.03443728292346,74.09055911722228,0.8755718682079627,14.302863505470983
19.0,92.89323299076382,73.12841123048076,0.875834705292608,14.314406080645606
20.0,92.76382018947169,72.21470264597747,0.8760633442122757,14.324472373460575
21.0,92.64165047118337,71.35030715684921,0.8762578022973868,14.333052749485763
22.0,92.5219849095667,70.53606874969017,0.8764180868127337,14.340138195566658
23.0,92.39980305254896,69.77275924123212,0.8765441855645266,14.34572087915133
24.0,92.26992090741008,69.0610993950771,0.8766360764736446,14.349793614946003
25.0,92.12696850292542,68.40170889405925,0.8766937176026285,14.352350432308052
26.0,91.96544808801093,67.79513709165013,0.876717057151701,14.353386040315904
27.0,91.77976662123007,67.24182740225649,0.8767060232971633,14.352896382374833
28.0,91.56407546231203,66.74230933457781,0.876660534236025,14.35087811990045
29.0,91.31384190703582,66.29569702434902,0.8765804881938896,14.347329154015144
30.0,91.02773082595921,65.89795275378154,0.8764657731804985,14.342248146969968
31.0,90.70319830267003,65.54652219646354,0.8763162574874421,14.33563499226508
32.0,90.33685260118374,65.23973246747497,0.876131798857357,14.327490391164002
33.0,89.92587400422141,64.97555431373783,0.875912235816017,14.317816251421826
34.0,89.46779062044497,64.7517086841504,0.8756573961783706,14.306615329717765
35.0,88.96083557779895,64.56555228349373,0.8753670877830301,14.29389162122221
36.0,88.40360037164564,64.4142267715191,0.8750411094565638,14.279649883557086
37.0,87.79549583404399,64.29450009161951,0.874679238926492,14.263896222008942
38.0,87.13632277234142,64.2029592967366,0.8742812451151641,14.246637448183208
39.0,86.4266622797971,64.13587572664542,0.8738468779749559,14.22788165756344
40.0,85.66759861461246,64.08933595340389,0.8733758761776094,14.207637806309727
41.0,84.8608876396297,64.05920439218966,0.8728679616578545,14.185915955060077
42.0,84.00883410778789,64.04118570497316,0.872322843747588,14.162727154521
43.0,83.11428438942627,64.03084541390153,0.8717402173084009,14.138083408872113
44.0,82.1804700781387,64.02380276974807,0.8711197629174734,14.11199782396266
45.0,81.21081707605885,64.01580936538221,0.8704611491658326,14.084484325395998
46.0,80.20904875347946,64.0027413260548,0.8697640290084251,14.055557996952485
47.0,79.17906652444513,63.980568479364585,0.8690280453377819,14.02523467565035
48.0,78.12493025421573,63.94545955417156,0.8682528251886336,13.993531318257133
49.0,77.05076344055405,63.89376601165122,0.8674379862322578,13.96046565286882
50.0,75.960670579688,63.82211630572935,0.8665831315854716,13.926056404072948
51.0,74.85869459315055,63.727424263019664,0.8656878545998373,13.890323137298926
52.0,73.74872633663504,63.606916951361384,0.8647517363475414,13.853286255551781
53.0,72.63445353962904,63.458208047276116,0.863774347334377,13.81496707153371
54.0,71.51933992910614,63.27922761782166,0.8627552483947414,13.775387590567027
55.0,70.40650959038743,63.068364539552476,0.861693989204739,13.734570750889132
56.0,69.29883432644422,62.824318455292946,0.8605901121543094,13.692540093211848
57.0,68.19875791746676,62.54625924350079,0.8594431486938073,13.649320036167808
58.0,67.10846597980266,62.23366280352086,0.8582526249091044,13.604935571942077
59.0,66.02968397491082,61.886430490142715,0.8570180561843083,13.559412498719405
60.0,64.96394076719173,61.50470810489331,0.8557389551534437,13.512777097195373
61.0,63.91227658119076,61.0890468855644,0.854414824075867,13.46505647367239
62.0,62.875624127436765,60.640139149863415,0.8530451645406192,13.416278025258917
63.0,61.85446292634618,60.15905641899089,0.8516294706806438,13.366470035163173
64.0,60.84908382826381,59.64697487249572,0.8501672321806528,13.31566104988187
65.0,59.85965720409008,59.10525771656839,0.8486579409463247,13.263880116454171
66.0,58.886003445753886,58.53545564915044,0.8471010825226094,13.211156925540157
67.0,57.92790058875674,57.93915549524694,0.8454961428166635,13.157521301053425
68.0,56.98498212031404,57.318073047264434,0.8438426109915118,13.103003653902725
69.0,56.056754388846194,56.67394777654287,0.8421399740613824,13.047634636409315
70.0,55.142697179995984,56.008555560740085,0.8403877250506544,12.99144523240318
71.0,54.24219615100286,55.3236641894912,0.838585358169295,12.93446671443559
72.0,53.35465138921965,54.62104173937329,0.8367323740958185,12.876730538489356
73.0,52.47943194739488,53.90240679594644,0.8348282804983573,12.818268427955912
74.0,51.61591869699269,53.16946154050125,0.8328725900857181,12.759112199852323
75.0,50.76352641071617,52.423834057559674,0.8308648294174006,12.699293862273215
76.0,49.921675554647095,51.66711692450389,0.8288045297144104,12.638845471552969
77.0,49.089853853774656,50.9008291562503,0.8266912404952839,12.577799174923566
78.0,48.26756882839218,50.1264312670677,0.824524519624937,12.516187127432774
79.0,47.454390741702596,49.345325861201374,0.8223039433739381,12.454041493513676
80.0,46.64994099828079,48.558837032246295,0.8200291046019174,12.391394376365492
81.0,45.85387996719128,47.768249359287715,0.8176996112846343,12.328277845409218
82.0,45.06594648863224,46.97476067179614,0.8153150986035018,12.264723811919904
83.0,44.28590126234369,46.179539112985026,0.8128752134669159,12.20076412777276
84.0,43.51358652497015,45.383673449158564,0.8103796386492531,12.136430399586272
85.0,42.748872362684054,44.58822244605314,0.8078280700915631,12.071754122783627
86.0,41.991684685659486,43.79418237894251,0.805220241673936,12.00676651121744
87.0,41.242001414653636,43.002515208949696,0.8025559093822336,11.941498564698309
88.0,40.49981887914187,42.214137674264094,0.7998348623771685,11.875981022033514
89.0,39.765208139794936,41.42992957313533,0.7970569265582108,11.810244264540005
90.0,39.03823072069181,40.650739052697396,0.7942219528010287,11.744318465372652
91.0,38.31902406386854,39.87737652667171,0.7913298441457167,11.678233297283798
92.0,37.607713917854156,39.1106316738469,0.7883805221421586,11.61201826406542
93.0,36.90446939971605,38.35125362010835,0.7853739722690456,11.545702266028577
94.0,36.2095018148534,37.59998512060646,0.7823102028793366,11.479313972647972
95.0,35.522966596135774,36.857522381967584,0.7791892749092977,11.412881569991132
96.0,34.8451248796546,36.12455742341463,0.7760113031197666,11.346432719098118
97.0,34.176152303889296,35.40174925873684,0.7727764279767032,11.279994842231698
98.0,33.51627705785195,34.689732437638014,0.7694848713690694,11.213594596036193
99.0,32.86574272051695,33.9891366537028,0.7661368770084834,11.147258428149115
100.0,32.22468558103279,33.300539107411325,0.7627327612343006,11.081012112402771
101.0,31.593376354357535,32.62452707002258,0.759272894000762,11.01488093250189
102.0,30.971904999739113,31.961635382523408,0.7557576841608054,10.948889805116087
103.0,30.360456839353986,31.312385381422583,0.7521876317441142,10.883062833512401
104.0,29.75916810439565,30.677281163265906,0.7485632591854714,10.817423913425284
105.0,29.168039427953477,30.056762980599164,0.7448851810767075,10.751996115688728
106.0,28.587231067408403,29.45128366931114,0.7411540601349642,10.686802106551648
107.0,28.016588355814893,28.861212374451707,0.7373706126792412,10.62186405168927
108.0,27.456175393207147,28.28690915538,0.7335356569782765,10.55720327415511
109.0,26.905964502637744,27.728710124132604,0.7296500281941447,10.492840940473998
110.0,26.36563863504713,27.186839964588202,0.7257146621457685,10.42879733673881
111.0,25.835238974625018,26.661542636029274,0.7217305641711707,10.365092219454654
112.0,25.314337556887025,26.15297041981848,0.717698760831,10.301745103181698
113.0,24.80264939779148,25.661189687164057,0.7136204165574898,10.238774394826423
114.0,24.300227729005712,25.186288910083135,0.7094967365750343,10.176198216462069
115.0,23.8065062615926,24.72824541752914,0.7053289430314867,10.114034463146837
116.0,23.320979141931435,24.286898262319564,0.7011184067389534,10.052299836161907
117.0,22.843738729872378,23.862122348317758,0.6968665542112273,9.991010673227976
118.0,22.374555748838205,23.453733065320684,0.6925748211916422,9.930183189096928
119.0,21.91268550015318,23.061331936205132,0.6882447597747514,9.869832579128035
120.0,21.45820297220712,22.684555134988955,0.6838779988296844,9.809973539972146
121.0,21.01074671961105,22.32295220774764,0.6794761830452439,9.75062056474432
122.0,20.57004144694873,21.97593998636225,0.6750410760183453,9.691787179735348
123.0,20.136372605730216,21.642964372016603,0.6705744879348201,9.633486619466833
124.0,19.709510584685876,21.323345916541268,0.6660782685558663,9.575731686816454
125.0,19.289642367525254,21.016360108086193,0.6615543644821047,9.518534438411404
126.0,18.87689977268253,20.72125147510028,0.6570047502338381,9.461906668182783
127.0,18.471626883642568,20.437218099880006,0.6524314860928668,9.405859454190184
128.0,18.07428165562093,20.163450843802476,0.6478366641907605,9.350403606527214
129.0,17.685297179597498,19.899117434015977,0.6432224472600218,9.295549272368543
130.0,17.305418009435073,19.643415393301993,0.6385910402188136,9.241306278354207
131.0,16.935209880884862,19.395538891706348,0.6339446975008811,9.187683910522004
132.0,16.57545022895601,19.154729774571255,0.6292857176994561,9.134691074437725
133.0,16.226893119648686,18.92027761220626,0.6246164471171041,9.082336166660918
134.0,15.890331552485446,18.691524772046822,0.6199392642394571,9.03062724788805
135.0,15.566570667063743,18.46790335711649,0.6152565931725138,8.97957187809368
136.0,15.256326568166461,18.248905685884008,0.6105708818203374,8.929177293650291
137.0,14.960343784846337,18.034134107948887,0.6058846173015807,8.879450277808202
138.0,14.67918115192759,17.823263665193654,0.6012003050895937,8.830397273112887
139.0,14.413414153483947,17.616076127573926,0.5965204806442318,8.782024336582097
140.0,14.16337594491027,17.41243599796964,0.5918476935455422,8.734337157870156
141.0,13.929370909042886,17.21229416738324,0.587184512481219,8.687341114428278
142.0,13.711448135802058,17.01568730651196,0.5825335163382159,8.641041182160158
143.0,13.509631539083381,16.82271248726301,0.5778972952884271,8.595442100575303
144.0,13.3235645737228,16.633523069334217,0.57327843716102,8.550548199724847
145.0,13.153154020777569,16.448342790954776,0.5686795461682527,8.506363527761339
146.0,12.99774591848435,16.267383912053493,0.5641032091795195,8.462891935460336
147.0,12.856731212420478,16.090897327118107,0.5595520108507593,8.420136826238439
148.0,12.729476321178053,15.919135308226215,0.5550285328469592,8.378101482498307
149.0,12.614984158719208,15.752315176618946,0.5505353307699667,8.336788818836446
150.0,12.51241990848157,15.590648541461755,0.5460749548752588,8.296201567081551
151.0,12.420730611739982,15.434285589412195,0.5416499246292112,8.256342157174148
152.0,12.339015706416491,15.283352341142807,0.5372627469151615,8.217212844397654
153.0,12.266211327685177,15.137891440723504,0.5329158896252082,8.17881560602592
154.0,12.201459493445986,14.997910739691546,0.5286118031491875,8.14115225959312
155.0,12.14379244726253,14.863330392824029,0.524352891312332,8.10422436834325
156.0,12.092487636796408,14.734034863383167,0.5201415358799296,8.068033350070266
157.0,12.046761353983266,14.609826842991843,0.5159800651363639,8.032580391262618
158.0,12.006068189157194,14.490481315524626,0.5118707816530643,7.9978665501785695
159.0,11.96984285425305,14.375710330481695,0.5078159258670468,7.96389266764182
160.0,11.937895436255783,14.265217907922583,0.5038177124453184,7.930659468450371
161.0,11.909742943570134,14.158666539735787,0.4998782899428949,7.89816750815997
162.0,11.885513194104835,14.055734498665842,0.4959997636774337,7.8664171803682335
163.0,11.864968518628835,13.956086581114112,0.49218419796867613,7.835408805320658
164.0,11.848172143759452,13.859423674847655,0.4884335760030035,7.805142496846556
165.0,11.835281062353237,13.765462349134804,0.4847498605891321,7.775618320528932
166.0,11.82620498207912,13.67396427955319,0.48113492759589177,7.746836190635175
167.0,11.821219946721182,13.584740867054032,0.4775906110900836,7.718795918466001
168.0,11.820251662422567,13.497636488572818,0.47411869224052106,7.691497252986467
169.0,11.823400391137469,13.412573621288633,0.4707208685364538,7.664939797298741
170.0,11.830685954713987,13.329496318341844,0.4673988139523883,7.639123125813207
171.0,11.841913219671076,13.2484194025412,0.46415410643711924,7.614046697931892
172.0,11.85705592048451,13.169386468252501,0.46098829007211345,7.589709915844362
173.0,11.875551149135022,13.092474486907369,0.45790285610917875,7.566112153733449
174.0,11.897259675353183,13.017801050183058,0.45489917377868927,7.543252636523544
175.0,11.922165424569798,12.94548620998504,0.45197859972697335,7.5211305696986965
176.0,11.949797420383007,12.87565789927776,0.44914247718678174,7.499745167667185
177.0,11.979195175193434,12.80844387214867,0.44639201712793636,7.479095568210535
178.0,12.01025357693198,12.743949944790371,0.4437283588791324,7.459180821442629
179.0,12.042866581915892,12.682281530964115,0.44115264144626093,7.439999977191043
180.0,12.075983381903526,12.623526631459814,0.43866596465107405,7.421552106515208
181.0,12.109114956365088,12.56770872757344,0.43626928675332893,7.403836195573143
182.0,12.142296840235497,12.51483827588326,0.4339635378021971,7.3868511968289
183.0,12.175400100705204,12.464920256446707,0.4317496417329713,7.370596069337585
184.0,12.207665960954435,12.417906170296687,0.4296284359321014,7.355069784549102
185.0,12.238995693408066,12.373724870238158,0.42760069557311037,7.340271270109433
186.0,12.269082360775391,12.332294926733432,0.42566717017456623,7.326199469504706
187.0,12.297938622159148,12.2935081764206,0.4238285251631181,7.312853303370883
188.0,12.325572496969412,12.257254643137486,0.42208541106211667,7.300231695851009
189.0,12.35185995001119,12.223425518300376,0.42043841048229497,7.288333590927778
190.0,12.377064134382106,12.191907039382382,0.4188880486397639,7.277157905099222
191.0,12.401190288962695,12.16259805255802,0.4174348436704351,7.266703586971658
192.0,12.424298454956991,12.135417519249785,0.41607922862212277,7.256969597501014
193.0,12.446655618890492,12.110284901487773,0.4148216053938262,7.2479548808175265
194.0,12.468228761730574,12.087153418764256,0.413662358437468,7.2396584309265215
195.0,12.489156382744488,12.065995005707187,0.4126017879363417,7.232079240484842
196.0,12.509606119307932,12.046785303102302,0.41164018227179155,7.225216302401618
197.0,12.529473289316062,12.029541697410023,0.410777795331584,7.219068668624196
198.0,12.54888148723116,12.014281435214844,0.4100148095834438,7.213635378357331
199.0,12.56783554522827,12.00103345693864,0.4093514067161641,7.208915491850277
200.0,12.586177867238883,11.989851785993201,0.40878771454815843,7.204908124466732
201.0,12.603995587467956,11.98077642296493,0.4083238097605417,7.201612373221009
202.0,12.621051372339387,11.973868321936438,0.4079597791395078,7.199027385672789
203.0,12.637221170414197,11.969177175250458,0.40769562665676545,7.197152343398601
204.0,12.65261463446059,11.966736051360389,0.40753131867745224,7.195986411270297
205.0,12.667087375717841,11.966589477135736,0.40746683162304626,7.1955287902316325
206.0,12.680298294648269,11.968776282407198,0.4075020876123214,7.1957787574394025
207.0,12.692378232669563,11.973302675198637,0.4076369417763208,7.196735560601674
208.0,12.703364018934026,11.980177780619513,0.4078712524467489,7.198398461142855
209.0,12.712920855945042,11.989412029742834,0.4082048516686404,7.20076680607385
210.0,12.721148320400033,12.000985980861811,0.40863749828020157,7.203839925905945
211.0,12.728064040730917,12.014882594146753,0.40916895110218354,7.207617166831304
212.0,12.733504124838982,12.031084155480766,0.4097989272828412,7.21209793888583
213.0,12.737660294502335,12.049552827106613,0.4105270846661391,7.217281631705548
214.0,12.740535704980184,12.070259164402408,0.4113530844156353,7.2231676678217545
215.0,12.742092673144091,12.093176090081311,0.41227652667445386,7.229755514095917
216.0,12.742561033347656,12.118264914125929,0.4132969681337725,7.237044614516583
217.0,12.741911691475442,12.14550145270967,0.4144139651746795,7.2450344603205
218.0,12.740213105770168,12.174864587675543,0.41562699737958225,7.253724558258712
219.0,12.737683517465515,12.20632778414992,0.41693551817397984,7.2631143992079545
220.0,12.734261917724623,12.23988365636867,0.418338967405983,7.273203525830754
221.0,12.730072564502805,12.275525868306373,0.4198367030558154,7.283991469726682
222.0,12.72528948765438,12.313246783108172,0.4214280697515616,7.295477756898032
223.0,12.719820762401488,12.353057562303263,0.4231123790507876,7.307661958558809
224.0,12.713817005642788,12.394965949324455,0.4248888655157289,7.32054361453622
225.0,12.707386451689228,12.438981562392911,0.4267567573326086,7.334122270479522
226.0,12.700423749028896,12.485127018814795,0.428715227430357,7.3483974987516145
227.0,12.693095745034418,12.533418636196236,0.4307633844379308,7.363368828879598
228.0,12.68543246055513,12.583876153327076,0.43290033071717854,7.379035806388577
229.0,12.677352612075882,12.636523756134386,0.4351250929078281,7.395397973899938
230.0,12.669037772761122,12.691379877924435,0.43743665079906824,7.412454830119815
231.0,12.660435607416343,12.748465443940356,0.43983397021515896,7.430205895368074
232.0,12.651536244328495,12.807799536147785,0.44231592777121137,7.44865064968223
233.0,12.642523651476276,12.869398393386218,0.44488137144204354,7.4677885392153565
234.0,12.633292620417294,12.933277599339643,0.44752911892434294,7.487619024237274
235.0,12.623918744421434,12.99945050303875,0.4502578981798414,7.508141492559444
236.0,12.614576165293716,13.067929675334424,0.4530664213780759,7.529355311718327
237.0,12.605147342644354,13.138724416586001,0.4559533500095606,7.551259840658436
238.0,12.595783364260509,13.211845849223701,0.45891726694743257,7.573854346068988
239.0,12.586634920548146,13.287304371004414,0.46195674474996073,7.597138085848534
240.0,12.577604393471727,13.36510708135324,0.4650702861864965,7.621110273101038
241.0,12.568899788784119,13.445267972799332,0.4682563339259999,7.64577002311258
242.0,12.560629221492109,13.527798491313163,0.47151331825113024,7.671116447869133
243.0,12.552739099165048,13.612709804390526,0.47483958696808654,7.697148568526947
244.0,12.545472053128233,13.700023323090797,0.47823344879864843,7.723865316893533
245.0,12.538870276014453,13.789754625640635,0.48169319101054675,7.75126561647896
246.0,12.532945357090584,13.881924649083802,0.4852170166637452,7.779348250758053
247.0,12.527947417426686,13.976564671152357,0.48880310805850646,7.808111934094102
248.0,12.52384249870573,14.073696347459055,0.4924496120639603,7.837555350166728
249.0,12.520716567583769,14.173353492120684,0.49615460272134027,7.867677003043734
