Time,J,A,S,tau
0.0,100.0,100.0,0.2502168223687594,55.55555555555556
1.0,97.42598463172699,97.9664336789314,0.25014172801865336,55.5207361153894
2.0,94.90947322027557,95.97023840439363,0.25006252803195084,55.48404448230731
3.0,92.45230119937399,94.01308012661008,0.2499793634631426,55.445548082595785
4.0,90.05328784987536,92.09425444325662,0.24989224906241653,55.405255765863735
5.0,87.71121499190241,90.21304391142671,0.24980120019555715,55.36317659923132
6.0,85.42489700396145,88.36875110745213,0.2497062349652094,55.319320637737185
7.0,83.1932289530267,86.56071321193426,0.24960737256128637,55.273698337364806
8.0,81.01502336185177,84.78823753846667,0.24950463317757468,55.22632050147516
9.0,78.88917962777617,83.05067286084119,0.24939803996086246,55.17719899737373
10.0,76.81463428346837,81.34738383282476,0.24928761658262316,55.12634588407
11.0,74.79025275914991,79.67771126249613,0.2491733884166442,55.073773814194226
12.0,72.8150121987375,78.04104572316845,0.24905538337259053,55.01949635333387
13.0,70.88788270906007,76.43677578550697,0.24893362968581098,54.96352718119403
14.0,69.00779658343457,74.8642804975792,0.24880815796535458,54.905880809453066
15.0,67.17379498187479,73.32298572247909,0.24867900068937782,54.84657242365256
16.0,65.38487550583956,71.81230117494346,0.24854619077088236,54.785617356328984
17.0,63.64004813589208,70.33164735767402,0.2484097639515519,54.723031936997664
18.0,61.938404934098905,68.88047933310456,0.2482697571162469,54.65883290873851
19.0,60.278971668657945,67.45822784629215,0.24812620800078725,54.59303730470658
20.0,58.660839101949946,66.06435475211453,0.24797915721640745,54.52566317883259
21.0,57.08313676095559,64.69833822757668,0.24782864595143225,54.456728793523816
22.0,55.54493364829701,63.35963534893312,0.24767471686288275,54.3862529204715
23.0,54.045389586479814,62.04774324218566,0.24751741508783953,54.31425521875485
24.0,52.583665694114075,60.762160093040634,0.2473567860812708,54.24075545987264
25.0,51.158887913984444,59.50237352367171,0.24719287736175147,54.16577414133291
26.0,49.770275152688434,58.26791045532326,0.24702573828499846,54.089332424687555
27.0,48.41701690077243,57.05828676479083,0.24685541855710083,54.01145159218702
28.0,47.09830822750744,55.87302351985867,0.24668197034606856,53.93215380526419
29.0,45.81341942996386,54.71167259143881,0.24650544695851434,53.851461642258606
30.0,44.56157013572423,53.57376662679043,0.24632590234898294,53.769397907896554
31.0,43.34203406488871,52.45886106362624,0.24614339298286486,53.68598631920816
32.0,42.15412535646648,51.36652747356314,0.24595797589866109,53.601250805426325
33.0,40.997111096344234,50.2963192914727,0.24576970926312028,53.515215701222715
34.0,39.87034183665107,49.247821812033976,0.24557865340318819,53.42790614108569
35.0,38.77317627558009,48.220623498239306,0.24538486893305347,53.33934736590277
36.0,37.704950152132945,47.21430226204669,0.24518841805260033,53.24956520188252
37.0,36.66509138130874,46.22846864069191,0.24498936455364825,53.15858607778571
38.0,35.653009540512954,45.2627260479007,0.24478777248346115,53.06643651646026
39.0,34.66813310558799,44.31667943300367,0.24458370776277422,52.97314375234936
40.0,33.709972684930996,43.38996064466892,0.24437723729795777,52.87873540300716
41.0,32.77800183726024,42.48218682483967,0.2441684284237366,52.78323924817434
42.0,31.87176874068146,41.59299129600061,0.24395735036233154,52.68668380870227
43.0,30.990873666119676,40.72202286004013,0.24374407282711122,52.58909780196388
44.0,30.134885971439765,39.86891512819462,0.24352866626661493,52.49051023692453
45.0,29.30349229816798,39.033326729047374,0.24331120272017276,52.39095077150512
46.0,28.496394889927995,38.214920210065884,0.24309175443547276,52.290449149004054
47.0,27.713291109759883,37.41334668489419,0.24287039464973417,52.189035525232214
48.0,26.954035745884646,36.62828786780101,0.24264719788417222,52.08674060579645
49.0,26.21848572263534,35.85942571080468,0.2424222387470256,51.983595133310196
50.0,25.506482910286145,35.106427373523196,0.24219559269041308,51.87963022176065
51.0,24.818061372877143,34.36899011826349,0.24196733633713033,51.77487751702118
52.0,24.153280558692064,33.646815563083884,0.2417638815934259,51.682010850595006
53.0,23.512208722244665,32.93959601246668,0.2416116597712584,51.61372147270834
54.0,22.894995311290803,32.247031647932054,0.24146223143555465,51.54675497676275
55.0,22.301900056187684,31.568832740854013,0.241315636820674,51.48112547994174
56.0,21.733291559728993,30.904721540277603,0.24117191519735176,51.4168466696874
57.0,21.189519306398125,30.254411434786682,0.24103110498481767,51.353931858331315
58.0,20.671129332438827,29.617633003772866,0.2408932427927671,51.29239357276317
59.0,20.178690206716784,28.99411800508583,0.24075836479667906,51.23224415297471
60.0,19.712852345798506,28.38359915856557,0.24062650554604872,51.173495247978344
61.0,19.274373019067397,27.78581847316942,0.24049769872465473,51.1161581429081
62.0,18.86408463144825,27.200519815423238,0.2403719766226854,51.06024354485829
63.0,18.482932092387703,26.627455275806696,0.24024937058220752,51.00576177145768
64.0,18.131921050806458,26.066378204125165,0.2401299106283588,50.952722605432754
65.0,17.812149319553907,25.517047824194194,0.2400136258017708,50.901135433530875
66.0,17.52481880835401,24.979228611338872,0.2399005437765962,50.85100909972645
67.0,17.271177918877946,24.452687547894385,0.23979069128905445,50.8023520785941
68.0,17.052601361656976,23.937198705165812,0.23968409373750166,50.7551723240669
69.0,16.87048660385083,23.43253749476274,0.23958077548760814,50.709477391813394
70.0,16.72635539312486,22.938486557816166,0.23948075970307348,50.6652743790364
71.0,16.621751634927435,22.454830485577233,0.23938406839542908,50.62256994724462
72.0,16.55828358090522,21.98135843229207,0.23929072248781585,50.581370350369355
73.0,16.5376326967536,21.517864652311115,0.23920074169803093,50.54168139548034
74.0,16.561503583083486,21.064146661997036,0.23911414461142302,50.50350847357087
75.0,16.63163731890411,20.6200060689227,0.23903094873976435,50.46685658445273
76.0,16.749823833535395,20.185249450909335,0.23895117039611663,50.43173029534567
77.0,16.917846311644215,19.759686694560813,0.23887482478151845,50.3981337754455
78.0,17.13750087947002,19.3431318832675,0.23880192603385256,50.36607081638142
79.0,17.410603016365148,18.935404122854578,0.23873248710488482,50.33554479229872
80.0,17.738927829854497,18.536326039265276,0.23866651985747497,50.30655869688704
81.0,18.124236656674036,18.145724728745,0.238604035104176,50.279115159527414
82.0,18.568276276712194,17.76343258359298,0.238545042487883,50.25321640718459
83.0,19.072717432365458,17.38928595484934,0.2384895505879633,50.22886430328885
84.0,19.639188470864088,17.023126174491598,0.2384375669485156,50.20606035974311
85.0,20.269266299988754,16.664800444339935,0.23838909796402066,50.184805700906665
86.0,20.964415691992105,16.314160655530603,0.2383441489926741,50.16510110374821
87.0,21.726029612401703,15.971064498504083,0.23830272437440986,50.14694700591592
88.0,22.555408446876843,15.635376387504381,0.2382648273290936,50.13034347407422
89.0,23.453699021267205,15.306966532141749,0.23823046005500093,50.115290238138385
90.0,24.421973917271416,14.985712259102705,0.23819962377885207,50.101786709483996
91.0,25.461138937085217,14.67149928615368,0.2381723185508829,50.089831915620046
92.0,26.571936601498095,14.364218986501806,0.23814854362037355,50.07942462339475
93.0,27.755013146154397,14.063774864872219,0.2381282969604929,50.070563187207966
94.0,29.010739840049165,13.770074649258099,0.23811157586706905,50.0632457421481
95.0,30.33942796851402,13.483042272234949,0.23809837623817792,50.05746997498973
96.0,31.741092950478613,13.20260350377204,0.23808869354862863,50.05323343565503
97.0,33.21551526082125,12.928704385154683,0.2380825216401423,50.05053315256896
98.0,34.762608365883516,12.661300785256705,0.23807985378190846,50.049365972534325
99.0,36.38152787391677,12.400351536735299,0.2380806825323941,50.04972851354973
100.0,38.071513147271894,12.145845118983837,0.23808499874734784,50.051616853908726
101.0,39.831795184624355,11.897774271865023,0.23809279303738373,50.0550269942542
102.0,41.660788958785254,11.656144014425,0.23810405492378006,50.05995458730517
103.0,43.55706679181729,11.420982831520805,0.23811877281358482,50.06639493346904
104.0,45.51868302927149,11.192325923182496,0.23813693455506704,50.074343154470284
105.0,47.54359146328484,10.970236344400513,0.23815852667566278,50.08379395290448
106.0,49.629447288347556,10.754784497300465,0.2381835352529538,50.09474188770264
107.0,51.77352608886147,10.546065666623058,0.23821194515900188,50.10718113330166
108.0,53.97287306810857,10.344187243473671,0.23824374067740398,50.121105676032954
109.0,56.224257933470895,10.149281855886205,0.23827890498639712,50.13650914823724
110.0,58.52411861024218,9.96149391576058,0.23831742067966769,50.153384994041396
111.0,60.86867956357961,9.780993880973138,0.23835926928372156,50.17172631377367
112.0,63.25378169633986,9.607963926547226,0.23840443173844053,50.191526017259896
113.0,65.67511975722849,9.442612100461597,0.23845288796950123,50.21277668505926
114.0,68.127966020119,9.285158079522603,0.23850461730147743,50.23547070050376
115.0,70.60751637688149,9.135846339755801,0.23855959810855992,50.25960013542466
116.0,73.10852158306402,8.994932730979622,0.23861780814068967,50.285156854354575
117.0,75.62572375053698,8.862696002326892,0.23867922426841123,50.31213243029895
118.0,78.15341606471878,8.739425695577435,0.23874382270967304,50.340518216564966
119.0,80.68594284276695,8.625431672524908,0.23881157887777327,50.37030529615523
120.0,83.21721562999538,8.521033547456572,0.2388824675030591,50.401484518604924
121.0,85.74124231831398,8.426568134396446,0.23895646258661407,50.43404648471461
122.0,88.25163329153787,8.342380416263177,0.23903353741711258,50.46798154758743
123.0,90.74211957524162,8.268829073687241,0.23911366462716513,50.50327983265454
124.0,93.2060866894791,8.206278782874245,0.23919681611102633,50.5399312038269
125.0,95.63703914754372,8.155104119699905,0.23928296317536843,50.577925317082034
126.0,98.02820207449801,8.115682959062879,0.23937207636839283,50.61725155429714
127.0,100.37288903147117,8.088399044387314,0.23946412571224848,50.65789910704421
128.0,102.66421370042801,8.073636328098647,0.23955908045835528,50.699856882266886
129.0,104.89531837525368,8.071780363312367,0.23965690938472445,50.743113611359085
130.0,107.0592410353153,8.083213611075408,0.23975758049609006,50.78765773344658
131.0,109.1489647259368,8.108315613859498,0.23986106136540083,50.83347752305775
132.0,111.15748055662858,8.147459467547868,0.23996731880194277,50.88056095885928
133.0,113.0776398094284,8.201010700642975,0.24007631921089706,50.92889586073551
134.0,114.90242189867733,8.26932496486776,0.24018802825796537,50.97846975441048
135.0,116.62460629195357,8.352745663399283,0.24030241121829587,51.0292700071148
136.0,118.23723301931516,8.451602997158684,0.24041943266402815,51.08128369844109
137.0,119.73312412750919,8.566210124803982,0.24053905677931167,51.13449774512629
138.0,121.10551224159508,8.696863973948398,0.24066124709078077,51.18889878671061
139.0,122.34745244582328,8.843839469610888,0.240785966731798,51.24447329181673
140.0,123.45257541447931,9.007392674866363,0.2409131782296927,51.301207465334095
141.0,124.41444556753594,9.187752539809455,0.24104284370823323,51.35908733039399
142.0,125.2273707054425,9.385126920467641,0.24117492473989835,51.418098662011424
143.0,125.8857771225823,9.59969135643111,0.24130938248084205,51.478227040719254
144.0,126.38498513784518,9.831598437893884,0.24144617759151327,51.53945781585921
145.0,126.72067962854219,10.080963206967335,0.24158527030302884,51.6017761285567
146.0,126.88951236313248,10.34787646256957,0.24172662041451565,51.66516691091434
147.0,126.88878514651475,10.632384699886156,0.24187018727366758,51.72961486724326
148.0,126.71703475634669,10.934510852225031,0.2420159298141869,51.79510449390713
149.0,126.37306323997926,11.254232739547852,0.24216380666350154,51.86162012549565
150.0,125.8579366195491,11.59148039768889,0.24231377577068433,51.92914573708569
151.0,125.17299654299553,11.946174525784775,0.24246579499047716,51.99766525297792
152.0,124.32046301079805,12.31816546239777,0.24261982170808652,52.067162334378445
153.0,123.30409585841059,12.707270457194385,0.24277581289365419,52.137620409877
154.0,122.12828570902985,13.113262279502676,0.24293372523758192,52.20902274360978
155.0,120.7988452909594,13.535865711439257,0.24309351498470538,52.28135233611303
156.0,119.32210933571913,13.97476591700127,0.24325513814480124,52.35459204362402
157.0,117.70546920631232,14.429594691501,0.24341855032825865,52.42872447427732
158.0,115.9569180735377,14.899936695475205,0.24358370685697403,52.503732050669434
159.0,114.0851157391924,15.385331866295816,0.24375056274192222,52.57959699249458
160.0,112.09919040848582,15.885264177116726,0.24391907267199758,52.6563013015996
161.0,110.00861294140729,16.399176906313244,0.24408919108535376,52.73382680741042
162.0,107.82311737507455,16.926455021254444,0.24426087208908065,52.812155103745724
163.0,105.55252421111636,17.46644182610551,0.24443406956448777,52.89126761994591
164.0,103.20667303875044,18.01842734576373,0.24460873709391873,52.97114556101491
165.0,100.79527667586044,18.581654967321082,0.2447848280225669,53.0517699486624
166.0,98.3278746149465,19.15532370667794,0.24496229545175088,53.133121611057625
167.0,95.8136771118068,19.738581868650204,0.24514109222541003,53.215181165144394
168.0,93.26160515218963,20.33054116024755,0.2453211709917036,53.297929063172994
169.0,90.68009373884951,20.930263834124958,0.2455024841401469,53.38134553125318
170.0,88.07719898507467,21.536778945853207,0.24568498388330215,53.465410637218476
171.0,85.46044077342796,22.149073596085625,0.24586862220573236,53.5501042358496
172.0,82.83686088809489,22.766101953734687,0.24605335090719646,53.6354060052139
173.0,80.21300918616234,23.38678619942309,0.24623912160502726,53.72129544081948
174.0,77.59487849916938,24.010016144797685,0.24642588572016474,53.80775183593049
175.0,74.98804086953676,24.634658357025575,0.24661359452820394,53.89475432841444
176.0,72.39750491183187,25.259549802364155,0.24680219911357648,53.982281842139436
177.0,69.82789364403678,25.88350947124082,0.2469916504292999,54.07031315080281
178.0,67.28334993517842,26.505332113191916,0.24718189926559442,54.158826828875945
179.0,64.7676301789815,27.123796260023518,0.24737289627734724,54.24780128326427
180.0,62.28413030434048,27.737662156147948,0.24756459199304587,54.33721475156365
181.0,59.83586904833129,28.345673384987336,0.24775693680225913,54.42704528131785
182.0,57.425601517722995,28.946560579527983,0.24794988099545723,54.51727077614402
183.0,55.055757840155074,29.539036095097398,0.2481433747348836,54.6078689416302
184.0,52.72855432541659,30.121803124128462,0.24833736809423654,54.69881734501668
185.0,50.445963199732795,30.693544615773387,0.24853181104183236,54.79009336448142
186.0,48.20977650839123,31.25293694463141,0.2487266534635076,54.88167423738494
187.0,46.021613623017494,31.798637094921748,0.24892184516213442,54.973537028042934
188.0,43.88294044040969,32.329296615771234,0.24911733586357096,55.065658649921424
189.0,41.79510881827338,32.84355095619222,0.24931307523258922,55.158015864282476
190.0,39.7593408799114,33.340033588695,0.2495090128646992,55.25058527135706
191.0,37.7767835260765,33.81736828469233,0.2497050983123453,55.343343339046385
192.0,35.848474274814855,34.274184745645336,0.2499012810702944,55.436266366769665
193.0,33.975395319908,34.70911333655075,0.2500975106038946,55.52933053849311
194.0,32.15843394526119,35.12080449317114,0.2502937363364402,55.62251186690173
195.0,30.398425398494062,35.507924441599876,0.2504899076713298,55.715786261363085
196.0,28.69611674152961,35.8691802524669,0.25068597398877773,55.809129463478264
197.0,27.052193310085098,36.203315035001665,0.2508818846556634,55.902517119327605
198.0,25.467247461755925,36.50914171675703,0.2510775890366842,55.99592471052161
199.0,23.941801329148486,36.785527400533134,0.25127303649072774,56.089327635156266
200.0,22.47625881436621,37.03144956220643,0.25146817639138075,56.1827011320129
201.0,21.070946145577164,37.2459557007688,0.2516629581144444,56.27602036488266
202.0,19.72603504914664,37.42825460971909,0.2518573310714956,56.36926033936697
203.0,18.441630191363515,37.57762274291669,0.2520512446837007,56.46239600443457
204.0,17.217626768826353,37.69355835432757,0.2522446484212357,56.55540215383417
205.0,16.053848440293553,37.775649512575065,0.2524374917926877,56.64825351665786
206.0,14.949930560650438,37.82367965250721,0.25262972434095277,56.740924717604734
207.0,13.905363295433736,37.83760738756349,0.25282129567888034,56.8333902843895
208.0,12.919482674675756,37.81756289680152,0.2530121554667886,56.92562466529061
209.0,11.991475660441013,37.76385589996276,0.25320225343889563,57.01760222518083
210.0,11.120363052960226,37.67699320183721,0.2533915394061303,57.10929724712435
211.0,10.305042540393325,37.55763570271834,0.253579963254614,57.2006839507275
212.0,9.544261857405472,37.40663263590206,0.25376747496373064,57.29173648264531
213.0,8.836651563260247,37.224989474520065,0.2539540246072139,57.38242892992258
214.0,8.180737307666876,37.0138583475412,0.25413956235946916,57.472735324524606
215.0,7.574953568912527,36.774529229136604,0.2543240385085099,57.5626296469054
216.0,7.01766426291142,36.50841091359709,0.25450740345747036,57.65208583288404
217.0,6.507184235297795,36.21701326922344,0.2546896077351463,57.74107777935012
218.0,6.0418005536783,35.90192887355937,0.25487060200273876,57.82957935024531
219.0,5.619794820383112,35.56481380028406,0.25505033706155333,57.91756438265141
220.0,5.239465220737888,35.207368610144435,0.2552287638607927,58.005006693047534
221.0,4.89914860888473,34.83131923719193,0.25540583350551826,58.09188008372405
222.0,4.597241535667271,34.43839899411153,0.2555814972652063,58.17815834939907
223.0,4.3322202932764,34.030331176940635,0.2557557065817232,58.263815283960135
224.0,4.102658783687126,33.60881355180433,0.25592841307749314,58.348824687391485
225.0,3.907244989095897,33.175504077596976,0.25609956856402866,58.43316037282143
226.0,3.7447950313641813,32.73200871663664,0.25626912505059807,58.51679617372183
227.0,3.61426532902579,32.279870774993434,0.256437034753062,58.59970595126831
228.0,3.5147621749315183,31.820562398004057,0.25660325010288393,58.68186360186242
229.0,3.4455495847082673,31.355477491694373,0.2567677237566401,58.7632430649143
230.0,3.406054554248859,30.885926687885117,0.25693040860585803,58.843818330842275
231.0,3.3958679867242094,30.413134758331722,0.25709125778427017,58.92356344843869
232.0,3.414749836283817,29.938236874238882,0.25725022468349973,59.002452534816484
233.0,3.462615865503058,29.46228263795833,0.257407262950087,59.080459779666036
234.0,3.53956495810065,28.986227868876746,0.25756232652295513,59.15755946340494
235.0,3.6458318227091846,28.510948361834465,0.2577153696085084,59.233725953052925
236.0,3.7818048573076535,28.037236590495958,0.25786634670667025,59.30893371644719
237.0,3.9480264745951175,27.565801477232032,0.2580152126391816,59.383157338268795
238.0,4.1451627950862955,27.09727941470573,0.25816192253293063,59.45637151837727
239.0,4.374007414843522,26.632234629325705,0.2583064318467948,59.5285510873045
240.0,4.635467998852155,26.171164910684812,0.2584486963782574,59.599671013791145
241.0,4.930557122396473,25.714505871238433,0.25858867227799126,59.66970641570501
242.0,5.260379243046495,25.262635667292503,0.25872631606291646,59.738632570315424
243.0,5.626118093990427,24.81588017745692,0.2588615846258778,59.8064249232019
244.0,6.029025322402567,24.37451754614013,0.2589944352479614,59.87305909830735
245.0,6.47040865880236,23.938782554667746,0.25912482561116834,59.938510908150036
246.0,6.951621129241995,23.508870718575665,0.25925271381244647,60.0027563648238
247.0,7.474049095615681,23.084942082619154,0.2593780583805504,60.065771692450845
248.0,8.039097904179359,22.667125186055216,0.2595008182865376,60.127533336363605
