Time,J,A,S,tau
0.0,100.0,100.0,0.8686701531886979,2.092050209205021
1.0,89.7871514262505,88.63441935427167,0.8476462770618829,1.8551711709119054
2.0,80.6162321722503,78.55950943186964,0.8334108668139966,1.6914093235050573
3.0,72.38383384594243,69.63200227456933,0.8334260392838141,1.6915486554616426
4.0,64.99487645360709,61.72221557605296,0.83345267603323,1.691793321460561
5.0,58.36413772229366,54.71489253783668,0.8334907625341579,1.692143278778543
6.0,52.41601584206075,48.507779938126646,0.8335402789953191,1.692598475209193
7.0,47.084969779512576,43.010589143885774,0.8336012003790121,1.6931588490183742
8.0,42.31660498463993,38.144563223936125,0.833673496422403,1.6938243288870967
9.0,38.06887092667627,33.84292566934225,0.8337571316634512,1.694594833841879
10.0,34.312233184247745,30.052340189133123,0.8338520654659197,1.6954702731568823
11.0,31.026963496744777,26.734820258643587,0.8339582520634485,1.6964505462837869
12.0,28.196365555172466,23.869287093762658,0.8340756405767404,1.6975355426850405
13.0,25.795689686117345,21.45058524955187,0.834204175062938,1.6987251416996443
14.0,23.777858949022036,19.483381798275644,0.8343437945699997,1.7000192124787468
15.0,22.066962153798652,17.970674819764856,0.8344944331782155,1.7014176137709434
16.0,20.565822312413435,16.89779652482091,0.8346560200485119,1.702920193751596
17.0,19.180420438717114,16.218910989794985,0.8348284794797376,1.704526789837659
18.0,17.84782722171845,15.855021005462334,0.8350117309672374,1.7062372284875107
19.0,16.54873674414131,15.70771795513452,0.8352056892663073,1.708051324992557
20.0,15.297710423496648,15.682174047463668,0.8354102644585265,1.7099688832482909
21.0,14.121446275232536,15.706362440515564,0.8356253620194934,1.7119896955105656
22.0,13.040855141603986,15.737779682065158,0.8358508828935185,1.7141135421504643
23.0,12.064194661948612,15.758623904986107,0.8360867235707226,1.7163401913901504
24.0,11.188782093178254,15.766099817494451,0.8363327761520808,1.7186693989807236
25.0,10.405851910506309,15.76371106619797,0.8365889284421586,1.721100907935226
26.0,9.704727692312513,15.756003972784196,0.8368550640454043,1.723634448277473
27.0,9.07522777637417,15.746348419317517,0.8371310624363605,1.726269736672928
28.0,8.50861109118092,15.736559571893222,0.8374167990462349,1.7290064760705905
29.0,7.9976333742731285,15.727301197867307,0.8377121453726818,1.731844355429594
30.0,7.536267320219344,15.718611188551131,0.8380169690727657,1.7347830493715901
31.0,7.119384204235369,15.710300325134654,0.8383311340422254,1.7378222177399416
32.0,6.742498215683306,15.702171671677348,0.8386545005287463,1.7409615052728364
33.0,6.401602416804593,15.69410064421696,0.8389869252409624,1.7442005412598975
34.0,6.09308013976782,15.686040495967063,0.8393282614428617,1.7475389391134202
35.0,5.813663995191725,15.67799852110278,0.8396783590539159,1.750976295924134
36.0,5.560405293613603,15.670009715354423,0.840037064766216,1.7545121920939284
37.0,5.3306496295419254,15.662118504563558,0.8404042221565237,1.7581461909349536
38.0,5.122012440864662,15.654369211638233,0.8407796717935955,1.7618778382270215
39.0,4.932356879249641,15.646802779759973,0.8411632513443591,1.7657066617341775
40.0,4.759771613690412,15.639456880360827,0.8415547956927751,1.76963217078183
41.0,4.6025433102823605,15.632367139665657,0.8419541370587358,1.7736538558417434
42.0,4.45913791477507,15.625568383818328,0.8423611051066063,1.7777711880109501
43.0,4.328181167790728,15.619095464443175,0.8427755270687884,1.7819836185970324
44.0,4.20844013410591,15.612983626954659,0.8431972278627244,1.7862905786499705
45.0,4.098810652500531,15.607268653896504,0.8436260302005787,1.7906914783895602
46.0,3.998302405194295,15.60198678981771,0.8440617547195469,1.7951857068343378
47.0,3.906026448096097,15.597174608847256,0.8445042200980498,1.799772631295513
48.0,3.8211860557080404,15.592868947612017,0.8449532431668078,1.8044515967621708
49.0,3.7430668768700555,15.589106833597135,0.8454086390433749,1.8092219255990256
50.0,3.671025945716861,15.585925287899064,0.8458702212434511,1.8140829169611723
51.0,3.604490613136405,15.583361635507014,0.8463378018020457,1.8190338462839337
52.0,3.542944243709604,15.581453065421352,0.8468111913885445,1.8240739647306863
53.0,3.4859248416845157,15.580236841771422,0.8472901994222024,1.8292024984971043
54.0,3.4330149711069042,15.57974997804242,0.8477746342152395,1.8344186489138434
55.0,3.383838202641139,15.580029257363316,0.848264303079899,1.8397215919154968
56.0,3.3380681458005537,15.581112356112751,0.8487590124191963,1.8451104763191233
57.0,3.2953997950391822,15.583035667577702,0.8492585678711174,1.8505844244129943
58.0,3.255555392617224,15.585835008211445,0.8497627744350951,1.8561425323697756
59.0,3.2183061323065165,15.589548130518551,0.8502714365580308,1.8617838673011873
60.0,3.183421444120795,15.594209698478435,0.8507843582492614,1.8675074678845849
61.0,3.1507306922075657,15.599858342173823,0.8513013432515562,1.8733123454610878
62.0,3.120033806412517,15.606526948555945,0.8518221950470808,1.8791974820385466
63.0,3.0911768500829067,15.61425059678344,0.8523467170546235,1.8851618284455007
64.0,3.0640260900906466,15.623064824409168,0.8528747127154853,1.8912043071542606
65.0,3.038436352680859,15.63300193194426,0.8534059855504941,1.8973238100599317
66.0,3.0143075440612237,15.64409723321068,0.8539403393778734,1.903519195539874
67.0,2.9915383703838936,15.656384444650921,0.8544775782991875,1.9097892936868763
68.0,2.9700168604977897,15.669894099358812,0.8550175068044569,1.916132902376882
69.0,2.9496639389933836,15.684658387304331,0.8555599300246085,1.9225487834460298
70.0,2.9304339958124306,15.700712810198427,0.8561046536760085,1.9290356706364011
71.0,2.9122353484847077,15.71808576401886,0.8566514841493763,1.9355922625917064
72.0,2.895007264675514,15.736806936752863,0.8572002286849952,1.9422172246825515
73.0,2.878694182147252,15.756905398151424,0.8577506954242211,1.94890918862425
74.0,2.8632461033860803,15.778409809464327,0.8583026935079765,1.9556667518565136
75.0,2.848618220455768,15.801348264808047,0.8588560331565832,1.9624884774448603
76.0,2.834768439065109,15.825747880897541,0.8594105257494614,1.9693728937440786
77.0,2.8216605488885715,15.851635207951892,0.859965983920364,1.976318493937547
78.0,2.8092615586077576,15.879035892908485,0.8605222216249079,1.9833237359631035
79.0,2.7975398595825243,15.907974440389726,0.8610790542122485,1.990387042277309
80.0,2.7864670905725104,15.938474434241284,0.8616362985071626,1.997506799536941
81.0,2.7760182163397444,15.970558647669531,0.8621937728817743,2.004681358419881
82.0,2.766169424592436,16.004248770744397,0.862751297314498,2.01190903356633
83.0,2.7568996082456887,16.039565593345618,0.8633086934684026,2.019188103243709
84.0,2.7481886911243474,16.07652878898127,0.8638657847388276,2.0265168094789754
85.0,2.740018657043542,16.115157033807602,0.8644223963302972,2.0338933576866354
86.0,2.7323706486483696,16.15546762116845,0.8649783552893798,2.041315916959011
87.0,2.7252310176846573,16.197477246861382,0.8655334905949055,2.0487826196474943
88.0,2.718585007866413,16.241201200365698,0.8660876331810454,2.0562915616364568
89.0,2.712419952444705,16.286653724141683,0.866640615999172,2.0638408022873427
90.0,2.706721311895382,16.333847452981427,0.8671922740512121,2.0714283645633236
91.0,2.7014768254967763,16.38279395004031,0.8677424444494545,2.079052235033924
92.0,2.6966749816775453,16.433503502988128,0.8682909664496662,2.0867103640895754
93.0,2.6923045816415754,16.48598507863896,0.8688376814883854,2.094400666114744
94.0,2.688354809981386,16.5402462840371,0.8693824332192753,2.102121019687518
95.0,2.684814861702849,16.59629328491391,0.8699250675466476,2.1098692678035844
96.0,2.6816745092319976,16.65413085200326,0.8704654326598197,2.117643218125889
97.0,2.678923841761615,16.713762297302573,0.8710033790564147,2.125440643368655
98.0,2.6765531232608946,16.775189425203678,0.871538759566846,2.1332592816651688
99.0,2.674552714690136,16.838412491183185,0.872071429376438,2.141096836975438
100.0,2.6729130033058293,16.90343016065203,0.8726012460459746,2.1489509795218233
101.0,2.6716241373097036,16.970239439980183,0.873128069530991,2.1568193462450367
102.0,2.670676634269495,17.038835720964105,0.8736517621986074,2.164699541335643
103.0,2.670060961009209,17.10921269321387,0.8741721888368188,2.172589136841241
104.0,2.6697675363541817,17.18136231010377,0.8746892166640959,2.18048567329365
105.0,2.669786719799775,17.255274750487178,0.8752027153390366,2.1883866603498516
106.0,2.670108684111061,17.33093836668112,0.8757125569644686,2.1962895775162425
107.0,2.6707235900723463,17.408339669833456,0.876218616093452,2.2041918748760976
108.0,2.6716211805515795,17.48746324120449,0.8767207697288026,2.212090973899783
109.0,2.6727913597264275,17.568291769100778,0.8772188973253372,2.2199842682707205
110.0,2.6742237123888537,17.650805951158066,0.8777128807847733,2.227869124791002
111.0,2.6759078132476546,17.73498449914708,0.8782026044508654,2.2357428843248224
112.0,2.677832905568784,17.82080406039742,0.8786879551041764,2.2436028627594236
113.0,2.6799881627056457,17.908239218205228,0.8791688219514427,2.251446352059053
114.0,2.682362456112446,17.997262425323648,0.8796450966188215,2.25927062130162
115.0,2.6849445556164397,18.087843999073215,0.8801166731356639,2.267072917840321
116.0,2.6877229216505216,18.179952059320303,0.880583447926252,2.2748504684198996
117.0,2.690685947055002,18.27355253184072,0.8810453197886392,2.2826004804395104
118.0,2.6938216082906425,18.368609071478847,0.8815021898843213,2.2903201431558395
119.0,2.697117977413107,18.46508310195252,0.8819539617135639,2.298006629034792
120.0,2.700562386727192,18.562933686555965,0.8824005410994402,2.30565709506438
121.0,2.7041428069662716,18.66211767267989,0.8828418361655537,2.3132686841535164
122.0,2.707847597527141,18.762589621340215,0.883277757329122,2.3208385264859355
123.0,2.711662859257582,18.864301513177175,0.8837082172428715,2.328363741175388
124.0,2.7155749317415867,18.967202994792043,0.8841331307957506,2.3358414376427366
125.0,2.719571426884403,19.071241480036353,0.8845524150918835,2.343268717159056
126.0,2.7236389668679006,19.17636191231077,0.8849659894104609,2.350642674504583
127.0,2.7277641373129997,19.282506857724936,0.8853737751848951,2.357960399576319
128.0,2.7319333773112775,19.389616476358945,0.8857756959723022,2.3652189790673153
129.0,2.736132973676967,19.49762853175802,0.8861716774224908,2.3724154981703074
130.0,2.7403491501143478,19.60647839911752,0.8865616472529211,2.379547042316806
131.0,2.744568082386767,19.716099083101074,0.8869455352137624,2.3866106989482505
132.0,2.7487758465129333,19.826421221964402,0.8873232730614478,2.3936035593320573
133.0,2.75295854403687,19.93737312544624,0.8876947945234107,2.4005227203878916
134.0,2.757102198253074,20.048880783065282,0.8880600352689912,2.4073652865676665
135.0,2.7611928968183377,20.160867912896233,0.8884189328747886,2.41412837173532
136.0,2.765216706694804,20.273255983005477,0.8887714267935691,2.4208091010979422
137.0,2.769159787746545,20.385964266638997,0.8891174583199853,2.427404613135685
138.0,2.7730083478151935,20.498909880111885,0.8894569705583728,2.433912061575578
139.0,2.776748720603742,20.612007844672217,0.8897899083883879,2.440328617362349
140.0,2.7803673511769205,20.725171139844882,0.8901162184326408,2.4466514706720153
141.0,2.783850850099052,20.838310774558213,0.8904358490217595,2.4528778329080296
142.0,2.7871860082869113,20.95133585560702,0.8907487501626931,2.459004938754444
143.0,2.790359826728968,21.064153668810196,0.8910548735032101,2.4650300481843543
144.0,2.7933595489362815,21.17666976193334,0.8913541723006113,2.4709504485397704
145.0,2.7961726826697886,21.288788037461998,0.891646601386422,2.476763456546423
146.0,2.7987870246967455,21.4004108476764,0.8919321171351428,2.482466420402072
147.0,2.8011907021963927,21.5114391017588,0.892210677429926,2.488056721796008
148.0,2.8033721739128867,21.621772371426804,0.8924822416311882,2.4935317779861026
149.0,2.805320350152628,21.731309018362612,0.8927467705444246,2.498889043833874
150.0,2.8070245241053065,21.839946304286045,0.893004226389884,2.5041260139005286
151.0,2.8084744130679815,21.947580522896242,0.8932545727701552,2.5092402244505037
152.0,2.809660184340938,22.054107134456796,0.8934977746388284,2.5142292554500445
153.0,2.8105724947824475,22.159420907794473,0.893733798270588,2.5190907325764353
154.0,2.8112025183153015,22.263416066374212,0.8939626112312998,2.5238223291901893
155.0,2.8115420148413457,22.36598644455354,0.8941841823494913,2.528421768309346
156.0,2.8115833986785193,22.46702564913594,0.894398481689623,2.53288682461921
157.0,2.811319568048589,22.566427199896825,0.8946054805231815,2.537215326378443
158.0,2.810744032538315,22.664084708005074,0.8948051513009053,2.541405157253568
159.0,2.8098509351090923,22.759892046534254,0.8949974676266343,2.5454542581733604
160.0,2.808635080915665,22.8537435259693,0.895182404231909,2.5493606291464554
161.0,2.807092012706747,22.945534078873333,0.895359936951767,2.55312233105553
162.0,2.8052180734377297,23.035159447918538,0.8955300427023748,2.55673748748222
163.0,2.8030101654017097,23.122516341381846,0.8956926994567405,2.5602042863876617
164.0,2.800465921216774,23.207502637395347,0.8958478862223458,2.5635209817190017
165.0,2.7975837124355842,23.290017571797993,0.8959955830199197,2.566685895008163
166.0,2.7943626489018287,23.369961927678496,0.8961357708635823,2.569697416952121
167.0,2.790802634424798,23.447238231466677,0.896268431741579,2.572554008904258
168.0,2.786904441002123,23.52175095362225,0.8963935485988347,2.5752542043697235
169.0,2.7826695750968367,23.593406686411885,0.8965111053198583,2.577796610448673
170.0,2.778100211643418,23.66211432519932,0.8966210867114837,2.5801799091040807
171.0,2.7731993272888458,23.72778527432185,0.8967234784881596,2.582402858439137
172.0,2.7679706608822756,23.79033362960942,0.8968182672575045,2.584464293882552
173.0,2.76241870626657,23.849676365988014,0.8969054405077778,2.586363129373546
174.0,2.7565487548537635,23.905733524427188,0.8969849865956497,2.5880983583977497
175.0,2.7503667887645307,23.958428382335693,0.8970568947356596,2.5896690550414236
176.0,2.743879626472292,24.007687646018628,0.8971211549904884,2.591074374886249
177.0,2.7370947801539196,24.053441608173618,0.8971777582624961,2.592313555913876
178.0,2.730020508077846,24.095624322447158,0.8972266962863424,2.593385919284304
179.0,2.722665633573162,24.13417374255439,0.8972679616220834,2.5942908700259757
180.0,2.715039744651546,24.16903190372207,0.8973015476506722,2.595027897678958
181.0,2.7071530004010658,24.20014504688436,0.8973274485692844,2.5955965768225417
182.0,2.699016247226484,24.227463778496954,0.8973456593892336,2.595996567591657
183.0,2.6906408833398765,24.250943185411074,0.8973561759335364,2.5962276160188993
184.0,2.6820389098587514,24.270542972284975,0.8973589948371858,2.5962895544082416
185.0,2.673222850230829,24.286227565421267,0.8973541135470385,2.5961823014969583
186.0,2.6642057448201997,24.297966226239012,0.8973415303244068,2.595905862676293
187.0,2.655001114067462,24.305733141373054,0.897321244247303,2.5954603299782875
188.0,2.6456229116933865,24.30950751192851,0.8972932552153348,2.594845882136077
189.0,2.6360855152841074,24.309273626546975,0.8972575639543,2.5940627843997723
190.0,2.626403657040959,24.305020927012023,0.8972141720233868,2.5931113884318426
191.0,2.616592423254633,24.2967440608131,0.8971630818220837,2.5919921319558394
192.0,2.606667182319517,24.284442924136094,0.8971042965996853,2.590705538484453
193.0,2.5966435749682204,24.268122690677203,0.8970378204644703,2.5892522168052077
194.0,2.586537457710578,24.24779383319624,0.8969636583955013,2.587632860540213
195.0,2.5763648682952742,24.22347212590277,0.8968818162540197,2.5858482474739235
196.0,2.566141999148765,24.195178645614504,0.8967923007975066,2.5838992389446025
197.0,2.5558851269084726,24.16293974588808,0.8966951196932518,2.5817867790205664
198.0,2.5456106254101756,24.126787038489304,0.8965902815346103,2.5795118937242547
199.0,2.5353348535942555,24.086757338459204,0.8964777958567174,2.5770756900646647
200.0,2.5250742119253875,24.04289262620497,0.8963576731548443,2.574479355095969
201.0,2.5148449885617583,23.99523996378515,0.8962299249022384,2.5717241548148
202.0,2.5046634577922853,23.94385143749061,0.8960945635704559,2.5688114330566814
203.0,2.494545689252579,23.888784046565775,0.8959516026493161,2.5657426102674403
204.0,2.4845076831563935,23.83009962602657,0.8958010566690585,2.5625191822421916
205.0,2.474565137064254,23.767864708103378,0.8956429412223984,2.559142718781821
206.0,2.464733550688366,23.702150418281338,0.8954772729884573,2.555614862295403
207.0,2.455028129437012,23.633032332796116,0.8953040697571342,2.5519373263395155
208.0,2.4454638078677085,23.560590341832658,0.895123350454384,2.5481118940806464
209.0,2.436055303810806,23.484908503088654,0.8949351351679264,2.5441404166755266
210.0,2.426816803190817,23.406074847002337,0.8947394451749541,2.5400248117074824
211.0,2.4177623610044754,23.32418125033885,0.8945363029680582,2.535767061348085
212.0,2.4089054321137358,23.239323207688244,0.8943257322863647,2.5313692108000816
213.0,2.400259196463495,23.15159967874485,0.8941077581419015,2.5268333663277187
214.0,2.3918362672444826,23.061112862467404,0.8938824068524167,2.5221616935833633
215.0,2.383648893325941,22.967968015423637,0.8936497060692316,2.5173564155865185
216.0,2.3757087431084076,22.872273220077012,0.8934096848108224,2.5124198109246434
217.0,2.368027079373897,22.77413918880815,0.8931623734925042,2.507354211699599
218.0,2.3606145533341114,22.673679020222206,0.8929078039604119,2.502162001618956
219.0,2.3534813880141274,22.571007996045605,0.8926460095229586,2.496845613915589
220.0,2.346637181109169,22.466243327683582,0.8923770249849862,2.4914075293467413
221.0,2.3400911253305385,22.359503952080736,0.8921008866812665,2.4858502741031665
222.0,2.3338517382363992,22.250910261518726,0.8918176325108843,2.4801764177406205
223.0,2.3279270275099457,22.140583887711042,0.8915273019715659,2.474388571055773
224.0,2.3223244046033167,22.028647450646545,0.8912299361937335,2.4684893839513316
225.0,2.3170507419117032,21.915224327510764,0.8909255779759764,2.4624815433091074
226.0,2.3121123483734176,21.800438409392694,0.8906142718193072,2.456367770828519
227.0,2.3075149788012728,21.684413864690562,0.8902960639629263,2.4501508208856597
228.0,2.303263848475178,21.567274903897786,0.8899710024188366,2.443833478366267
229.0,2.299363646148951,21.4491455468185,0.8896391370075746,2.4374185565181845
230.0,2.29581854400259,21.33014939178883,0.8893005193947231,2.4309088948113047
231.0,2.292632136544306,21.21040938057588,0.8889552031255749,2.4243073567732134
232.0,2.2898075103775413,21.090047584258887,0.8886032436591798,2.4176168278333345
233.0,2.2873472544072198,20.969184986996986,0.8882446984030131,2.4108402131907316
234.0,2.2852534760822376,20.847941276615895,0.8878796267474068,2.403980435695511
235.0,2.2835278159234433,20.72643464150892,0.8875080900998018,2.3970404337465703
236.0,2.28217146309943,20.60478157479423,0.8871301519183489,2.3900231592060392
237.0,2.2811851568268224,20.48309668290703,0.8867458777464574,2.382931575340606
238.0,2.280569211875012,20.361492507894646,0.8863553352462066,2.3757686547718633
239.0,2.280323550027562,20.240079360514546,0.8859585942287701,2.3685373774494614
240.0,2.2804477167919783,20.118965158786374,0.8855557266862489,2.3612407286620445
241.0,2.2809409003544765,19.998255278471404,0.88514680682183,2.353881697075186
242.0,2.281801960640045,19.878052413248405,0.8847319110808599,2.3464632728018033
243.0,2.2830294273865253,19.758456443212506,0.8843111181788864,2.338988445505167
244.0,2.2846215625394946,19.639564321549514,0.8838845091313234,2.331460202534265
245.0,2.286576301603423,19.521469956248293,0.8834521672793972,2.3238815271004585
246.0,2.288891353053375,19.404264125003163,0.8830141783179016,2.3162553964843062
247.0,2.2915641642030122,19.28803438234105,0.8825706303195844,2.3085847802873043
248.0,2.294592045156629,19.17286500382712,0.8821216137585833,2.3008726387266125
