Time,J,A,S,tau
0.0,100.0,100.0,0.5560611891665244,7.4074074074074066
1.0,92.58271663900182,92.03771325077882,0.5568359733198706,7.416694123381641
2.0,85.65146276953296,84.68393074553241,0.5573517895849787,7.4228416437260964
3.0,79.18181363369612,77.89692373865257,0.5576040216320719,7.425832474203537
4.0,73.14741799343925,71.63467063808696,0.5575890219331979,7.425656768116998
5.0,67.52316771304834,65.85815399330369,0.5573035730636376,7.4223055920895415
6.0,62.28519324256476,60.53114988780507,0.5567449056597481,7.415770934129836
7.0,57.41089982047955,55.62002325908314,0.5559107161799252,7.4060457133046205
8.0,52.8791436826838,51.093593189644714,0.5542748363094662,7.386811974694419
9.0,48.670358035172406,46.92278525104101,0.5522626861358002,7.363186490493034
10.0,44.76730961778099,43.08076291781002,0.5502474655746046,7.339658759065502
11.0,41.1556581673121,39.54258989054332,0.5482298385147513,7.316235470782798
12.0,37.82498665412617,36.28515751097936,0.5462104734982172,7.292923207369017
13.0,34.76987829637987,33.287078559938855,0.5441900433525333,7.269728441451297
14.0,31.990850147805514,30.52859117593057,0.5421692248273356,7.246657535846297
15.0,29.494911176923345,27.9915352201023,0.5401486982425066,7.223716742406026
16.0,27.295464255180207,25.659450160945763,0.5381291471294654,7.200912201398017
17.0,25.411053165669372,23.51774123583927,0.5361112578391511,7.178249941446369
18.0,23.862882620173302,21.554002478006932,0.5340957191603954,7.1557358790273815
19.0,22.671170457521345,19.758523486675777,0.5320832219508399,7.13337581768848
20.0,21.85037881632416,18.124846797648587,0.5300744587416892,7.111175448343356
21.0,21.40333044418534,16.650227091863837,0.528070123315082,7.08914034959159
22.0,21.316897894068774,15.336193081084883,0.5260709104138366,7.067275986209484
23.0,21.55527491680618,14.188171148261114,0.5240775151866353,7.045587711227375
24.0,22.05906113342709,13.21515516236284,0.5220906328949878,7.024080764952486
25.0,22.745930219044624,12.42846934275553,0.5201109584867647,7.002760275467327
26.0,23.515732178341874,11.8399404063237,0.518139186194588,6.981631259091135
27.0,24.259185666673847,11.45949692982612,0.5161760091343888,6.960698620828715
28.0,24.868634884926106,11.292362006627572,0.5142221189049637,6.939967154907717
29.0,25.249047619555167,11.336130993448814,0.5122782051885636,6.919441545349668
30.0,25.327762005529205,11.578259155536815,0.5103449553539101,6.89912636671766
31.0,25.06230543944817,11.994593390440082,0.5084230540622834,6.879026084806761
32.0,24.44526036979747,12.549559477714787,0.5065131828741288,6.859145057501055
33.0,23.505042196410223,13.198284407008455,0.504616019861323,6.839487535630932
34.0,22.30151267907598,13.890323084260565,0.5027322392232668,6.820057663906474
35.0,20.91702653356837,14.574145084490338,0.5008625109075329,6.800859481877007
36.0,19.445088366705924,15.20151724674885,0.4990075002366895,6.781896925055066
37.0,17.97905239872728,15.73138254057066,0.49716786753718684,6.7631738258953815
38.0,16.602515833936533,16.133182608734348,0.4953442677790871,6.744693914948853
39.0,15.382354320680891,16.389411140071644,0.4935373502222713,6.726460822080068
40.0,14.36490591140833,16.496757317340922,0.4917477580639871,6.708478077633013
41.0,13.57545912548766,16.465178166274818,0.48997612810188096,6.690749113701278
42.0,13.02046016801158,16.315027520574453,0.48822309039706147,6.67327726525843
43.0,12.691411884559873,16.073138711079167,0.48648926795056163,6.656065771660888
44.0,12.568684799410988,15.768989424744337,0.4847752763943666,6.639117777875505
45.0,12.624850385885102,15.431677308035544,0.48308172367004293,6.622436335846592
46.0,12.827125732616294,15.087867411062268,0.48140920974026025,6.606024405847395
47.0,13.13934482226637,14.760588180389783,0.4797583262986827,6.589884857883782
48.0,13.523710259801518,14.46860391739311,0.4781296564907857,6.574020473092924
49.0,13.942567988326118,14.226143042917553,0.4765237746445398,6.558433945153432
50.0,14.360279743700502,14.042826115898544,0.47494124600940596,6.543127881690875
51.0,14.745109485175096,13.92371781135778,0.4733826265080263,6.528104805722337
52.0,15.070967091932049,13.86949177492798,0.4718484624999076,6.513367157113116
53.0,15.318797428642041,13.876738450770292,0.4703392905516066,6.498917294007976
54.0,15.477475703929233,13.938463812692476,0.4688556372170134,6.484757494214961
55.0,15.54393220005005,14.044785276766596,0.46739801884017623,6.470889956757443
56.0,15.522665725656955,14.18380488902684,0.46596694132162875,6.457316803030831
57.0,15.424571160792762,14.342610939591506,0.4645628999731466,6.4440400785356875
58.0,15.265332142682439,14.508292084710853,0.46318637934238627,6.431061754287199
59.0,15.063582430999057,14.668898433472496,0.46183785300385016,6.418383727985795
60.0,14.838968912276423,14.814240570981571,0.46051778345612515,6.406007825692609
61.0,14.610408423955617,14.936492100846785,0.4592266219148786,6.3939358028774125
62.0,14.3946469181928,15.030507017839392,0.4579648082441622,6.382169346179185
63.0,14.205243499523187,15.09390902325886,0.4567327707597162,6.37071007436663
64.0,14.051977008214148,15.126896835629296,0.4555309261765928,6.359559540028104
65.0,13.940693081194482,15.131885268609981,0.45435967946370714,6.348719230693759
66.0,13.873429232276978,15.11299106757353,0.45321942371557367,6.3381905699583045
67.0,13.848876536162892,15.075459036458373,0.4521105401110536,6.327974919020899
68.0,13.863005404984614,15.025102586751531,0.45103339781182916,6.318073577856636
69.0,13.909733252333583,14.967782959050489,0.4499883538798398,6.308487786372264
70.0,13.981649603868606,14.908978695051093,0.448975753239101,6.29921872578364
71.0,14.070697953925325,14.85344937775374,0.44799592857837073,6.290267519556236
72.0,14.16882200509484,14.80501166641397,0.44704920031712386,6.281635234650199
73.0,14.268511859742533,14.766414611136923,0.4461358765592764,6.273322882626546
74.0,14.363239494479188,14.73930671770022,0.44525625305371247,6.265331420724918
75.0,14.447760285438301,14.724280867723108,0.4444106131712936,6.257661752958114
76.0,14.518316327035684,14.72098657041571,0.4435992278429946,6.250314730976737
77.0,14.572664941386444,14.728292428390423,0.4428223556500602,6.243291155514129
78.0,14.610096138980758,14.744476522762444,0.44208024247647304,6.236591775981349
79.0,14.631134370789322,14.767432878112693,0.441373121830184,6.230217292796549
80.0,14.63737298777161,14.794880628153864,0.4407012148054088,6.2241683580903855
81.0,14.63120122940929,14.824548370897139,0.440064730073544,6.2184455765058555
82.0,14.615492131512022,14.854336712827099,0.4394638637111842,6.2130495053630295
83.0,14.593307320548343,14.882448365541233,0.438898799221378,6.207980655544935
84.0,14.567653738003848,14.90747113298881,0.43836970770489053,6.2032394928340855
85.0,14.541272539633635,14.928418110380903,0.43787674785733494,6.198826438541554
86.0,14.516472993733133,14.944733771354352,0.4374200659526711,6.194741870052873
87.0,14.495024208106122,14.95627038267485,0.4369997957526985,6.190986121094883
88.0,14.478112650864382,14.963237507203214,0.43661605840049666,6.1875594819237225
89.0,14.4664196943018,14.96612614633375,0.4362689630380264,6.184462201958299
90.0,14.45995478711686,14.965610526594764,0.43595860602950953,6.1816944873906445
91.0,14.458440968916255,14.962507693026414,0.43568507109067084,6.179256502387886
92.0,14.461130319947964,14.957655865240426,0.4354484305525955,6.177148373230816
93.0,14.467135404907575,14.951879238396154,0.43524874289230664,6.175370180891394
94.0,14.47535700696073,14.945927246574286,0.4350860563498274,6.173921972799249
95.0,14.484713615506205,14.94040927116834,0.4349604042508225,6.172803748116614
96.0,14.494108525925894,14.935821547545315,0.434871810724329,6.172015476283174
97.0,14.50261916157412,14.932469466726578,0.4348202842096918,6.171557076284208
98.0,14.509409868974577,14.930543873936397,0.4348058245625788,6.171428439661065
99.0,14.51390858437017,14.930062117122487,0.4348284157527095,6.171629407008919
100.0,14.51566647542964,14.930952155722167,0.43488803350917554,6.172159792764377
101.0,14.514508841383316,14.93302090282486,0.4349846368340848,6.173019357631532
102.0,14.510376953383178,14.936037001858999,0.43511817919208023,6.174207844980055
103.0,14.503411528801836,14.939706776452203,0.43528859281070564,6.175724929627492
104.0,14.493827649918304,14.943729943953143,0.43549580487405515,6.177570270121106
105.0,14.481997576515168,14.947833810037647,0.4357397301809882,6.179743485542057
106.0,14.468207360843378,14.951753559692103,0.4360202652535535,6.182244134860988
107.0,14.45288996551402,14.955263188456984,0.4363373043191685,6.185071770072035
108.0,14.43643637539731,14.958218883348975,0.43669072113515683,6.188225875655205
109.0,14.41906150032048,14.960481454515369,0.4370803803465767,6.191705905443539
110.0,14.401225201603314,14.962006977763552,0.4375061398702963,6.195511291564563
111.0,14.38302807398946,14.96278489597319,0.43796783466241096,6.199641387555577
112.0,14.364521996928305,14.962810162924258,0.4384652963902154,6.204095535708145
113.0,14.345951168202438,14.962168761804184,0.4389983444812949,6.2088730365570175
114.0,14.32725132167927,14.960930119706063,0.4395667815379399,6.2139731309877195
115.0,14.30850161317781,14.959207351694248,0.44017040797517354,6.219395053168984
116.0,14.289612962111708,14.95709648176718,0.4408090000046775,6.225137948811761
117.0,14.270354382746376,14.95466456376874,0.44148232627098494,6.231200935396486
118.0,14.250685294680348,14.952021441746728,0.4421901535990962,6.237583125068947
119.0,14.230555655421162,14.949248312142627,0.44293222438026036,6.244283536664595
120.0,14.209751353748844,14.946377354946268,0.4437082713431464,6.251301150764325
121.0,14.188184983255764,14.943462604389115,0.44451802616029135,6.258634945171265
122.0,14.165860184465068,14.940536321768981,0.44536119850450984,6.266283809260484
123.0,14.142633133410303,14.937581510325193,0.4462374857755008,6.274246580697141
124.0,14.118451423726956,14.934596384292087,0.4471465847863478,6.282522095989837
125.0,14.093398266471985,14.931578470817554,0.4480881730612013,6.291109109671822
126.0,14.067401367407903,14.928479578959477,0.44906191347370983,6.3000063100945995
127.0,14.040467300627176,14.925264962428098,0.45006746931263164,6.309212389136364
128.0,14.01278494648863,14.921927239341668,0.4511044876646325,6.318725966014187
129.0,13.984309108689796,14.918413677742732,0.45217259489068606,6.328545558178451
130.0,13.954976803775098,14.914668299341361,0.45327141659938774,6.3386696792135275
131.0,13.924999497020478,14.910684781631264,0.454400576683867,6.34909684017067
132.0,13.894542247441903,14.906462904155914,0.45555967163354394,6.359825409721538
133.0,13.863521907924836,14.901964132430871,0.45674828689437635,6.370853693880846
134.0,13.831855840974303,14.897150023143306,0.4579660079182327,6.3821799987130685
135.0,13.799770183371852,14.892042302358744,0.4592124165943233,6.393802619083871
136.0,13.767431054605417,14.886670104164786,0.46048706781803905,6.405719691792565
137.0,13.734735853254065,14.881018655442798,0.4617895073283781,6.417929292443887
138.0,13.70158265818683,14.87507331097702,0.46311928087054227,6.430429496715235
139.0,13.66815013083797,14.868874346058808,0.4644759299011035,6.443218364890072
140.0,13.634563566977748,14.862459834451638,0.46585897064918114,6.456293787647469
141.0,13.600716567478457,14.855826052405368,0.4672679116587157,6.469653594003708
142.0,13.566503525221238,14.848969428395849,0.4687022614786371,6.483295613073533
143.0,13.532058961784822,14.841931554701068,0.4701615237329312,6.497217653985676
144.0,13.49748004727272,14.834743334882544,0.47164517897651387,6.511417344453018
145.0,13.462678769255374,14.82739930484444,0.4731527015547327,6.52589225012544
146.0,13.427567983848606,14.819894167567732,0.47468356581483245,6.54063993677911
147.0,13.392262744838844,14.81225968100969,0.4762372406687657,6.555657945273511
148.0,13.356849795641248,14.804515748398524,0.47781317450312105,6.570943623224252
149.0,13.32126876407396,14.79665258544206,0.479410810951919,6.586494255902435
150.0,13.285460213873149,14.788660585235139,0.48102959364588244,6.602307128734296
151.0,13.249536219557827,14.780561845312047,0.48266896042759966,6.618379497032114
152.0,13.213580611089021,14.772370366750568,0.484328331518317,6.634708411297964
153.0,13.17755672410837,14.764076730675676,0.48600712380192995,6.651290859576585
154.0,13.141428995659172,14.755671733300792,0.48770475415890063,6.66812383027038
155.0,13.105321857339497,14.747177869871273,0.4894206342698243,6.685204296021608
156.0,13.069317661368094,14.738610942979935,0.49115416016772834,6.7025289885271
157.0,13.033385538295578,14.729964961911238,0.49290472495517623,6.7200945554216105
158.0,12.99749461867256,14.721233935949641,0.4946717217347312,6.737897644339892
159.0,12.961644762091309,14.712418774740138,0.4964545426944431,6.755934907378175
160.0,12.926007196443244,14.703560438951692,0.49825256776150356,6.774202874986129
161.0,12.890596957367345,14.694667340295984,0.5000651699914452,6.792697819210264
162.0,12.855394165913797,14.685740241673509,0.5018917226054075,6.8114159891547255
163.0,12.820378943132786,14.676779905984764,0.50373159882453,6.830353633923663
164.0,12.785555016705098,14.667794230189878,0.5055841703979648,6.849507011189856
165.0,12.751042839838279,14.658826701750503,0.5074487970902266,6.868872242124199
166.0,12.716857856524015,14.649889552762312,0.5093248380653672,6.888445138095759
167.0,12.682994726134591,14.640988766853393,0.511211653294534,6.908221484346639
168.0,12.649448108042284,14.63213032765183,0.5131086027488747,6.928197066118945
169.0,12.61621266161937,14.623320218785699,0.5150150463995365,6.948367668654781
170.0,12.583298804475948,14.614578483608081,0.5169303376479312,6.968729076617934
171.0,12.550743126958473,14.605934899510673,0.5188538238853418,6.989276759966717
172.0,12.518569605587182,14.597398493436758,0.5207848611798962,7.010005970333613
173.0,12.48680198387437,14.58897802676718,0.5227228057176216,7.030911958030976
174.0,12.455464005332338,14.580682260882778,0.5246670136845459,7.05198997337116
175.0,12.424579413473383,14.572519957164396,0.5266168412666966,7.0732352666665195
176.0,12.394147376687991,14.564502496841115,0.5285716416726167,7.0946430403736205
177.0,12.364134508986405,14.556646238688327,0.5305307658468542,7.116208179993329
178.0,12.334575423644262,14.548961770197867,0.5324935746202939,7.137925454800744
179.0,12.305508274440726,14.54145933816395,0.5344594292937448,7.159789634783977
180.0,12.27696119421248,14.534148443324332,0.5364276905572579,7.181795489912799
181.0,12.248875174818838,14.52703265452352,0.5383977173207285,7.203937661052005
182.0,12.221269956134535,14.520122476246033,0.5403688801102802,7.226210540272677
183.0,12.194191320160469,14.513430461359581,0.5423405517353268,7.2486084942738165
184.0,12.167684904916271,14.506969146601572,0.5443121049975118,7.271125889788652
185.0,12.141701633737972,14.500740432693682,0.5462829105940933,7.293757044546077
186.0,12.116210694649876,14.494748173940499,0.5482523513157901,7.316496007733655
187.0,12.091264422051585,14.489005518235228,0.5502198170007575,7.339336747873919
188.0,12.066915150342696,14.483525613471068,0.552184697487151,7.3622732334894
189.0,12.043162953929375,14.478315504501973,0.5541463815006228,7.385299421931882
190.0,12.019907955530593,14.473370471063092,0.5561042661410547,7.4084090636281745
191.0,11.997195902862204,14.468702701650686,0.5580577626909851,7.431595744313904
192.0,11.975082631387224,14.464325559842129,0.5600062829868785,7.45485304588801
193.0,11.953608831339585,14.460250538277977,0.5619492384831944,7.478174549971104
194.0,11.93265146521802,14.456468632519917,0.5638860444867713,7.5015537233088905
195.0,11.912216083380587,14.452986164523276,0.5658161359793152,7.524983804727283
196.0,11.89236038737275,14.449815835884067,0.5677389511043995,7.548458008132896
197.0,11.87314207451366,14.446970347655315,0.5696539280054617,7.571969547432853
198.0,11.854483398650354,14.444444704866413,0.5715605055086191,7.595511595216695
199.0,11.836310278420086,14.442233217457657,0.57345814245245,7.619077095896665
200.0,11.818681414306912,14.44034696644645,0.5753463068553143,7.6426589216480245
201.0,11.80165550679488,14.438797032850198,0.5772244667355726,7.666249944646035
202.0,11.785229960479857,14.43758625475288,0.5790920899668003,7.689843028067096
203.0,11.76926012571172,14.43669741517717,0.5809486590972968,7.713430872926742
204.0,11.753788512633639,14.436137386800892,0.5827936741342044,7.737006047522588
205.0,11.738873788157212,14.435915175307363,0.5846266357491539,7.760561116628037
206.0,11.724560401782993,14.43603782557516,0.5864470444511756,7.784088644590967
207.0,11.710702561706258,14.436485602703707,0.5882544085715937,7.807581113684541
208.0,11.697290945687751,14.437256402419333,0.5900482599457053,7.831030842629381
209.0,11.68438279534104,14.438357154028331,0.5918281338722277,7.85443013149506
210.0,11.672035352279693,14.439794786836993,0.5935935656498779,7.877771280351154
211.0,11.660172602993752,14.441557122403532,0.5953440932814796,7.901046562057689
212.0,11.648700629540038,14.443628444738271,0.5970792782830084,7.9242481079618035
213.0,11.637673635690422,14.446013749391707,0.598798691762384,7.94736800463643
214.0,11.627145943314208,14.448718048639181,0.6005019048301263,7.97039833864886
215.0,11.61711816229736,14.451738443284293,0.6021884891492754,7.993331190784215
216.0,11.607441686749866,14.455049513415206,0.6038580338765833,8.016158558149884
217.0,11.59814767264788,14.458651657844607,0.6055101457261068,8.0388723749832
218.0,11.589286321639758,14.462548052061216,0.6071444320592668,8.061464573998945
219.0,11.580897520946907,14.46674030281489,0.6087605002278829,8.083927087317544
220.0,11.572847143442804,14.471203231387591,0.6103579672769662,8.106251813568456
221.0,11.565113710337801,14.475928044733411,0.6119364734168652,8.128430602969601
222.0,11.557742641371583,14.480916024061939,0.6134956620205126,8.15045530221264
223.0,11.55077935628384,14.486168450582767,0.6150351764608414,8.172317757989227
224.0,11.544161749151066,14.491669439101532,0.6165546638282698,8.194009807977901
225.0,11.537794952229262,14.497397128363438,0.6180537942257681,8.215523280797576
226.0,11.53171895074296,14.5033507396876,0.619532246199163,8.236850012589448
227.0,11.525974221436643,14.509529572061444,0.6209896983008365,8.257981839529117
228.0,11.520561866642192,14.5159263403211,0.6224258300013635,8.278910595331162
229.0,11.51535346814018,14.522511618240584,0.623840338037467,8.299628136106557
230.0,11.510366045097676,14.529279670612489,0.6252329343119988,8.320126366777549
231.0,11.50563524445317,14.536227845364115,0.626603331231313,8.340397195438147
232.0,11.501190555029895,14.543352401637769,0.6279512412694168,8.36043252937393
233.0,11.49692768171191,14.55062571123913,0.6292763866838867,8.380224299987272
234.0,11.492820663863471,14.558033412864837,0.6305785096146356,8.399764552955558
235.0,11.488900482249772,14.565571127434637,0.6318573546106622,8.41904535664514
236.0,11.485198117636001,14.573234475868272,0.6331126662209652,8.43805877942237
237.0,11.481665689813148,14.581004014098172,0.6343441922386487,8.456796891354774
238.0,11.478219896305713,14.588853198460209,0.6355517008877459,8.475251925072314
239.0,11.474890489860245,14.596776864138937,0.6367349681896693,8.493416216917321
240.0,11.471708155762174,14.604770023578466,0.6378937701779499,8.511282103642476
241.0,11.468701303630736,14.612827229444301,0.6390278829261793,8.528841921270423
242.0,11.465781543695117,14.620919422562169,0.6401370913053753,8.54608805599298
243.0,11.462908570617458,14.629027218784811,0.6412211992674385,8.563013168488421
244.0,11.460107931130251,14.637144531592652,0.642280013196297,8.57960998724813
245.0,11.45740517196599,14.645265274466114,0.6433133394758794,8.595871240763483
246.0,11.454811783313252,14.6533803399149,0.6443209849240725,8.611789652260963
247.0,11.45222876021697,14.66145695404703,0.6453027692409846,8.627358079572033
248.0,11.449650638443067,14.669482594995758,0.6462585266797727,8.642569739652808
