Time,J,A,S,tau
0.0,100.0,100.0,0.6137822463777594,37.03703703703704
1.0,99.71530494817415,89.42163385077664,0.6148887373960651,37.683877296085534
2.0,99.43411140174611,79.96423738892696,0.6159955399410333,38.33316719036815
3.0,99.15627224899013,71.51092910871192,0.6171025180274526,38.984640550042194
4.0,98.88161017953621,63.95450062155032,0.6182097269979648,39.63817195903536
5.0,98.60995260274734,57.199290265422924,0.6193172289891864,40.29363730600427
6.0,98.34113139269347,51.159906777961204,0.6204250925396109,40.95091371002308
7.0,98.07498263965624,45.76011574498316,0.6215333922043844,41.60987944551042
8.0,97.81134641293335,40.93185556901764,0.6226422081836603,42.27041386784658
9.0,97.55006653225712,36.61435645110957,0.623751625960524,42.932397339065304
10.0,97.29099034851559,32.753359645725496,0.6248617359492485,43.595711153903835
11.0,97.03396852892605,29.30039785777393,0.6259726331468455,44.26023746502554
12.0,96.77885484953536,26.21217818118892,0.627084416792005,44.925859208385745
13.0,96.52550599567299,23.45002686182089,0.6281971900318242,45.59246002895261
14.0,96.27378136916877,20.979396420101583,0.6293110595943026,46.2599242065419
15.0,96.02354290202827,18.769421104155384,0.6304261354656432,46.92813658170569
16.0,95.77465487328328,16.79251533758764,0.6315425305678886,47.596982481090485
17.0,95.52698373264244,15.024026775153331,0.6326603604412728,48.26634764319684
18.0,95.28039792961172,13.441922682718056,0.6337797429289012,48.93611814424026
19.0,95.03476774802138,12.02651306850857,0.6349007978629092,49.606180324063665
20.0,94.78996514443158,10.760195362937957,0.6360236467496885,50.276420711871644
21.0,94.54586359004192,9.627231872837429,0.6371484124536485,50.94672595195122
22.0,94.30233791773973,8.613552316047459,0.638275218880446,51.61698272957702
23.0,94.05926417317022,7.706576770061891,0.639404190657611,52.28707769690943
24.0,93.81651946983034,6.895058301789546,0.6405354528112444,52.95689739871648
25.0,93.57398184678775,6.168937596692202,0.6416691304376287,53.62632819814076
26.0,93.33153012999163,5.519218247178871,0.6428053483698012,54.29525620257576
27.0,93.08904379720255,4.9378541707961565,0.6439442308378083,54.9635671895151
28.0,92.84640284601562,4.417649579523299,0.6450859011209716,55.63114653225066
29.0,92.60348766473972,3.952168358630571,0.6462304811905064,56.29787912528084
30.0,92.36017890581566,3.535652297138281,0.6473780913439056,56.96364931021501
31.0,92.11635736227099,3.1629502265223293,0.6485288498283842,57.628340801519784
32.0,91.87190384690378,2.8294538600797234,0.6496828724523478,58.291836612186735
33.0,91.6266990738154,2.531041069200342,0.6508402721821607,58.954018978950586
34.0,91.38062354246772,2.2640233850262,0.6520011587251858,59.61476928765849
35.0,91.133557424394,2.0251003078868273,0.6531656380997173,60.273967999173
36.0,90.88538045235292,1.8113186241163606,0.6543338121872728,60.93149457492344
37.0,90.6359718118378,1.6200359012624368,0.6555057782667113,61.58722740233952
38.0,90.38521003448585,1.448887958486275,0.65668162852607,62.24104371959465
39.0,90.13297289466234,1.2957587822699408,0.6578614495586095,62.89281954139272
40.0,89.87913730846022,1.1587547135176248,0.6590453218376876,63.542429584797986
41.0,89.62357923510828,1.0361810861443037,0.660233319167644,64.18974719481125
42.0,89.36617358060423,0.9265214638638715,0.6614255081086496,64.83464426963647
43.0,89.10679410370842,0.828418755292201,0.6626219473733724,65.47699118558434
44.0,88.84531332599155,0.7406582103324241,0.663822687205069,66.11665672367398
45.0,88.58160244417628,0.6621526427412413,0.665027768724553,66.75350799572657
46.0,88.31553124546683,0.5919290387997309,0.6662372232470862,67.38741037050058
47.0,88.04696802521241,0.5291167060521231,0.6674510715630368,68.0182273991601
48.0,87.77577950882383,0.4729362748169363,0.6686693231898192,68.64582074169795
49.0,87.5018307779714,0.4226901446368487,0.6698919755968088,69.27005009470433
50.0,87.22498519993813,0.37775395268980694,0.6711190133909631,69.89077311869134
51.0,86.94510436086821,0.33756891745039325,0.6723504074649052,70.50784536563013
52.0,86.66204800234682,0.30163500134146576,0.673586114098943,71.1211202058
53.0,86.37567396482075,0.2695045862505452,0.674826074037775,71.73044875726441
54.0,86.08583813546078,0.2407770474068324,0.6760702115265321,72.33567981577228
55.0,85.79239440104291,0.21509383336621976,0.6773184333020544,72.93665978481637
56.0,85.4951946059062,0.19213409433022927,0.6785706275364636,73.53323260582216
57.0,85.19408851599415,0.17161069170595106,0.6798266627317843,74.12523968868912
58.0,84.9087774243031,0.16148120596802296,0.6810863865878647,74.71251984560298
59.0,84.63790017531043,0.1593703365229164,0.6823496283403215,75.29490961996008
60.0,84.36329973981213,0.15726937584225276,0.6836161899858436,75.87224237526968
61.0,84.08483974687086,0.15517815819212433,0.6848858383918509,76.44434750065247
62.0,83.80238437456764,0.15309651434195978,0.6861583436758947,77.01105465266882
63.0,83.51579570258617,0.15102428642909776,0.6874334450321795,77.5721901052323
64.0,83.22492706934882,0.14896137047688002,0.6887108019083171,78.1275720617593
65.0,82.9296311604977,0.14690766660525376,0.6899900683413726,78.67701818981665
66.0,82.62976066569286,0.14486307491065628,0.6912708983973539,79.22034615925376
67.0,82.3251698095457,0.14282748526742664,0.6925529452592074,79.75737321796356
68.0,82.01570284276401,0.1408008412573136,0.6938357454746167,80.28790609381144
69.0,81.70119820877667,0.13878311935269316,0.6951187832692967,80.81174707877366
70.0,81.38149435101253,0.13677429602594124,0.6964015428689622,81.3286984648265
71.0,81.05642971787555,0.1347743477222288,0.6976835085333103,81.83856254610208
72.0,80.72584447412284,0.13278324014421236,0.6989641556777567,82.34114050890531
73.0,80.38956797821409,0.13080099301627873,0.7002428090724634,82.83622194012332
74.0,80.04742329836782,0.12882765927708437,0.7015187326049668,83.3235920879352
75.0,79.69923350280256,0.12686329186528567,0.7027911901628038,83.80303620052
76.0,79.34482166612759,0.12490794368603089,0.7040594456788867,84.27433952845075
77.0,78.98401335675773,0.12296165390729068,0.7053227510574634,84.73728607197103
78.0,78.61662372838299,0.12102451384268742,0.7065801736329299,85.1916478030459
79.0,78.24246123729282,0.11909664935038784,0.7078307074993531,85.63719229768283
80.0,77.8613343397766,0.11717818628855865,0.7090733467507997,86.07368713188926
81.0,77.473051500119,0.11526925047322523,0.7103070855398532,86.50089988419467
82.0,77.07742485744534,0.11336994962963794,0.711530902125524,86.91859675609507
83.0,76.67425808834504,0.11148044082482365,0.7127435542920412,87.32653188272988
84.0,76.26334815192197,0.10960091762777736,0.7139437140015025,87.7244551074985
85.0,75.84449200727998,0.10773157360749404,0.7151300532160053,88.11211627380031
86.0,75.41748661680204,0.10587260232581953,0.7163012438096387,88.48926522069213
87.0,74.9821307496476,0.10402419742767466,0.7174558636094772,88.85564719512128
88.0,74.53822184556724,0.10218657147388964,0.7185923497117241,89.21100073845217
89.0,74.0855551935413,0.10035995295189509,0.7197090929798823,89.55506248904236
90.0,73.62393623368006,0.09853357781914159,0.7203818582836957,89.67735089431389
91.0,73.15317079602411,0.09666542978644538,0.7189471493365479,88.7430436206309
92.0,72.67298327609284,0.09480903168164856,0.7174216393350548,87.75029066201937
93.0,72.1831675073602,0.09296466608444891,0.7158042971668023,86.69922626278216
94.0,71.6835180785137,0.09113261830403875,0.7140941823334043,85.5901178009529
95.0,71.17383601285404,0.08931317417812347,0.7122907818406705,84.42384747314124
96.0,70.65392240846334,0.0875066433362955,0.7103938988630691,83.20181326713946
97.0,70.12358332285976,0.08571332952301651,0.7084035517790155,81.92572119469322
98.0,69.58263115701338,0.08393355174870192,0.7063202945123119,80.59809190181592
99.0,69.03088160767274,0.0821676315948958,0.704144877544245,79.22174127275028
100.0,68.46816035563693,0.08041589807736867,0.7018786010725189,77.800269495533
101.0,67.89429675702303,0.07867868866612428,0.6995230062905995,76.33761702490521
102.0,67.3091327196303,0.0769563397721711,0.6970801154669148,74.83833374619543
103.0,66.71251749223266,0.07524919388567086,0.6945522542623326,73.30732969656798
104.0,66.10431289937793,0.07355759842726686,0.6919421646114282,71.74993300349712
105.0,65.48439198393541,0.07188189930778494,0.6892528668610527,70.17169596891331
106.0,64.8526411028219,0.0702224493209905,0.6864877169241719,68.57836709521133
107.0,64.20896243175207,0.06857959604621278,0.683650323080555,66.97574344037426
108.0,63.553271736941774,0.06695369255533572,0.6807445172082263,65.3695936809362
109.0,62.88550512423656,0.06534508681595087,0.6777743336432097,63.76551324552327
110.0,62.20561382928692,0.06375412660541145,0.674743927417077,62.1688994856714
111.0,61.51357193981176,0.06218115853615941,0.671657578378037,60.58477164365095
112.0,60.80937284663994,0.060626521358683606,0.6685196015259017,59.01781081724754
113.0,60.093032918803154,0.05909055730233238,0.6653343592963807,57.472216488054485
114.0,59.35290514163349,0.07191939199465128,0.6621061768696459,55.9517527510073
115.0,58.624438554786664,0.13385402722243747,0.6588393346280258,54.45967279714551
116.0,57.98916152740877,0.19633463442831386,0.655538039559959,52.99874645649868
117.0,57.44923503229493,0.2593827066017393,0.6522063968630959,51.57126686086742
118.0,57.00641425941309,0.32299312359765875,0.6488484028674989,50.17907198749606
119.0,56.66198531211879,0.38713303896876855,0.6454679147773192,48.82356840699933
120.0,56.41671653094488,0.4517428680572568,0.6420686455061133,47.50578066911123
121.0,56.27077430319518,0.5167357267900123,0.6386541702033415,46.22638248672203
122.0,56.223681985215165,0.5819982594566674,0.6352278933872094,44.98572670756011
123.0,56.27427588161923,0.6473924269069559,0.6317930683309554,43.78389571948663
124.0,56.42067937214854,0.712757488948886,0.6283527924561086,42.62073663187177
125.0,56.660290302595385,0.7779124052125088,0.6249100096787292,41.49589684036999
126.0,56.98978353750176,0.8426586569087461,0.6214675141454196,40.408856919183606
127.0,57.40512903682395,0.9067834836565032,0.6180279550724279,39.358960547058395
128.0,57.90162360586857,0.9700650231997997,0.6145938435587959,38.34544165247678
129.0,58.47397445239515,1.032216425626366,0.6111675561893816,37.367447432420384
130.0,59.11622423279502,1.0929328056204093,0.6077513419272177,36.4240594209018
131.0,59.82182748260076,1.1519723587878175,0.6043473294848198,35.514311530008676
132.0,60.58382974635831,1.209098833889169,0.6009575339199372,34.63720524732604
133.0,61.39495336221931,1.2640832931795554,0.5975838631414824,33.79172251338235
134.0,62.247684044463455,1.316707190096095,0.5942281243003161,32.97683653506037
135.0,63.13436038934857,1.3667651214516552,0.5908920310699016,32.191521078297235
136.0,64.0472492048767,1.4140674684759111,0.5875772055417959,31.434756856296094
137.0,64.97863979745827,1.4584423301942637,0.5842851891497001,30.705539029364346
138.0,65.92089933593624,1.4997373284611828,0.5810174426438766,30.00288022045505
139.0,66.8665369336068,1.537820950978841,0.5777753512178407,29.325814356785976
140.0,67.80830506995274,1.5725825247041463,0.5745602435389797,28.673402549893652
141.0,68.73921480612941,1.6039346395247343,0.5713733770548113,28.044732505978104
142.0,69.63751902604191,1.6501808287113278,0.5682159473697538,27.43891817585254
143.0,70.46289272146582,1.8229915341625529,0.5650890886849252,26.85510315905222
144.0,71.3176008991189,2.1369193870500065,0.56199388743974,26.29246173392065
145.0,72.25915746284942,2.5856585144152917,0.5589313799155347,25.750198264184636
146.0,73.26517786445937,3.1616032474717364,0.5559025552592936,25.227547163209966
147.0,74.24378441319381,3.8558360700155156,0.5529083582073994,24.72377261582359
148.0,75.06056798559372,4.658198313879589,0.549949691540334,24.238168115102543
149.0,75.5720523393651,5.557438451746289,0.5470274183340268,23.77005586169002
150.0,75.65550720265152,6.541425343372126,0.5441423639303709,23.31878604664397
151.0,75.22840685127146,7.597410293782109,0.5412953181216241,22.883736109886836
152.0,74.25549916363583,8.712259351479581,0.5384870365134025,22.464309842297293
153.0,72.74564539894051,9.872627916433153,0.5357182424916942,22.05993657225144
154.0,70.74185043451985,11.065395202245803,0.5329896283479638,21.670070228396852
155.0,68.30905686404525,12.277954701479027,0.5303018567082348,21.294188410582052
156.0,65.5227993522909,13.498417421514242,0.5276555621183975,20.93179155731424
157.0,62.46026015457002,14.715768535220697,0.525051351506338,20.58240198708325
158.0,59.194300223447854,15.919970952190083,0.5224898058717512,20.24556300142829
159.0,55.79005399805298,17.102033346518855,0.5199714806803032,19.92083808408185
160.0,52.303602854425094,18.254025456985715,0.5174969071114236,19.607809950305477
161.0,48.78180970587948,19.369115120355072,0.515066592656412,19.30607985220793
162.0,45.21834649351087,20.48525717888732,0.5126810223947479,19.01526671419258
163.0,41.51476008076808,21.7206694460838,0.5103406584284861,18.735006306274116
164.0,37.64544558310763,23.114596314686786,0.5080459416390973,18.464950619253944
165.0,33.69141044534586,24.60146811210685,0.505797292164173,18.204767121137696
166.0,29.803675787104183,26.048206492431078,0.5035951095037735,17.95413805349407
167.0,26.145767610914866,27.308660158255474,0.5014397732409772,17.712759795187615
168.0,22.846021635990525,28.268733345202637,0.49933164353719633,17.480342247427096
169.0,19.974986296233435,28.868329677283864,0.4972710614741203,17.25660823068811
170.0,17.546518534550792,29.10083109866024,0.4952583496295793,17.041292931815942
171.0,15.532707509446144,28.999101507945976,0.49329381237937686,16.83414337282665
172.0,13.882553067554023,28.617663037005375,0.49137773608922214,16.63491785154617
173.0,12.53759382557626,28.01772290788608,0.4895103896279522,16.44338549386663
174.0,11.442293001656715,27.257281478977596,0.48769202464370354,16.259325775464095
175.0,10.54938789278518,26.3861388339305,0.4859228758531536,16.08252807953566
176.0,9.821662017818458,25.444371948418464,0.4842031613240812,15.912791275550003
177.0,9.231633015523382,24.46280865519124,0.482533082736258,15.749923317587205
178.0,8.761635911224866,23.463046109598814,0.48091282560412385,15.593740863500571
179.0,8.40468924865507,22.456748545451052,0.47934255954733224,15.444068897401198
180.0,8.157241840359001,21.453051630799322,0.47782243853110246,15.300740438993893
181.0,8.0149229541053,20.462638553529317,0.47635260110649985,15.163596167266789
182.0,7.973990780073715,19.49590047728274,0.47493317049107353,15.032484118117525
183.0,8.033180615197919,18.56068357023536,0.47356425481958186,14.90725939394308
184.0,8.193731556415015,17.661905848724675,0.47224594732213326,14.787783875044907
185.0,8.45832779381801,16.80232125600917,0.4709783264864754,14.67392598113709
186.0,8.829848125434726,15.983438042350038,0.4697614562293123,14.565560389235992
187.0,9.310365245124643,15.206188516184497,0.4685953860273896,14.462567805411956
188.0,9.900312705847094,14.471345957574682,0.46748015124219094,14.364834669842761
189.0,10.598080802870435,13.779826085424391,0.4664157724568287,14.272253230125974
190.0,11.399434203193618,13.132780682485336,0.46540225697774595,14.184720826703742
191.0,12.297023985921,12.53170424515347,0.46443959774009946,14.102140138679585
192.0,13.280404789315632,11.978466491633517,0.46352777400102396,14.024418788246063
193.0,14.33579088560906,11.475380879622374,0.4626667512663624,13.951469228586726
194.0,15.446074637330323,11.025272885910372,0.46185648135002183,13.883208566537604
195.0,16.591121439971293,10.631337643459009,0.4610969025358759,13.819558378686935
196.0,17.748315186670737,10.29686857838043,0.4603879396226117,13.760444587743104
197.0,18.89339400301892,10.025009244324076,0.4597295039819801,13.705797293255323
198.0,20.00122769504808,9.818552034440524,0.4591214935756235,13.655550655888955
199.0,21.046634222317984,9.679773844390734,0.4585637930900415,13.609642740484272
200.0,22.005185047166727,9.610271056483674,0.4580562738630329,13.56801541343328
201.0,22.853902580469313,9.610797164026389,0.45759879404452053,13.530614204089362
202.0,23.571989738858388,9.681106345045913,0.45719119851236373,13.49738820140585
203.0,24.141448577270808,9.819809029589491,0.4568333189926459,13.468289938225144
204.0,24.547772102707267,10.02425983432498,0.45652497396516917,13.443275296007101
205.0,24.780559828916584,10.29049404330896,0.45626596871480884,13.422303390158298
206.0,24.834061571075907,10.613207889981641,0.45605609540036185,13.405336481886899
207.0,24.70766800112104,10.98579232716454,0.4558951329796582,13.392339893178905
208.0,24.406155963298414,11.400425659983634,0.4557828471977751,13.383281912233029
209.0,23.93960743150606,11.848238647064264,0.45571899060874876,13.378133707820226
210.0,23.322973550743985,12.319557217435252,0.45570330256101804,13.376869248693346
211.0,22.575303587462532,12.804195405702815,0.4557355091499796,13.37946522622113
212.0,21.718738163788924,13.291764084023189,0.4558153232819818,13.385900990387432
213.0,20.777370138876748,13.771960931034274,0.45594244452314786,13.396158459656707
214.0,19.776152921638268,14.234829651004862,0.4561165592080355,13.410222062818251
215.0,18.739883603688526,14.670986513450316,0.456337340252173,13.428078672374635
216.0,17.69238005696281,15.071822116583794,0.4566044473127816,13.449717527746825
217.0,16.65579021334857,15.429707048262506,0.4569175266161802,13.475130190684057
218.0,15.650081975965294,15.738183044521234,0.4572762110005713,13.504310464661907
219.0,14.692678261473883,15.99216699350725,0.4576801199362347,13.537254348526876
220.0,13.79818830229272,16.18812349835409,0.4581288593780759,13.573959974159962
221.0,12.978330711276165,16.3241835157502,0.45862202192866836,13.61442754313138
222.0,12.241921418225788,16.400201517093404,0.459159186688632,13.658659284475684
223.0,11.59503194231284,16.417691552501584,0.4597399193137689,13.706659386861267
224.0,11.041255360779848,16.3796745223431,0.46036377206022416,13.758433948875348
225.0,10.582016202146697,16.29043441620693,0.4610302835781709,13.813990927313107
226.0,10.217014063080779,16.155214090237408,0.46173897919172263,13.873340083061334
227.0,9.944604806324158,15.97989335178854,0.4624893708286803,13.93649292912895
228.0,9.76216952126408,15.77068068372935,0.46328095705809597,14.003462678499016
229.0,9.666426559643023,15.53384477349644,0.4641132231387641,14.074264192358255
230.0,9.653673362072663,15.275500195120141,0.4649856410793564,14.148913928420892
231.0,9.71995724601596,15.0014503780198,0.4658976697110555,14.227429889235129
232.0,9.861181673249185,14.71708443882905,0.4668487547735238,14.30983157036487
233.0,10.073159449453808,14.42731979462739,0.4678383290150266,14.396139908343873
234.0,10.351626950712136,14.13657994348468,0.46886581230750163,14.48637722830406
235.0,10.692232062533195,13.848798196800287,0.4699306117773412,14.580567191184514
236.0,11.090507438185245,13.567438833535501,0.47103212195261857,14.678734740432567
237.0,11.54183922433146,13.295528176529423,0.4721697249274558,14.780906048113419
238.0,12.04143847227269,13.035690623623257,0.4733427905441869,14.887108460350069
239.0,12.584320592414544,12.7901858829707,0.47455067659392786,14.997370442020735
240.0,13.165296611269978,12.560944640354132,0.47579272903611447,15.111721520646618
241.0,13.778977843369171,12.349601420715567,0.47706828223751524,15.230192229408807
242.0,14.419795306154034,12.157523170719744,0.47837665923117256,15.352814049239226
243.0,15.082033108380989,11.985833656813051,0.47971717199566216,15.479619349936911
244.0,15.759874759231009,11.835433606187951,0.48108912175499724,15.610641330267525
245.0,16.447460569882303,11.707016958599082,0.4824917992994373,15.745913957010849
246.0,17.138953960474538,11.601083705084008,0.48392448532739013,15.885471902928174
247.0,17.828614154464137,11.51794997596267,0.4853864508085204,16.029350483628733
248.0,18.510872649583117,11.457756064935907,0.48687695736810493,16.177585593321986
249.0,19.180410819143123,11.420473109832118,0.4883952576925933,16.330213639450342
