Time,J,A,S,tau
0.0,100.0,100.0,0.3393054270218974,38.46153846153846
1.0,97.10673733843423,93.41149987408747,0.33946380279702437,38.39971266770764
2.0,94.29210222365666,87.24595045852216,0.33962742783994293,38.33591057547362
3.0,91.5554764691446,81.47979779467802,0.3397961593123071,38.27019278262014
4.0,88.89484332168375,76.08775410876734,0.3399699666056577,38.20257618293422
5.0,86.30824086584082,71.04608183181622,0.340148817346995,38.13307832902119
6.0,83.793771175307,66.33251151959553,0.34033267739176276,38.06171742870032
7.0,81.349619964198,61.92615355757272,0.34052151081675913,37.98851234143402
8.0,78.97409592902632,57.80741502576396,0.3407152799138009,37.91348257444412
9.0,76.6657028836829,53.95792142985128,0.3409139451841651,37.83664827851408
10.0,74.42326221054113,50.36044302130788,0.34111746533383264,37.758030243475716
11.0,72.24610632422946,46.99882544474687,0.34132579726955636,37.677649893379495
12.0,70.13436391732553,43.85792446532537,0.3415388960957783,37.59552928134784
13.0,68.08935281199103,40.923544542844155,0.3417567151124183,37.51169108411075
14.0,66.11408495410615,38.18238103222897,0.34197920581355684,37.42615859622381
15.0,64.21387042064792,35.621965802403814,0.34220631788703515,37.33895572396838
16.0,62.39698498389836,33.23061607721121,0.3424379992149935,37.250106978934575
17.0,60.675342255361116,30.997386313035097,0.34267419587536996,37.15963747128739
18.0,59.06509137228399,28.91202293817618,0.34291485214438033,37.067572902717075
19.0,57.58704941061707,26.964921788849146,0.34315991049999955,36.97393955907476
20.0,56.26691654677214,25.14709717870587,0.3434093116228066,36.878764303818286
21.0,55.13501104810077,23.45011703456532,0.3436629944141459,36.78207456612022
22.0,54.22582371336815,21.866091689141694,0.34392089598819897,36.683898337116005
23.0,53.577080645286365,20.38763898131101,0.3441829516837673,36.58426415995595
24.0,53.228429505722325,19.007848370945258,0.3444490950754552,36.48320112016429
25.0,53.21984661868576,17.72025139011164,0.3447192579836332,36.38073883641828
26.0,53.58984845460709,16.518794054063214,0.34499337048543843,36.276907451055564
27.0,54.37359859084076,15.397809255477181,0.3452713609260662,36.17173762053938
28.0,55.60112011827339,14.351996544050486,0.34555315592906993,36.06526050621066
29.0,57.29565827593195,13.376396712222821,0.3458386804153978,35.95750776256819
30.0,59.47233956321237,12.46637208127654,0.34612785761549,35.84851152761468
31.0,62.13720758847407,11.617585452458885,0.3464206090900384,35.73830441080142
32.0,65.28660625881706,10.825979682046452,0.3467168547454262,35.62691948254636
33.0,68.90706120384243,10.087761024639352,0.3470165128534997,35.514390262588925
34.0,72.97555383029406,9.39938245352074,0.34731950007200957,35.40075070823784
35.0,77.46016788011983,8.757527961756812,0.34762573146615855,35.2860352023898
36.0,82.32113392105612,8.159103227711261,0.34780894187153977,35.21833727501152
37.0,87.51174024162003,7.60120305394398,0.34794621045097657,35.168185665815926
38.0,92.98010293093628,7.081122910069966,0.3480807299795313,35.11910804870353
39.0,98.67038439498133,6.596334328416742,0.348212462617086,35.07111388540683
40.0,104.52434208681926,6.144478706512934,0.34834137156560635,35.02421228212509
41.0,110.4827163690004,5.723357932441963,0.3484674210730726,34.97841199418118
42.0,116.48655882206796,5.33093336785988,0.34859057644555863,34.93372142786954
43.0,122.47844141318346,4.965336359548876,0.34871080405116295,34.89014864486996
44.0,128.403440351716,4.624885665583009,0.34882807132178584,34.847701367274546
45.0,134.20999557513971,4.308133507501425,0.34894234676129765,34.806386980365694
46.0,139.85063505658388,4.013935747921646,0.3490535999472876,34.76621253737781
47.0,145.28262289759178,3.7415662717578613,0.3491618015382129,34.72718476236584
48.0,150.4687273306206,3.4908645432420466,0.34926692327375014,34.68931005516863
49.0,155.3781047871144,3.262435143155896,0.3493689379805828,34.65259449434368
50.0,159.98794094091411,3.057854923254925,0.34946781957059,34.61704384262575
51.0,164.28547418778555,2.879911546155406,0.34956354304677406,34.58266354958429
52.0,168.27080201026638,2.732798534958016,0.3496560844990004,34.54945875727206
53.0,171.95999240509133,2.622281319182281,0.34974542111332857,34.517434301777485
54.0,175.38771968990957,2.555742324573881,0.3498315311664914,34.486594718938846
55.0,178.6077812179741,2.542122377103034,0.34991439402905233,34.45694424737527
56.0,181.68962934675164,2.591709158272651,0.3499939901641324,34.42848683265817
57.0,184.70887612370956,2.7157798031822025,0.35007030112717497,34.401226131040964
58.0,187.7307523012473,2.926110342885416,0.35014330956544715,34.375165513093485
59.0,190.78807420391777,3.2343771660547467,0.35021299921610693,34.35030806758376
60.0,193.8581831229615,3.6514960925912177,0.35027935490470186,34.32665660509448
61.0,196.84613699084315,4.186949373761904,0.3503423625436012,34.30421366150323
62.0,199.58215862183988,4.848153878235387,0.3504020091293097,34.28298150160015
63.0,201.83810150482176,5.639920524034447,0.35045828273911445,34.26296212271396
64.0,203.3617150619301,6.564039294889752,0.3505111725303878,34.2441572575063
65.0,203.92016157438005,7.619014162729226,0.350560668734184,34.226568378134786
66.0,203.34104753667296,8.799982572106774,0.3506067626519866,34.2101966993276
67.0,201.53960687179944,10.098778568006775,0.3506494466547714,34.19504318086731
68.0,198.52535475422587,11.504174938055295,0.3506887141761027,34.181108531279044
69.0,194.38988357833156,13.002236844000327,0.35072455970477934,34.16839321160225
70.0,189.28314936530626,14.576775245520322,0.3507569787876657,34.156897436445966
71.0,183.38508852390572,16.20989022488143,0.3507859680157239,34.146621178919396
72.0,176.88107653145119,17.88252285777205,0.35081152502380825,34.1375641722786
73.0,169.94416662916126,19.575028423000273,0.3508336484853358,34.12972591241597
74.0,162.72531982557902,21.267718909584424,0.3508523381002474,34.12310566197309
75.0,155.34972301039645,22.941367178313573,0.350867594597363,34.11770245087654
76.0,147.9177679361308,24.577642121534033,0.35087941972068853,34.11351508037283
77.0,140.5080551304838,26.15948454173087,0.35088781622409326,34.11054212519435
78.0,133.18116075121299,27.671405478133508,0.35089278786919825,34.10878193460856
79.0,125.98345920902753,29.099708705971928,0.350894339410331,34.10823263643034
80.0,118.95018742850566,30.432677487578758,0.3508924765914806,34.1088921381318
81.0,112.10788994634207,31.660745755613195,0.35088720613827223,34.11075812902617
82.0,105.47615976120723,32.77667281368266,0.3508785357503792,34.11382808199478
83.0,99.06873398049024,33.77583066052265,0.35086647409017874,34.11809925623575
84.0,92.89405201999645,34.65657072196138,0.35085103076527047,34.123568701030884
85.0,86.95491144599846,35.42101244110668,0.3508322163781659,34.130233243587654
86.0,81.24852470527225,36.075612495338405,0.35081004241613156,34.138089514949144
87.0,75.7653993664416,36.6322381406438,0.3507845213166717,34.14713393400399
88.0,70.48875800289474,37.10878935061985,0.35075566644052075,34.157362712892734
89.0,65.39449425052184,37.52918352369978,0.35072349205550957,34.16877186003174
90.0,60.45224703307691,37.92218430613521,0.35068801333208344,34.181357180341735
91.0,55.6284293337994,38.31834498162335,0.3506492463349596,34.19511427611553
92.0,50.891532453424375,38.74485852509598,0.3506072080114335,34.210038548575014
93.0,46.21924890867104,39.21883098679959,0.3505619161783124,34.2261251997689
94.0,41.60635185454299,39.74009327496691,0.3505133895179178,34.243369231975834
95.0,37.07080721299125,40.28597935182715,0.3504616475623182,34.261765450226655
96.0,32.65592968915571,40.81015737732109,0.35040671068609136,34.28130846216341
97.0,28.42660054647823,41.2472307463384,0.3503486000932653,34.30199267963172
98.0,24.45976519526062,41.52271690841409,0.35028733780857857,34.3238123188687
99.0,20.83113798888448,41.56632070656052,0.3502229466661258,34.34676140132956
100.0,17.601787572636546,41.32483569071508,0.350155450298299,34.37083375435578
101.0,14.808279124810594,40.77112691601296,0.35008487312406783,34.39602301193072
102.0,12.458587868206454,39.90718107871114,0.3500112403405603,34.422322614441974
103.0,10.534382558854986,38.760960106777446,0.3499345779076948,34.44972581024559
104.0,8.997657429610053,37.37922368656334,0.34985491253936923,34.47822565541251
105.0,7.799624825555157,35.81857076224917,0.34977227169141867,34.50781501422952
106.0,6.889401611624929,34.1371738502825,0.34968668355015636,34.538486559494
107.0,6.220986256992347,32.38861915643942,0.3495981770206752,34.57023277278892
108.0,5.757935938131845,30.618295930157736,0.34950678171534283,34.603045944663705
109.0,5.475834206856172,28.862050815998362,0.34941252794150607,34.63691817496078
110.0,5.363038237039318,27.146435740805384,0.34931544668981535,34.67184137293366
111.0,5.4202698147931025,25.48987344124841,0.3492155696242937,34.70780725670813
112.0,5.6593069117808525,23.904209892065605,0.3491129290669839,34.74480735444034
113.0,6.101305524012861,22.396238416137813,0.3490075579878096,34.782833003775536
114.0,6.774766622979865,20.96905294662785,0.34889948999248516,34.82187535187062
115.0,7.713296415645424,19.623143109705072,0.34878875931040726,34.861925355384635
116.0,8.953248090839274,18.357233437328293,0.3486754007824367,34.902973780467185
117.0,10.531329776056204,17.16890026983495,0.3485594498486667,34.945011202724174
118.0,12.482277546413643,16.05501203740717,0.3484409425362542,34.98802800713671
119.0,14.836692321499187,15.012035669190738,0.3483199154473507,35.0320143879219
120.0,17.619157625559524,14.036245508285997,0.34819640574679195,35.076960348450065
121.0,20.846739955889895,13.123863344036847,0.3480704511494841,35.12285570125989
122.0,24.527815266141438,12.271143555999693,0.3479420899086201,35.1696900677859
123.0,28.66155869662897,11.474437390819634,0.34781136080555797,35.21745287738035
124.0,33.23774640988065,10.730219495909585,0.3476783031345899,35.26613336827135
125.0,38.23691124386593,10.035099183208956,0.34754295668995805,35.315720587772745
126.0,43.63100808808737,9.385834794636427,0.34740536175604264,35.36620339120113
127.0,49.38437915451206,8.77934289392265,0.34726555909424084,35.417570442085385
128.0,55.45490852990128,8.21271186431941,0.3471235899318683,35.469810211562226
129.0,61.79528598231554,7.683216723902489,0.346979495948848,35.52291097871344
130.0,68.35430574002388,7.1883345117188435,0.3468333192654434,35.57686083051826
131.0,75.07816489843317,6.725752981180692,0.346685102430186,35.63164766175214
132.0,81.9117254520952,6.293367246284786,0.34653488840835966,35.687259174647956
133.0,88.799750204397,5.889267046064716,0.34638272057048863,35.74368287854907
134.0,95.68801907710275,5.511715980427688,0.3462286426793707,35.80090609031619
135.0,102.52434054065131,5.159135430727902,0.34607269887808123,35.85891593434239
136.0,109.25943480666909,4.83009903104926,0.34591493367811676,35.917699342551956
137.0,115.84768808177151,4.523341351262707,0.34575539194800237,35.977243054191895
138.0,122.24776689821327,4.237785141055735,0.3455941189020356,36.03753361555827
139.0,128.4230952976713,3.9725852305920255,0.345431160087174,36.09855738089378
140.0,134.3423446081307,3.727194361604479,0.3452665613725273,36.16030051181558
141.0,139.9798922994034,3.5014547393252022,0.34510036893732227,36.222748977738284
142.0,145.31646468173594,3.2957130842514504,0.344932629259612,36.285888555882806
143.0,150.33971522606868,3.1109595305411135,0.34476338910409976,36.3497048321652
144.0,155.04591235413048,2.9489620219732213,0.3445926955115254,36.414183200693
145.0,159.4409285476425,2.812418624452526,0.344420595786696,36.47930886478806
146.0,163.54212944953773,2.705066809825923,0.34424713748764113,36.54506683703944
147.0,167.37978169621286,2.631755594345672,0.34407236841494415,36.6114419393859
148.0,170.9978573136926,2.598436133955363,0.3438963365999961,36.67841880411346
149.0,174.45302279092323,2.612078298468241,0.34371909029430264,36.74598187419984
150.0,177.8110838434478,2.6804925547111638,0.34354067795853277,36.81411540397654
151.0,181.13994201179833,2.8120669637731477,0.3433611482517885,36.882803459731484
152.0,184.4989336943939,3.0154305792362464,0.3431805500208492,36.95202992048962
153.0,187.92550607371743,3.2990631485579662,0.3429989322895674,37.021778478803796
154.0,191.42141705947347,3.670877704502186,0.34281634424833707,37.09203264163878
155.0,194.94173213417125,4.137804175775013,0.3426328352436914,37.162775731284846
156.0,198.3901851445186,4.705401057719257,0.3424484547680047,37.233990886324065
157.0,201.62362827959268,5.377527686449617,0.34226325244902644,37.30566106306275
158.0,204.46593715275634,6.156076393934332,0.3420772780403739,37.37776903573516
159.0,206.72953864450056,7.040815139654631,0.3418905814106177,37.45029739909243
160.0,208.2397688258107,8.029295526034867,0.34170321253400626,37.523228568746056
161.0,208.85754174443565,9.116882744406906,0.34151522148043095,37.596544782772995
162.0,208.49478599321031,10.296863772636796,0.3413266584054516,37.67022810379169
163.0,207.1213770186139,11.560622578026516,0.34113757354112195,37.744260419517886
164.0,204.7624371935881,12.897899265674791,0.34094801718608425,37.81862344510159
165.0,201.48870461333541,14.2970786325439,0.34075803969609225,37.893298725255704
166.0,197.40339046099623,15.745500721107856,0.34056769147494825,37.96826763526333
167.0,192.6279797537698,17.22979114203544,0.3403770229650491,38.04351138315544
168.0,187.2897718425241,18.73617681446282,0.3401860846381688,38.11901101242912
169.0,181.5124218584121,20.250784403725905,0.339994926986572,38.19474740362538
170.0,175.4096120742136,21.759920188279523,0.33980360051390357,38.270701276270316
171.0,169.0817704905852,23.250319298242196,0.33961215572629466,38.346853192087714
172.0,162.61495110004452,24.709370937266794,0.33942064312371745,38.42318355727048
173.0,156.08112941814846,26.12531691676525,0.3392291131910896,38.499672624284045
174.0,149.53952028955877,27.487408636771264,0.3390376163897078,38.57630049548737
175.0,143.03815726199505,28.786042545392814,0.3388462031486612,38.65304712545661
176.0,136.6156028471297,30.01286133539788,0.3386549238566124,38.72989232444018
177.0,130.30245480594712,31.16083269854102,0.3384638288530978,38.80681576075736
178.0,124.12270968423371,32.22431105029501,0.3382729684203471,38.88379696429905
179.0,118.09483724752054,33.19910275949057,0.33808239277474833,38.96081532937213
180.0,112.23263163930773,34.082547473919114,0.33789215205877765,39.03785011834331
181.0,106.54586603760025,34.873598820151244,0.33770229633496396,39.11488046745537
182.0,101.04050796625432,35.57297324365284,0.33751287557337256,39.191885386318184
183.0,95.71890601540105,36.18351538557016,0.33732393964452134,39.268843761327865
184.0,90.57997804118067,36.710236950487435,0.3371355383179691,39.34573436770717
185.0,85.61879849851115,37.16085040861316,0.33694772124733957,39.422535864730236
186.0,80.82642260893918,37.546001697668416,0.3367605379631904,39.49922680273296
187.0,76.18980942118061,37.879428533805566,0.3365740378686993,39.5757856287294
188.0,71.69182944478938,38.177878374485395,0.336388270229024,39.65219068956337
189.0,67.31180754359838,38.46054856773007,0.3362032841643946,39.728420236883004
190.0,63.02669686175344,38.747907628149655,0.33601912864238587,39.80445243186693
191.0,58.81304856427711,39.05979441386448,0.3358358524702125,39.88026535011017
192.0,54.64977383068665,39.412841670312396,0.33565350428705837,39.95583698665787
193.0,50.52146700326593,39.8174803187576,0.33547213255650293,40.031145261206156
194.0,46.42179999579801,40.274997739732704,0.3352917855593018,40.10616802340242
195.0,42.35648812060362,40.77517829441633,0.33511251138267134,40.18088305812067
196.0,38.34443111539609,41.29562974155934,0.33493435791834597,40.25526809159459
197.0,34.417487114837996,41.80255264230997,0.3347573728500529,40.32930079665956
198.0,30.61771675535731,42.25378542073884,0.33458160364825223,40.402958799012815
199.0,26.992969719448535,42.60334817461455,0.3344070975611091,40.47621968305734
200.0,23.591344302362927,42.806900698272436,0.334233901607799,40.54906099829103
201.0,20.455645143628736,42.82704661108913,0.3340620625698735,40.6214602655836
202.0,17.61886852549304,42.637507343118855,0.3338916269839295,40.69339498376455
203.0,15.101486186652728,42.225461856487314,0.3337226411342409,40.76484263630679
204.0,12.910675195790668,41.591961696933716,0.3335551510431498,40.8357806981603
205.0,11.041642051809301,40.75036529411631,0.3333892024652845,40.906186642785336
206.0,9.480188898770654,39.72370442350127,0.3332248408778889,40.97603794927957
207.0,8.206138745903182,38.54130742935581,0.333062111474028,41.045312109679315
208.0,7.196844834923389,37.23552529011747,0.3329010591534869,41.113986636464105
209.0,6.430383755193033,35.8388854427352,0.33274172851486067,41.182039070176586
210.0,5.888099316463979,34.38196208134061,0.3325841638472389,41.24944698720443
211.0,5.556383769073033,32.892000652743,0.33242840912186017,41.316188007709776
212.0,5.427708092727763,31.392216277754414,0.33227450798353436,41.38223980373745
213.0,5.500981918520255,29.901625828953847,0.3321225037422805,41.44758010740875
214.0,5.781389447360437,28.43523126286238,0.33197243936350923,41.51218671955716
215.0,6.279717506614389,27.00444752457802,0.3318243574612135,41.57603751786761
216.0,7.011453913772663,25.617599249121668,0.33167830028733997,41.63911046593454
217.0,7.995604909785186,24.280457386221723,0.33153430972352477,41.70138362194103
218.0,9.253406152742206,22.996737271235773,0.33139242727162377,41.76283514772559
219.0,10.806964467390054,21.768540798500254,0.3312526940444749,41.823443317910886
220.0,12.677912602364794,20.596730785110076,0.33111515075650244,41.88318652917523
221.0,14.88613930542354,19.481238033416304,0.3309798377140513,41.94204330970464
222.0,17.448634690423617,18.421306739737563,0.33084679480545454,41.99999232883891
223.0,20.37853229898494,17.41568874115967,0.33071606149244925,42.057012406289914
224.0,23.684290956881007,16.46278857719817,0.3305876767980695,42.11308252273611
225.0,27.369172632016728,15.560778407982102,0.33046167929921577,42.16818182871872
226.0,31.43088152575178,14.707683130129135,0.3303381071070448,42.22228965851912
227.0,35.86173669089892,13.901446355081589,0.33021699787457065,42.275385532869144
228.0,40.64823446924545,13.1399474139937,0.3300983887694468,42.32744917623799
229.0,45.771811658676164,12.421050593113781,0.3299823164705515,42.37846052404272
230.0,51.209099074813864,11.742608046504568,0.3298688171552478,42.428399734031395
231.0,56.932656576890146,11.102474751279292,0.32975792648851937,42.47724719672844
232.0,62.91162563187906,10.498511041964537,0.32964967961168284,42.524983546170944
233.0,69.1124690481047,9.928590024961938,0.3295441111308952,42.57158967072828
234.0,75.49970575207568,9.39061242898004,0.3294412551054938,42.61704672400445
235.0,82.03659673300514,8.882532549707932,0.3293411450361684,42.66133613581623
236.0,88.68574904331437,8.402395409074549,0.3292438138529776,42.70443962323521
237.0,95.40962553019848,7.9483804610257405,0.32914929390298603,42.74633920180433
238.0,102.17097208849344,7.5188443709723405,0.3290576169377844,42.78701719678782
239.0,108.93317945893006,7.112348295403177,0.32896881410129847,42.826456254233506
240.0,115.66061909279478,6.727667131320951,0.3288829159177223,42.864639351906355
241.0,122.31898553359277,6.3637801871479125,0.3287999522769582,42.90154981152181
242.0,128.8756388534492,6.019847913203256,0.3287199524245104,42.93717130847639
243.0,135.2999660401678,5.695188296613407,0.32864294494460905,42.9714878852553
244.0,141.5637177860336,5.389259822323479,0.3285689577512567,43.004483960336884
245.0,147.6413590610998,5.101660798362014,0.32849801806979584,43.03614434236562
246.0,153.5103502544984,4.832145699409547,0.3284301524293545,43.06645423800672
247.0,159.15150758743584,4.580655977152876,0.32836538664810594,43.09539926382756
248.0,164.5492155722324,4.347380416343388,0.32830374581674954,43.122965458994635
249.0,169.69196787261302,4.132834396874097,0.3282452542635858,43.149139309019944
