Time,J,A,S,tau
0.0,100.0,100.0,0.6560821789195198,7.4074074074074066
1.0,97.29346745425684,94.3606683144505,0.6672425485136068,7.6280700720413535
2.0,94.64848322001318,89.02900791264197,0.6785684323292361,7.847842007994475
3.0,92.06433659360977,83.99122207184364,0.6900492748587382,8.066451031556625
4.0,89.53939735036721,79.23121274378357,0.7016842474940667,8.283837632858923
5.0,87.07210281345812,74.73375467712836,0.7134723339173401,8.499942420554602
6.0,84.6609573428886,70.484471875536,0.7254123215791337,8.714706128960565
7.0,82.30453211142893,66.46978941907308,0.7375027915533882,8.928069625459026
8.0,80.00146741492817,62.67688704131749,0.7497421080805418,9.139973918091592
9.0,77.75047954957994,59.09365796726878,0.7621284077146077,9.350360163533402
10.0,75.55037660402728,55.708702436013375,0.7672128707200001,9.43274271247753
11.0,73.40007262331828,52.5111509396443,0.7665163325562084,9.41597703949513
12.0,71.2986401870178,49.49080791792323,0.7657891543525913,9.39854982875966
13.0,69.24536457219077,46.638033940096776,0.7650313220487366,9.380469918176843
14.0,67.2398268478161,43.943710899011656,0.7642428247029277,9.361746484700872
15.0,65.28201934901303,41.39921898448624,0.7634236547573924,9.342389036908346
16.0,63.372492196786,38.9964125249076,0.7625738082993584,9.32240740565439
17.0,61.51253527349714,36.72760131063932,0.7616932853349897,9.301811735050771
18.0,59.704385010368284,34.58552554285038,0.7607820900888899,9.280612473017271
19.0,57.95144130980506,32.56334192970668,0.759840231287567,9.25882036054343
20.0,56.25848332384529,30.65462324924162,0.7588677224505399,9.236446421335282
21.0,54.631855729022604,28.853367358856318,0.757864582193257,9.213501951272933
22.0,53.079596612115154,27.154022562782238,0.756830834536252,9.189998507627669
23.0,51.611472962759585,25.551533491262266,0.7557665092202072,9.165947898057153
24.0,50.23888869145015,24.041412043653512,0.7546716420264379,9.141362169426612
25.0,48.97463210403481,22.61983931231725,0.7535462751135826,9.116253596810338
26.0,47.832375355521954,21.283783212788578,0.7523904573593879,9.090634671683112
27.0,46.82594477498427,20.031147497853002,0.751204244681573,9.06451808983431
28.0,45.96831305090593,18.860933000892736,0.749987700375602,9.03791673953289
29.0,45.27029593937531,17.773398633222296,0.7487408954571914,9.010843689595402
30.0,44.738966712309036,16.77020523598681,0.7474639090077607,8.98331217737128
31.0,44.375843664497,15.854520781312425,0.7461568285223927,8.95533559666623
32.0,44.175081379525686,15.0310870000545,0.7448197502611442,8.926927485861086
33.0,44.12129747648014,14.306103365742743,0.7434527796436914,8.898101515448182
34.0,44.188501308068034,13.687113021630294,0.7420560315397313,8.8688714758216
35.0,44.33914508589416,13.182639227212283,0.7406296306682345,8.839251265289791
36.0,44.524654023780016,12.801689203148456,0.7391737118979751,8.809254877597018
37.0,44.68684125057296,12.553002401802072,0.7376884206560367,8.778896390287626
38.0,44.76123367270957,12.444110726751875,0.7361739132358982,8.748189952433373
39.0,44.68151056653026,12.480129006311275,0.7346303571834748,8.717149772917578
40.0,44.3853828942634,12.662413810625054,0.7330579315877037,8.685790108424074
41.0,43.82117731173092,12.987091485124058,0.7314568274903319,8.65412525201225
42.0,42.95434655194845,13.443779057463537,0.7298272481401481,8.622169521406267
43.0,41.77297238217875,14.014544773776324,0.7281694094117187,8.589937247768974
44.0,40.29051572050884,14.673580977031952,0.7264835400451312,8.557442764461483
45.0,38.545423878895576,15.387619965648321,0.7247698820187628,8.524700396114033
46.0,36.59715440692859,16.11737011667941,0.7230286908395772,8.491724447807051
47.0,34.51951991268356,16.819936635183307,0.7212602358441975,8.45852919453183
48.0,32.39269844844894,17.452130915432,0.7194648004895757,8.425128870872104
49.0,30.29522415489941,17.97441656968374,0.7176426826335583,8.391537660932023
50.0,28.29699079528165,18.35503065631742,0.7157941948043642,8.357769688520877
51.0,26.45402723554509,18.573565571990976,0.713919664458473,8.323839007602723
52.0,24.80564847311959,18.623138089626345,0.7120194342188104,8.289759593071615
53.0,23.374217932025946,18.51049021585575,0.7100938621416839,8.255545331533709
54.0,22.167405999457152,18.25382077618204,0.7081433218691903,8.22121001299164
55.0,21.182018423516098,17.87918316679355,0.7061682028999667,8.186767322067876
56.0,20.408074106198413,17.416352675655116,0.7041689107025373,8.15223083037865
57.0,19.83212225106376,16.89532905594674,0.7021458669637517,8.117613988198944
58.0,19.439207959986632,16.34399904405117,0.7000995096747278,8.082930117492921
59.0,19.213390867344753,15.78702046207164,0.6980302932885962,8.04819240462189
60.0,19.13721353597858,15.245628106815289,0.695938688859688,8.013413893294919
61.0,19.19061826857191,14.737970288240513,0.6938251840710632,7.978607478697892
62.0,19.34979357472515,14.279578696784949,0.6916902833941366,7.9437859005866525
63.0,19.586353541308963,13.883767528614866,0.6895345080675734,7.908961738115193
64.0,19.867220909164462,13.56180605571049,0.687358396162644,7.874147404106376
65.0,20.155277862546665,13.3228272886702,0.6851625026090423,7.839355139650985
66.0,20.410997765179776,13.17352532394228,0.6829473991187498,7.804597009978107
67.0,20.59489743113832,13.117656038904679,0.6807136742354819,7.769884899069765
68.0,20.670562925109415,13.155469578123578,0.6784619331944118,7.73523050626958
69.0,20.60806342525815,13.283148765241911,0.6761927978801927,7.700645342107656
70.0,20.387084529101017,13.492370143555918,0.6739069067185147,7.666140724590736
71.0,19.999447445929786,13.77016904180245,0.6716049145057686,7.631727776640347
72.0,19.45042095663011,14.099157816961988,0.6692874923249055,7.597417422139512
73.0,18.758430986560377,14.458292699096305,0.6669553272565517,7.563220384721858
74.0,17.95331498728503,14.824107761321914,0.6646091222657766,7.529147184173938
75.0,17.07315476436921,15.172427105748072,0.6622495959021502,7.495208135417476
76.0,16.16035748981128,15.480344544308764,0.6598774820701607,7.461413346299188
77.0,15.257520058244406,15.728246863085568,0.6574935297399503,7.427772716325288
78.0,14.403732564542807,15.901580258409286,0.6550985026359583,7.394295935501497
79.0,13.631766643712842,15.99206832477809,0.6526931789001738,7.360992483475943
80.0,12.966405582350747,15.99816235302197,0.6502783507261809,7.3278716289937345
81.0,12.423899069712121,15.924672283873036,0.6478548239884897,7.294942429312531
82.0,12.01234375568397,15.781679857877169,0.6454234178142688,7.262213730644635
83.0,11.73263318079976,15.583060204191385,0.642984964185873,7.229694167440305
84.0,11.579590005339583,15.344868627582528,0.6405403074734289,7.197392163231879
85.0,11.543033252053876,15.083912353704266,0.6380903039082689,7.165315931797734
86.0,11.608570512877328,14.816616959467321,0.6356358211676049,7.133473476616394
87.0,11.7582683647955,14.558221049865887,0.6331777377706306,7.101872593251694
88.0,11.971238602588492,14.322221730104612,0.6307169426134671,7.070520869342066
89.0,12.224346873247693,14.120008015711406,0.6282543343491206,7.039425687032485
90.0,12.493158879397606,13.960571500308825,0.6257908208637372,7.008594223729223
91.0,12.753125446923528,13.850265736176455,0.6233273186412559,6.97803345415113
92.0,12.981062795493305,13.792607258087248,0.6208647521631384,6.9477501525174326
93.0,13.15673758144078,13.788110099999447,0.6184040533008153,6.917750893795555
94.0,13.264369413855498,13.834245013997775,0.6159461606293459,6.888042056872352
95.0,13.293954260238264,13.925522437178788,0.6134920188219988,6.858629825946934
96.0,13.242044665316238,14.053791377684467,0.6110425779604871,6.8295201938442105
97.0,13.111948091322814,14.208731457630005,0.6085987928606376,6.800718963668181
98.0,12.913246803579861,14.378577803556514,0.6061616224047084,6.772231751824413
99.0,12.660657445938288,14.550998638948773,0.6037320287894101,6.744063991810443
100.0,12.372498472172147,14.714064265159498,0.6013109768682442,6.716220935262346
101.0,12.068819583579169,14.85719159171673,0.5988994334385792,6.68870765653168
102.0,11.76954401001157,14.971977267767599,0.5964983665278613,6.66152905440246
103.0,11.492831918143596,15.052771045953898,0.5941087446699237,6.634689856477268
104.0,11.25376622967339,15.096988931129424,0.5917315361988387,6.60819462109321
105.0,11.06356302502966,15.105070293414872,0.5893677085139022,6.582047741817154
106.0,10.929133398717921,15.080185327457423,0.5870182273665547,6.556253449517429
107.0,10.853075180963021,15.027689239615263,0.5846840561789536,6.530815816395034
108.0,10.83401395960087,14.954472220747933,0.5823661552960545,6.505738759419788
109.0,10.867087430917428,14.868268779560232,0.5800654812764486,6.481026043372812
110.0,10.944582554474943,14.776994029860566,0.5777829862123268,6.456681284268487
111.0,11.056675139927764,14.688165622644398,0.5755196170003802,6.432707952968736
112.0,11.192205180304745,14.608434953299838,0.5732763147078295,6.4091093789969795
113.0,11.339480085023473,14.543219146955954,0.5710540138378469,6.385888753136743
114.0,11.487104999768674,14.496458739322362,0.5688536417079676,6.3630491314107385
115.0,11.624716725356388,14.470484269083913,0.5666761177934089,6.340593438895603
116.0,11.743670379946169,14.465976379737208,0.5645223530372581,6.318524472309748
117.0,11.837564588650896,14.482051018308141,0.562393249270575,6.296844904109117
118.0,11.90255246699844,14.516433419170465,0.5602896985949853,6.275557286029761
119.0,11.937503766558446,14.565718400162716,0.558212582752357,6.254664051587067
120.0,11.943805486345958,14.625707826788407,0.556162772563725,6.234167520415891
121.0,11.925052218093652,14.691789006259986,0.5541411273318131,6.214069900978799
122.0,11.886527253514863,14.759323241099361,0.5521484943614076,6.194373294844413
123.0,11.8346063804269,14.824015277169474,0.5501857083478776,6.175079698975331
124.0,11.776099953740355,14.882227566797528,0.5482535909008995,6.156191009402177
125.0,11.71762893037244,14.931213412594499,0.5463529500341898,6.137709024323259
126.0,11.665091671790856,14.969250270745011,0.5444845796946441,6.119635447331746
127.0,11.623263285115822,14.995671480892023,0.5426492593179725,6.1019718906363245
128.0,11.59553813413242,15.010804249422959,0.540847753381832,6.084719878081252
129.0,11.583810957260578,15.015828155749682,0.5390808109497927,6.067880847937768
130.0,11.588524958960583,15.012575007593567,0.5373491652837106,6.0514561561421045
131.0,11.608761861091137,15.00329473764386,0.5356535337361605,6.0354470797926325
132.0,11.642530587586402,14.990434389562209,0.5339946165668886,6.0198548169044175
133.0,11.687063098107537,14.976410004100837,0.5323730977451435,6.004680494516767
134.0,11.739073153336019,14.963419435094355,0.5307896438159351,5.989925167336796
135.0,11.79508796842484,14.953294733037662,0.5292449038742796,5.975589821721939
136.0,11.851739392251163,14.947403281218904,0.5277395092503426,5.961675378180167
137.0,11.906012223142444,14.946597305870924,0.5262740732451944,5.948182693906848
138.0,11.955435103576685,14.951210626321487,0.5248491908872516,5.935112565262656
139.0,11.998195680478386,14.961095567367204,0.5234654387907904,5.922465730544672
140.0,12.033222281906701,14.97569475505657,0.5221233749779952,5.910242872106245
141.0,12.06019108645393,14.994126663581547,0.5208235375942755,5.89844461569741
142.0,12.07937203941978,15.015318471843214,0.5195664473139235,5.887071540350743
143.0,12.091628211985377,15.038091123413547,0.5183526041358604,5.876124170540514
144.0,12.09817137989954,15.061288834876825,0.5171824889307859,5.865602985563386
145.0,12.100474181414546,15.083844008142737,0.5160565644085239,5.855508421295951
146.0,12.100051903918354,15.104883154387906,0.5149752711429677,5.845840864582744
147.0,12.09842884016614,15.123743054381919,0.5139390324704718,5.836600666725704
148.0,12.096864479061942,15.14000322171623,0.5129482503377966,5.827788134245905
149.0,12.096427881947703,15.15350452480943,0.5120033067052753,5.819403536777601
150.0,12.097883517897284,15.164285740344887,0.511104565567497,5.811447110250153
151.0,12.101585348579505,15.172593309543695,0.5102523672744895,5.803919048383807
152.0,12.107722821133283,15.178802108207078,0.5094470368676173,5.796819521321965
153.0,12.11600942664893,15.183368026860611,0.5086888727545916,5.790148652613665
154.0,12.126121622409668,15.186796471287728,0.5079781608881688,5.783906550659917
155.0,12.137467615317293,15.189564211630303,0.5073151589140206,5.778093278309034
156.0,12.149426256956898,15.19212607267578,0.5067001125882638,5.77270888490604
157.0,12.161333689323904,15.194826285139573,0.5061332389660727,5.767753377353323
158.0,12.172544001958011,15.19795129510606,0.505614743435048,5.763226749983544
159.0,12.18252044503775,15.201645711143195,0.5051448025925732,5.759128957960443
160.0,12.190793535325863,15.205992610095663,0.5047235813227764,5.7554599440660485
161.0,12.197062276062365,15.210949266785105,0.5043512159542968,5.752219615312264
162.0,12.201124996500745,15.216430138538191,0.504027831809704,5.749407867692334
163.0,12.20293932422241,15.222267748200276,0.5037535239051482,5.747024561769678
164.0,12.202534930908676,15.228270005583033,0.5035283760890544,5.7450695435732095
165.0,12.200112701802222,15.234246998597548,0.5033524488189336,5.7435426414163535
166.0,12.195786031109485,15.239979101106657,0.5032257743656755,5.742443641059467
167.0,12.189843856030215,15.245282550511616,0.5031483824086881,5.7417723346597676
168.0,12.182588151412356,15.250028831167798,0.5031202670895645,5.741528478632601
169.0,12.174121047065496,15.254077042487097,0.5031414054643394,5.741711800989671
170.0,12.16486282276181,15.257371893326134,0.503211769469442,5.742322040121637
171.0,12.154922810816142,15.25989261942034,0.5033312873266713,5.74335887911802
172.0,12.144238538360371,15.261603437713335,0.5034998771914154,5.744821983568544
173.0,12.133047012243567,15.262551026415204,0.5037174501212146,5.746711026238647
174.0,12.121403279222255,15.262804093845247,0.503983878885451,5.749025634560172
175.0,12.109217614554654,15.262413578471609,0.5042990274444212,5.751765421322437
176.0,12.096601959816322,15.261485888417589,0.5046627419162656,5.754929991835881
177.0,12.083380189051232,15.260072851335767,0.5050748341184365,5.758518899387975
178.0,12.069424107229882,15.258237758978769,0.5055351138336586,5.762531698294749
179.0,12.054791314449679,15.256071011186247,0.5060433653798923,5.766967923452231
180.0,12.039296271899746,15.253591428025429,0.5065993439041747,5.771827059913237
181.0,12.022856672353477,15.25083519200219,0.5072028031279612,5.777108597450895
182.0,12.005524301446982,15.247836425062768,0.5078534659629618,5.782811992160646
183.0,11.987153918070845,15.244572907562018,0.5085510323389366,5.788936656392707
184.0,11.96775916560637,15.241049130940546,0.5092951998842706,5.7954820087458385
185.0,11.947408541167665,15.237257857105693,0.5100856312531726,5.802447418134919
186.0,11.926008192950192,15.233152826556445,0.5109219725734442,5.809832218498811
187.0,11.903698759793805,15.228730052928364,0.51180386735917,5.817635752856026
188.0,11.880548072694717,15.223968695837664,0.512730918405264,5.825857291696781
189.0,11.856470183171643,15.218818822094455,0.5137027149762335,5.834496073969265
190.0,11.831554092774377,15.213263081369448,0.5147188453516929,5.843551345884077
191.0,11.806006797161569,15.207316046449368,0.5157788635067646,5.853022294197074
192.0,11.77974902284671,15.200946191856163,0.5168823006233073,5.8629080470949315
193.0,11.752782844293542,15.194137062787057,0.518028687894596,5.873207737018669
194.0,11.72535705861911,15.186927577091142,0.5192175325804762,5.8839204557166545
195.0,11.697411998770663,15.179311939916628,0.5204483108134507,5.895045209659138
196.0,11.668881183754408,15.171283651421714,0.5217204975189625,5.906581002477209
197.0,11.639975975728637,15.162890993583481,0.5230335535658726,5.918526815870221
198.0,11.610684277490455,15.154148293180834,0.5243869039817254,5.9308815246170585
199.0,11.580911416780882,15.145055454127325,0.5257799693629414,5.943643987313841
200.0,11.55078320175322,15.135653761855114,0.5272121636965525,5.956813055563821
201.0,11.520355516489152,15.125971213245418,0.5286828655005004,5.9703874645052135
202.0,11.489541897676514,15.116009028504559,0.5301914439198383,5.984365910696854
203.0,11.45837622153352,15.105790679206681,0.5317372654298298,5.998747089884033
204.0,11.426981886045448,15.095352622403668,0.5333196667995965,6.013529591666479
205.0,11.395295940505907,15.084694295385995,0.5349379690179428,6.028711931081744
206.0,11.363310159055388,15.073825667513146,0.536591492730357,6.044292627612267
207.0,11.331187185287225,15.062786959924527,0.5382795372145797,6.060270119641509
208.0,11.298895994606788,15.051577879129159,0.5400013771193538,6.07664271003288
209.0,11.266383655638807,15.040193769225047,0.5417562860366207,6.093408694371325
210.0,11.233746796224583,15.028660362756167,0.5435435331031696,6.110566365933597
211.0,11.201112077279914,15.0170085453203,0.5453623568718615,6.128113842571025
212.0,11.168443319569585,15.005235595939446,0.5472119844946953,6.146049148875598
213.0,11.13570422567667,14.99333877003979,0.5490916431210778,6.164370309409862
214.0,11.103015129854441,14.981351039175323,0.5510005538408446,6.18307534638151
215.0,11.070495014799228,14.969307947482472,0.552937908735371,6.202162053545055
216.0,11.03811863423342,14.957213530177501,0.5549028915539833,6.2216281174498285
217.0,11.00586074187941,14.945071822476676,0.5568946860460078,6.241471224645161
218.0,10.973741421127624,14.932899153659381,0.5589124741275636,6.261689072117205
219.0,10.941932266202265,14.920754328957733,0.5609554158526857,6.2822792083039465
220.0,10.910444642580634,14.908654489830772,0.5630226573756343,6.303238907169478
221.0,10.879269268636858,14.89661126743967,0.5651133446682055,6.324565426062614
222.0,10.848396862745062,14.8846362929456,0.5672266237021953,6.346256022332171
223.0,10.817845480654738,14.872753077780526,0.5693616367770765,6.368307970501958
224.0,10.787718461131535,14.861019307731727,0.571517504147375,6.390718344925324
225.0,10.758043444908408,14.849456305776405,0.5736933435283608,6.413483867855648
226.0,10.728839498194262,14.838081522436132,0.5758882732513225,6.436601243318441
227.0,10.700125687198003,14.826912408232483,0.578101411647549,6.460067175339219
228.0,10.671921078128536,14.815966413687029,0.5803318770483289,6.483878367943494
229.0,10.64423895633442,14.805275255305448,0.5825787767133698,6.508031424250691
230.0,10.617109014821091,14.794876042704388,0.5848412079919549,6.532522575407735
231.0,10.590577796365984,14.78479043748396,0.5871182769615945,6.557347971693215
232.0,10.56469186601959,14.775040070760864,0.5894090897204013,6.582503763423216
233.0,10.539444976495735,14.765646254108846,0.5917127462886764,6.607986059270048
234.0,10.51482901884109,14.756633129670645,0.5940283465829146,6.63379063679378
235.0,10.490901178508404,14.748026826927056,0.5963549980957782,6.659913140341815
236.0,10.467718731978483,14.739853477050051,0.5986918083304497,6.686349214201053
237.0,10.445259010545607,14.732131507133177,0.6010378792994896,6.713094454185056
238.0,10.423496248817218,14.72487852410355,0.6033923192859257,6.7401440996956445
239.0,10.402500112096257,14.718121043725688,0.6057542466997853,6.767493252615048
240.0,10.38234036346381,14.7118855910362,0.608122779959681,6.7951370147825125
241.0,10.362979453132795,14.70618760321633,0.6104970327800364,6.823070432948119
242.0,10.344372750912502,14.70104160458626,0.6128761313273569,6.851288174143559
243.0,10.326597881711882,14.696474652939111,0.6152592140440697,6.879784764338614
244.0,10.309732557403043,14.692513815017964,0.6176454193788993,6.908554729474477
245.0,10.293724627606746,14.689171446870693,0.6200338820289917,6.937592534162752
246.0,10.278513252390601,14.686458652219184,0.622423754950681,6.96689224268134
247.0,10.26418047457065,14.684402577629958,0.6248142050918319,6.996447775642206
248.0,10.250808400875755,14.683030376877452,0.6272043994043716,7.026253053640061
249.0,10.238330593229332,14.68235125135795,0.6295935021686322,7.056301930248096
