Time,T,J,A,S,tau
0,283.859059297240,100.0,100.0,0.7788832813152373,10.1010101010101
1,280.717502985097,107.03806984212123,93.67028122934715,0.7773322375366112,10.53231608476776
2,280.518689750851,114.30575546550655,87.78172653453835,0.7757580315344071,10.974596521969545
3,280.321737804392,121.54069287249864,82.30177141957554,0.7741627483326834,11.427432997475263
4,280.126705506835,128.52090387134794,77.19940114866475,0.7725479591514086,11.890541734653018
5,279.933650650458,135.07180604395663,72.44614115960135,0.7709151678206378,12.363644136310812
6,279.742630441581,141.06852145668307,68.01582660175133,0.7692658122947669,12.846466750419205
7,279.553701483615,146.43289026628034,63.88442134596993,0.7676012658633987,13.338741258512183
8,279.366919760287,151.12684561795135,60.02982204165517,0.7659228389447238,13.84020441582243
9,279.182340619053,155.1446643742979,56.431701637800685,0.764231780436603,14.350598024774017
10,279.000018754696,158.50493099317632,53.0713396584903,0.7625292794545524,14.86966887446467
11,278.820008193119,161.24326943041106,49.931494743995295,0.7608164668869297,15.397168692716004
12,278.642362275337,163.40616375590102,46.99627955898347,0.7590944170434263,15.932854087607781
13,278.467133641670,165.04602298443686,44.251047852192116,0.7573641493038739,16.47648648606031
14,278.294374216142,166.2174396182097,41.68229048198528,0.755626629785936,17.027832067627127
15,278.124135191100,166.9744973853737,39.277540624135064,0.7538827730141828,17.586661694846626
16,277.956467012042,167.3689443472104,37.02528759318378,0.7521334435859105,18.152750840445492
17,277.791419362667,167.44904983977912,34.9148973363998,0.7503794578517212,18.725879509468562
18,277.629041150157,167.2589664099351,32.9365410627995,0.7486215854921011,19.30583216781649
19,277.469380490678,166.83847564685354,31.08113431424235,0.7468605512533848,19.892397651539284
20,277.312484695132,166.2229891421618,29.340270231776962,0.7450970365073113,20.48536908902919
21,277.158400255128,165.44371062489654,27.706169939980754,0.7433316808016905,21.084543820883137
22,277.007172829211,160.42652212212965,27.87975136501849,0.7423658290830022,21.45665112400526
23,276.858847229331,154.00403035183845,28.034837320323128,0.741622041278546,21.767302076842366
24,276.713467407565,147.6004699663759,28.247148795539385,0.7408848022557826,22.07885384472181
25,276.571076443091,141.2752110342442,28.450772020151028,0.7401542590019937,22.39117327146583
26,276.431716529426,135.08094484435338,28.595010520758184,0.7394305578847176,22.704123613743942
27,276.295428961918,129.06252216125304,28.64329982857666,0.738713844860777,23.017564515304652
28,276.162254125517,123.25647507122565,28.57168678585585,0.7380042656972544,23.33135198563368
29,276.032231482799,117.69102734695886,28.367056241261984,0.737301966190957,23.64533835969312
30,275.905399562281,112.38658358050567,28.02524820038051,0.7366070924088579,23.959372290199344
31,275.781795946997,107.35629966277166,27.549069953583913,0.7359197909174392,24.273298645928868
32,275.661457263366,102.607148182743,26.94675867952586,0.7352402090513703,24.586958578437724
33,275.544419170337,98.14068099426673,26.23037870587054,0.7345684951744318,24.9001893892513
34,275.430716348824,93.95403832833797,25.414440936602748,0.7339047989276063,25.212824545262492
35,275.320382491425,90.04079273939591,24.514811060054257,0.7332492715152067,25.524693597215215
36,275.213450292445,86.39177349228878,23.54777397064945,0.7326020659743221,25.83562214882231
37,275.109951438202,82.99577623031766,22.529363716359086,0.731963337464269,26.145431797530826
38,275.009916597639,79.8401823437372,21.474837837329726,0.7313332435598153,26.453940078767854
39,274.913375413239,76.91147998734668,20.39833118485917,0.7307119445450898,26.760960414533812
40,274.820356492239,74.1956899998904,19.312630867027995,0.7300996037142953,27.066302055380604
41,274.730887398152,71.67870864405614,18.229053620719828,0.7294963876770892,27.369770020340283
42,274.644994642601,69.34657611383379,17.1574042505976,0.728902466667582,27.671165035594846
43,274.562703677465,67.18568171910911,16.10599123710216,0.7283180148581441,27.970283469588285
44,274.484038887331,65.18291543303903,15.081695462288895,0.7277432106842148,28.266917264182627
45,274.409023582275,63.32577226234781,14.09006527901519,0.7271782371503547,28.560853882079737
46,274.337679990951,61.60242288073746,13.13543285458917,0.7266232821648241,28.851876231928195
47,274.270029254005,60.00175010588582,12.221034234847789,0.7260785388328738,29.13976262802136
48,274.206091417809,58.513369779849235,11.34913890772963,0.7255442058125935,29.4242867020617
49,274.145885428526,57.12762827284353,10.521178513142718,0.7250204876262448,29.705217354994996
50,274.089429126488,55.83558898071464,9.737858034379473,0.724507594986087,29.982318696844647
51,274.036739240916,54.629002496740924,8.999280315307637,0.7240057450509206,30.255350040375262
52,273.987831384961,53.571582429786744,8.23445615670291,0.7235151619431407,30.524065735406783
53,273.942720051076,53.0615740239205,7.082714756329839,0.7230360766615608,30.78821533884976
54,273.901418606722,52.558102457480985,6.0925719218934455,0.722568727725535,31.0475434115706
55,273.863939290410,52.06092169792688,5.241246030039206,0.722113361353628,31.301789557050103
56,273.830293208069,51.56979420389653,4.50918657521978,0.7216702317503658,31.55068841094959
57,273.800490329759,51.084490112245696,3.879613961090751,0.7212396013715858,31.79396965032143
58,273.774539486717,50.60478694027677,3.3381211482760396,0.7208217411774258,32.03135801661033
59,273.752448368738,50.130469306758116,2.8723390044845645,0.7204169308771897,32.26257335241948
60,273.734223521896,49.66132865832764,2.4716456458649287,0.7200254591448995,32.487330664319686
61,273.719870346608,49.19716301143637,2.1269159064849004,0.7196476238136006,32.70534020780767
62,273.709393096027,48.737776711850266,1.8303102342656603,0.7192837320542121,32.916307593722706
63,273.702794874791,48.2829802001987,1.5750932634317092,0.7189341005194223,33.119933927297616
64,273.700077638095,47.832589788799325,1.3554758007928238,0.71859905545228,33.31591598088517
65,273.701242191114,47.386427454604934,1.1664813864140091,0.7182789327691596,33.503946398359766
66,273.706288188766,46.94432063935859,1.0038326194325229,0.717974078101064,33.68371394030668
67,273.715214135813,46.50610205741895,0.8638514019970658,0.7176848467829836,33.854903776165415
68,273.728017387304,46.07160951807719,0.7433744292321047,0.7174116038039987,34.01719782094649
69,273.744694149360,45.640685756254726,0.6396816687738947,0.7171547237067314,34.17027512324226
70,273.765239480296,45.21317826815207,0.5504333562320555,0.7169145904166847,34.313812314355545
71,273.789647292087,44.78893915962289,0.4736163828796475,0.7166915970150809,34.44748411726935
72,273.817910352172,44.36782500382664,0.4074991030242337,0.716486145448649,34.570963920221445
73,273.850020285596,43.94969670208072,0.35059153891429273,0.7162986461509734,34.68392442527009
74,273.885967577493,43.534419355590046,0.30161132170649846,0.7161295175869052,34.78603837333952
75,273.925741575905,43.12186214690191,0.25945500847799935,0.7159791857173664,34.87697934967592
76,273.969330494937,42.71189822379283,0.22317295509042007,0.7158480833589734,34.95642267636627
77,274.016721418251,42.304404592136024,0.19194765388648918,0.7157366494443244,35.02404639733419
78,274.067900302895,41.89926201839242,0.16507544813691002,0.7156453281823372,35.07953236026911
79,274.122851983461,41.49635493474696,0.1419506797377572,0.7155745681001647,35.12256739418663
80,274.181560176579,41.095571351173206,0.12205188480854959,0.7155248209633747,35.15284459142028
81,274.244007485745,40.696802776733335,0.1049301142587736,0.7154965405756919,35.170064699594235
82,274.310175406473,40.299944144276054,0.09019891629708236,0.7154901814503742,35.1739376129587
83,274.380044331782,39.90489374006146,0.07752553407263417,0.7155061973430442,35.16418397002105
84,274.453593557999,39.511553142082995,0.06662343994766147,0.7155450396478082,35.14053686541783
85,274.530801290902,39.11982716267393,0.057245985181612544,0.7156071556595156,35.1027436568693
86,274.611644652174,38.72962379433685,0.04918079016882317,0.7156929866933146,35.050567863214106
87,274.696099686181,38.340854163562994,0.04224496896323508,0.7158029660609769,34.98379116537671
88,274.784141367075,37.95343248977764,0.03628109044064352,0.7159375169159733,34.90221548490788
89,274.875743606206,37.5672760461928,0.031153606468473153,0.7160970499712213,34.80566511475536
90,274.970879259852,37.18230512778373,0.026745796057468043,0.716281961084119,34.69398891844448
91,275.069520137267,36.798443025045565,0.02295718792765019,0.7164926287265156,34.567062569663165
92,275.171637009030,36.41561599880216,0.01970128922149809,0.7167294113679705,34.424790777469475
93,275.277199615708,36.033753261110576,0.016903629836928682,0.7169926447615004,34.267109515785144
94,275.386176676822,35.652786962285916,0.014500111908143027,0.7172826391508345,34.093988230495505
95,275.498535900117,35.27265217866862,0.012435568079509542,0.7175996764588009,33.90543193935392
96,275.614243991131,34.893286905245155,0.010662509564649819,0.7179440074440799,33.70148324033432
97,275.733266663058,34.51463205437102,0.009140066655444885,0.7183158488426659,33.48222420745265
98,275.855568646913,34.13663145548249,0.00783307461320327,0.718715380580842,33.24777807033277
99,275.981113701978,33.75923185812308,0.006711271784836667,0.7191427430555177,32.9983106800781
100,276.109864626544,33.38238294086054,0.005748619764022095,0.7195980344886828,32.73403175473555
101,276.241783268933,33.00603732168815,0.004922722702035582,0.7200813084567222,32.45519579913246
102,276.376830538804,32.630150570111795,0.0042143144520850355,0.7205925716120319,32.16210268234609
103,276.514966418737,32.254681224671984,0.0036068225197896635,0.7211317815845143,31.855097889933706
104,276.656149976089,31.879590812549843,0.003085998376855185,0.7216988451602534,31.534572363649787
105,276.800339375126,31.504843869256607,0.0026395900958628253,0.7222936167831882,31.20096189604358
106,276.947491889416,31.13040796302991,0.0022570628589581444,0.7229158973405245,30.854746127226118
107,277.097563914494,30.756253838998514,0.0019296374582416784,0.7235654333036085,30.496447094005845
108,277.250510980780,30.382436929400004,0.0018191777926816206,0.7242419164093524,30.126627219914635
109,277.406287766756,30.008855937834376,0.0017174815784595035,0.7249449832395688,29.74588720320162
110,277.564848112401,29.635489512857433,0.0016209219504444304,0.7256742159961228,29.354862963880954
111,277.726145032861,29.262320916817615,0.0015292628168224614,0.7264291433848968,28.954222435520595
112,277.890130732377,28.88933664209744,0.0014422777766635454,0.7272092410187532,28.544662438432436
113,278.056756618448,28.516526409811508,0.001359750218319671,0.7280139337677196,28.126904386803048
114,278.225973316228,28.143883200852528,0.001281473071361033,0.728842597826747,27.701690185177473
115,278.397730683157,27.771403287603874,0.0012072483781441854,0.7296945630764725,27.269777969112134
116,278.571977823820,27.399086290729485,0.0011368873173323805,0.7305691155844045,26.83193765304813
117,278.748663105029,27.02693522079079,0.0010702091490610655,0.7314655005065137,26.388946324935286
118,278.927734171123,26.65495647433384,0.0010070407999925608,0.7323829259137049,25.941583524433693
119,279.109137959478,26.283159860584437,0.0009472167326241871,0.7333205663949732,25.490626741586535
120,279.292820716239,25.911558627734912,0.0008905786142374844,0.734277566761118,25.036847062567986
121,279.478728012240,25.540169511214525,0.0008369753481055333,0.7352530457701405,24.581004839429003
122,279.666804759136,25.169012772826346,0.0007862623144066354,0.7362461000613344,24.123845505161416
123,279.856995225730,24.798112182257874,0.0007383009481052286,0.7372558085087985,23.66609591971323
124,280.049243054480,24.42749503104573,0.0006929586922662848,0.7382812362104701,23.20846099610303
125,280.243491278207,24.057192144941276,0.000650108741800218,0.7393214383742716,22.75162066609292
126,280.439682336969,23.687237914737675,0.0006096300631757179,0.7403754640220119,22.29622706069336
127,280.637758095122,23.317670323141417,0.0005714068746511862,0.741442359811031,21.842901909323157
128,280.837659858543,22.948530938214855,0.0005353285649004999,0.7425211736261222,21.392234663294392
129,281.039328392025,22.579808595276507,0.0005646695167945124,0.7436109579948907,20.944781990296917
130,281.242703936831,22.211613400455867,0.0006202030509881357,0.7447107735320733,20.50106510392217
131,281.447726228396,21.844029388449602,0.0006771042965545781,0.7458196911194079,20.06156976320082
132,281.654334514192,21.477118881297507,0.0007355355174075027,0.7469367948668155,19.62674582756372
133,281.862467571723,21.110948600297718,0.0007956353115218354,0.7480611845520416,19.197007047321
134,282.072063726674,20.745589706883596,0.0008575151629633104,0.7491919777932855,18.772731267043778
135,282.283060871180,20.381117777760274,0.0009212561540713834,0.7503283118478957,18.354261219373324
136,282.495396482233,20.01761292813184,0.0009869058908326092,0.7514693444407198,17.941905038364503
137,282.709007640209,19.65515999209381,0.0010544710981019354,0.7526142577888018,17.53593516649762
138,282.923831047513,19.293847765313227,0.0011239235426829415,0.7537622540241393,17.136595482403763
139,283.139803047331,18.93377010924637,0.001195184826946449,0.7549125621361387,16.74409447759801
140,283.356859642500,18.575024648284163,0.001268132389509643,0.7560644366536615,16.358612852872266
141,283.574936514467,18.217713362695804,0.0013425949118391256,0.7572171567217834,15.980302449258224
142,283.793969042346,17.86194242395392,0.0014183489258769886,0.7583700275414955,15.609287389442578
143,284.013892322074,17.50782157611056,0.0014951211790649014,0.7595223808003166,15.245666843339508
144,284.234641185635,17.155457898086034,0.0015809944054159648,0.7606735735665396,14.88951628372538
145,284.456150220379,16.804969503664193,0.0017118975365606169,0.7618229900651271,14.540888379340018
146,284.678353788397,16.456545918493013,0.0018989299405879072,0.7629700392151928,14.199815424921114
147,284.901186045976,16.110412272154246,0.0021512531823938592,0.7641141551984046,13.86631058908321
148,285.124580963109,15.766832488900771,0.0024794051684400567,0.7652547969335382,13.540369452022563
149,285.348472343062,15.426117453365492,0.0028953527495897452,0.76639144759236,13.22197146772806
150,285.572793841985,15.088634222313209,0.0034125000483276047,0.7675236139709525,12.911081401043543
151,285.797478988579,14.754816356221072,0.00404564024518305,0.7686508258702329,12.607650679086902
152,286.022461203784,14.425175022106005,0.004810828605019515,0.7697726354282773,12.311618693539481
153,286.247673820516,14.100310513522041,0.005725177662964286,0.7708886163708197,12.02291403810127
154,286.473050103414,13.780923793448032,0.006806543269621166,0.7719983633309838,11.741455665200979
155,286.698523268623,13.467827163858386,0.008073132814047946,0.7731014910666326,11.467153986063517
156,286.924026503578,13.161948477856189,0.009566306550746568,0.774197633672261,11.199911907891066
157,287.149492986803,12.864456922052993,0.011409556817378543,0.7752864439923749,10.93962575344987
158,287.374855907714,12.577056884756484,0.01378230735462024,0.7763675927115687,10.686186188383001
159,287.600048486412,12.30224554599805,0.016922113088723673,0.7774407676566376,10.439479037896994
160,287.825003993477,12.04362890570587,0.021138137304820986,0.7785056730722434,10.199386049020898
161,288.049655769738,11.806322588848642,0.026825674210121168,0.7795620289154079,9.965785592050416
162,288.273937246025,11.597441468315772,0.03448094025524473,0.7806095701413358,9.738553309971474
163,288.497781962895,11.426675441810502,0.044714909584172284,0.7816480460282966,9.51756270904211
164,288.721123590328,11.30693233949267,0.058264648129692474,0.7826772195170223,9.302685699030727
165,288.943895947381,11.25500648202337,0.07601045954456204,0.7836968665714658,9.093793084874294
166,289.166033021795,11.292375805065587,0.09918860657491153,0.7847067755616539,8.89075501274199
167,289.387468989562,11.447277102310506,0.12985041571071232,0.7857067466691607,8.693441373429849
168,289.608138234425,11.75867644080714,0.1712944133604124,0.7866965913109748,8.501722166789472
169,289.827975367324,12.281836811702263,0.22859096293623685,0.7876761316049905,8.315467825684737
170,290.046915245773,13.095069031657443,0.3092314315379746,0.7886451998289928,8.134549510880506
171,290.264892993161,14.30628055631575,0.42388388454056064,0.7896036379255493,7.958839370098014
172,290.481844017976,16.05593754590849,0.5872048718740777,0.7905512970170822,7.788210769571609
173,290.697704032948,18.51025376265337,0.8186510883535116,0.7914880369514173,7.62253849722824
174,290.912409074096,21.835757647896507,1.1441121091379813,0.7924137258598344,7.4616989424185505
175,291.125895519682,26.148352228366427,1.600411897778196,0.7933282397439949,7.305570251319297
176,291.338100109065,31.429222860796227,2.242670618493676,0.7942314620756141,7.154032462892607
177,291.548959961445,37.39599734137354,3.1536418774079085,0.7951232834211237,7.00696762439345
178,291.758412594498,43.3456378265357,4.452735642569266,0.7960036010809535,6.864259890621587
179,291.966395942888,48.08426403922163,6.298866467565875,0.7968723187483547,6.725795606432987
180,292.172848376660,50.18157890727142,8.876299952449536,0.797729346186038,6.59146337536597
181,292.377708719502,48.64836273061721,12.351688518287675,0.798574598919572,6.461154114540547
182,292.580916266874,43.54680900288152,16.796264776661147,0.7994079979328811,6.3347611005264115
183,292.782410803994,35.87100785995201,22.059962791193303,0.8002294694047497,6.212179999656325
184,292.982132623682,26.996008573068746,27.5994929352583,0.8010389444409964,6.093308892454608
185,293.180022544052,18.434353811989002,32.383022819219484,0.8018363588224712,5.978048288594556
186,293.376021926050,11.668339325755934,35.18764665907382,0.8026216527681778,5.866301133921143
187,293.570072690829,7.50410446108933,35.40952614470333,0.8033947707077421,5.757972811056111
188,293.762117336959,5.56623032044883,33.594321768274426,0.8041556610662295,5.652971133649757
189,293.952098957468,4.853949386711339,30.852635026036953,0.8049042760655057,5.551206334455282
190,294.139961256701,4.637466307472638,27.971778454841775,0.8056405715274174,5.452591049820899
191,294.325648567004,4.655854329984531,25.254352787583706,0.8063645066955832,5.35704029869678
192,294.509105865220,4.893096718828143,22.769124467881774,0.8070760440412869,5.264471461665741
193,294.690278788992,5.415740564192981,20.52175169290151,0.8077751491215485,5.174804250099692
194,294.869113652872,6.3099464209753435,18.512222279825245,0.8084617904117091,5.087960678151958
195,295.045557464232,7.646006004376566,16.752357587539358,0.8091359391609874,5.003865029452002
196,295.219557938961,9.441816511981266,15.272299803400724,0.8097975692414487,4.922443824335607
197,295.391063516964,11.623185506046973,14.123053321782287,0.8104466569952734,4.843625786230205
198,295.560023377436,13.994456137148287,13.374106541829814,0.8110831811556972,4.7673417973195615
199,295.726387453925,16.242141664032093,13.102407522393097,0.8117071226832907,4.693524866126092
200,295.890106449164,17.987174437713524,13.369433075313484,0.8123184646614066,4.622110086449953
201,296.051131849682,18.883896003169124,14.187429532064783,0.8129171921838778,4.553034597619461
202,296.209415940177,18.7407379013568,15.484301324262999,0.8135032922477183,4.486237544326956
203,296.364911817657,17.610568957942448,17.085916588127944,0.8140767536480967,4.421660036622145
204,296.517573405337,15.79042033168737,18.734501638969547,0.814637566892445,4.359245107687039
205,296.667355466296,13.72043087600687,20.1466010003199,0.8151857241023726,4.298937674056908
206,296.814213616874,11.83644039298254,21.095381315950515,0.8157212189258723,4.2406844951034985
207,296.958104339834,10.4467673123278,21.48445542283753,0.8162440464553056,4.18443413252407
