Time,J,A,S,tau
0.0,100.0,100.0,0.9999243671349364,5.555555555555555
1.0,99.99372373864114,98.63124592804739,0.9998784259097526,5.320558933730462
2.0,99.98816411295635,97.31781697866751,0.9998393766747738,5.1060363398668915
3.0,99.98324604719264,96.05791974049232,0.9998064630188687,4.911927804862676
4.0,99.97889850328593,94.8490928983129,0.9997789781654862,4.737981519534216
5.0,99.97505741360122,93.68898316812366,0.9997725578791359,4.665289311781726
6.0,99.97166580570135,92.57536062041555,0.9997945353648541,4.742295691722033
7.0,99.96867214070822,91.50611260421505,0.9998144503251079,4.820831166643261
8.0,99.96603074925679,90.47922291174821,0.999832486178098,4.900907222149189
9.0,99.9637019047977,89.49279249691757,0.9998488094718258,4.982534855861985
10.0,99.96164894042751,88.54498502061828,0.9998635773017525,5.065724096463999
11.0,99.95984145262209,87.6340969829747,0.9998769280056489,5.150484161104101
12.0,99.95825066151919,86.75846081120976,0.9998889948033071,5.236823762921983
13.0,99.95685326988044,85.91652851494423,0.9998998942639307,5.3247500356075514
14.0,99.95562840727005,85.10680494265581,0.999909735995404,5.414269923423816
15.0,99.95455868762848,84.3278666149997,0.9999186199338633,5.5053886819168465
16.0,99.9536319254664,83.57838228116158,0.9999266343155423,5.598110851998515
17.0,99.95283702214381,82.85704312864911,0.9999338644745134,5.692440191238292
18.0,99.95217112425546,82.16264188307514,0.999940383383192,5.7883784038917545
19.0,99.95163493878357,81.49400773725468,0.9999462597999462,5.885927017231254
20.0,99.95123481589673,80.85001768471699,0.9999515569581641,5.985085609470561
21.0,99.95099359132745,80.22963342723122,0.9999563289354385,6.085852391427014
22.0,99.95093589759223,79.63182851325374,0.999960628542732,6.188225212190698
23.0,99.95110809612133,79.05564437431721,0.9999645017692825,6.292199195829996
24.0,99.95158324604809,78.5001782692611,0.9999679893752561,6.397768655222975
25.0,99.95243664784401,77.9645382653965,0.9999711310636253,6.504927003155848
26.0,99.95380508622088,77.44791101973101,0.9999739599960579,6.613664600929418
27.0,99.95586260532667,76.94951813681158,0.9999765066801151,6.723971385497788
28.0,99.95879146559568,76.46859371866196,0.9999788006011763,6.835836033919853
29.0,99.962893297513,76.00445376045178,0.9999808659801653,6.949243832410298
30.0,99.9685252362689,75.5564441465047,0.9999827253775785,7.064179721921422
31.0,99.97605804773337,75.12392224618148,0.999984400547826,7.180627194027318
32.0,99.98606507989597,74.70634119750854,0.9999859090914245,7.298566043027759
33.0,99.99920180824752,74.30318863759423,0.9999872673766805,7.417975594745609
34.0,100.01612984965112,73.91395473968299,0.9999884914890332,7.538834309967386
35.0,100.03774275556862,73.53823498554652,0.9999895945764573,7.661116208074499
36.0,100.06510773005358,73.17570440021682,0.9999905881544083,7.784794048794546
37.0,100.09929630108198,72.82603936861888,0.9999914836969849,7.9098404742137545
38.0,100.14151304295116,72.48898761339774,0.99999229137127,8.036224602301502
39.0,100.19317094674697,72.16443702703957,0.9999930195247468,8.163912485663996
40.0,100.25570503352262,71.85229099455866,0.9999936763527933,8.292870045476466
41.0,100.33063064452769,71.55254111848225,0.9999942691613775,8.423059997915484
42.0,100.41953496498068,71.26533395997136,0.9999948040692072,8.554442212927158
43.0,100.52400561314533,70.99084138999669,0.9999952870372689,8.686976088300206
44.0,100.55876941553622,66.71310550198976,0.9999957232861872,8.820617662279423
45.0,100.53147535939222,60.15544757090185,0.9999961174668021,8.955320795939636
46.0,100.49832489373249,54.25597479943058,0.9999964737772953,9.09103722215495
47.0,100.45836583386594,48.94940105526303,0.9999967959903052,9.227716393622316
48.0,100.41055776724637,44.17717904764967,0.9999970874950277,9.365305461247827
49.0,100.35377640392863,39.886786361627124,0.9999973513371495,9.503749267443485
50.0,100.28681971516116,36.03114874172796,0.9999975902534084,9.642990335606529
51.0,100.20841665193021,32.56799758227093,0.9999978067030207,9.782968856764315
52.0,100.11723847159749,29.459419130253735,0.9999980028966686,9.923622694673858
53.0,100.01191152306193,26.67137583845445,0.9999981808208719,10.064887369552238
54.0,99.94585084488368,24.119699304828828,0.9999983422619776,10.206696072575225
55.0,99.94584173666857,21.75821625846786,0.9999984888261598,10.348979656771395
56.0,99.94583350298075,19.62930855651156,0.9999986219577927,10.491666649269492
57.0,99.94582604913569,17.709901425862164,0.9999987429560415,10.634683255814732
58.0,99.9458192913152,15.979218019150565,0.9999988529898495,10.777953372828597
59.0,99.94581315526462,14.41856477560094,0.9999989531113148,10.921398604784109
60.0,99.94580757517674,13.011123765263115,0.999999044267337,11.064938274205952
61.0,99.94580249266811,11.74174751772356,0.9999991273106184,11.20848944677649
62.0,99.945797855903,10.596802649365113,0.9999992030092517,11.351966955748917
63.0,99.94579361883653,9.564016940699316,0.9999992720551456,11.495283421970672
64.0,99.94578974051964,8.632332801814362,0.999999335071979,11.63834928980528
65.0,99.94578618450763,7.791794891146146,0.99999939262208,11.781072859935266
66.0,99.94578291834428,7.033435849118124,0.99999944521253,11.923360321036995
67.0,99.94577991308877,6.349174373586522,0.9999994933009113,12.065115797234977
68.0,99.94577714291911,5.731735856522869,0.9999995373001798,12.206241387171238
69.0,99.94577458476996,5.174558014314774,0.9999995775832239,12.346637215383781
70.0,99.94577221801823,4.671732551787541,0.9999996144868863,12.48620148501336
71.0,99.9457700242099,4.2179308194896725,0.9999996483155121,12.624830531041765
72.0,99.94576798680781,3.808351622720863,0.9999996793443032,12.762418888419766
73.0,99.9457660909854,3.4386667575958545,0.9999997078220793,12.898859348643633
74.0,99.94576432342578,3.104972840649107,0.9999997339740481,13.034043041793089
75.0,99.9457626721633,2.8037529322210566,0.9999997580039901,13.167859500282765
76.0,99.94576112642581,2.5318327776573186,0.9999997800965033,13.300196751974026
77.0,99.94575967651002,2.286353074639394,0.9999998004187763,13.430941395837669
78.0,99.9457583136598,2.064732106032811,0.9999998191223695,13.559978703484942
79.0,99.94575702996578,1.8646440236509079,0.999999836344686,13.687192710298486
80.0,99.94575581827253,1.683988731881496,0.999999852210364,13.81246632470676
81.0,99.9457546720968,1.520873417875172,0.9999998668325112,13.935681436443085
82.0,99.94575358555673,1.373589504676792,0.9999998803137855,14.056719034619576
83.0,99.94575255330518,1.2405959368416504,0.9999998927474317,14.175459333487764
84.0,99.94575157047532,1.1205024226575744,0.9999999042181248,14.2917819013021
85.0,99.94575063262651,1.0120539021732706,0.9999999148028292,14.405565803352635
86.0,99.94574973570163,0.914118743876269,0.9999999245714699,14.516689743985527
87.0,99.94574887598387,0.8256746976683476,0.9999999335876307,14.62503222641102
88.0,99.94574805006212,0.7458002630115538,0.9999999419091026,14.730471710157522
89.0,99.94574725479708,0.673662782303844,0.9999999495884374,14.832886787635443
90.0,99.9457464872924,0.6085115623371209,0.9999999566734079,14.932156357972861
91.0,99.94574574486818,0.5496683451883257,0.9999999632074386,15.028159821568217
92.0,99.9457450250367,0.4965213616395294,0.9999999692299941,15.120777270045219
93.0,99.94574432548146,0.4485180932491996,0.9999999747769133,15.209889700182387
94.0,99.94574364403665,0.4051598242823679,0.9999999798807355,15.295379219836146
95.0,99.94574297867021,0.3659964227298407,0.9999999845709605,15.377129281186896
96.0,99.94574232746649,0.33062125924050034,0.9999999888743176,15.455024903850223
97.0,99.94574168861202,0.29866752487701964,0.9999999928149708,15.528952924985301
98.0,99.94574106038085,0.26980367177994286,0.9999999964147354,15.598802242201389
99.0,99.94574044112213,0.24373068252195573,0.9999999996932435,15.66446407619338
100.0,99.94573982924759,0.2201782382221193,1.0000000026681117,15.725832236392874
101.0,99.9457392232203,0.19890250511716465,1.0000000053550764,15.782803390740892
102.0,99.94573862154373,0.1796830916938703,1.0000000077681188,15.835277356115723
103.0,99.94573802275113,0.1623211065910224,1.0000000099195763,15.883157370369867
104.0,99.94573742539565,0.14663686632399106,1.0000000118202292,15.926350406411427
105.0,99.94573682804018,0.13246809796256523,1.0000000134793907,15.964767444433868
106.0,99.94573622924764,0.11966830036350243,1.0000000149049644,15.998323802877346
107.0,99.94573562757112,0.1081050665479177,1.0000000161035085,16.02693941343816
108.0,99.94573502154392,0.09765892294520999,1.0000000170802716,16.050539155655265
109.0,99.94573440966951,0.08822183929314115,1.000000017839232,16.069053140548814
110.0,99.94573379041091,0.07969635432910166,1.0000000183831133,16.082417032713586
111.0,99.94573316217995,0.0719943348588913,1.0000000187133984,16.090572347018114
112.0,99.94573252332566,0.06503625527185394,1.000000018830327,16.093466743407017
113.0,99.94573187212221,0.05875022031454173,1.0000000187328832,16.091054336220658
114.0,99.94573120675605,0.05307132439508681,1.000000018418774,16.08329595139542
115.0,99.94573052531156,0.04794092179255917,1.0000000178843897,16.070159440241753
116.0,99.94572982575669,0.043306029283611824,1.0000000171247638,16.05161989618919
117.0,99.9457291059256,0.0391188080614272,1.0000000161335012,16.027659954848776
118.0,99.94572836350187,0.03533600743006128,1.0000000149027146,15.99826997620835
119.0,99.9457275959977,0.03191859572125364,1.0000000134229237,15.96344830448326
120.0,99.94572680073328,0.02883127139112617,1.0000000116829582,15.923201425518718
121.0,99.94572597481218,0.026042180551267634,1.000000009669825,15.877544160595962
122.0,99.94572511509519,0.023522513622287015,1.00000000736857,15.826499803853295
123.0,99.9457242181711,0.021246268848874855,1.0000000047621107,15.770100231939473
124.0,99.94572328032324,0.01918993742201144,1.000000001831043,15.708386017585134
125.0,99.9457222974944,0.01733229061848133,0.9999999985534357,15.641406447912939
126.0,99.945721265244,0.015654146775099343,0.9999999949045679,15.56921960018816
127.0,99.94572017870529,0.014138171793113764,0.9999999908566729,15.491892274191393
128.0,99.94571903253095,0.012768714568327899,0.9999999863785982,15.409500006543409
129.0,99.94571782083945,0.011531622135672112,0.9999999814354755,15.32212693295704
130.0,99.94571653714718,0.010414121531313813,0.9999999759882936,15.229865714916198
131.0,99.94571517429918,0.009404659064481175,0.9999999699934651,15.132817348484096
132.0,99.9457137243856,0.008492808443048672,0.9999999634022996,15.031090986418059
133.0,99.94571217865088,0.007669139421060812,0.9999999561604314,14.924803701952355
134.0,99.94571052739126,0.006925139709977343,0.9999999482071735,14.814080203989494
135.0,99.94570875983507,0.006253113356006097,0.9999999394747631,14.699052555140755
136.0,99.94570686401644,0.005646109675753719,0.9999999298875673,14.579859791637706
137.0,99.94570482661858,0.00509784875700269,0.9999999193610977,14.456647587796056
138.0,99.94570263281528,0.0046026546398370005,0.9999999078010211,14.329567803316127
139.0,99.94570026606883,0.004155402874206284,0.9999998951018946,14.198778083675737
140.0,99.94569770792631,0.0037514590534978593,0.9999998811459033,14.064441361271047
141.0,99.94569493776338,0.00338664080963191,0.9999998658012703,13.926725388042598
142.0,99.9456919325165,0.003057164936529512,0.9999998489206113,13.785802210682556
143.0,99.9456886663621,0.002759617358994081,0.9999998303389656,13.64184764480203
144.0,99.94568511036043,0.002490910327573659,0.9999998098716272,13.495040735262616
145.0,99.94568123205529,0.00224825652414171,0.9999997873117199,13.345563192223253
146.0,99.94567699499969,0.0020291362515494917,0.9999997624273407,13.193598841746994
147.0,99.94567235825379,0.0018312736312130692,0.999999734958562,13.039333049493484
148.0,99.94566727575796,0.001652612786715326,0.9999997046137017,12.88295216555971
149.0,99.94566169569315,0.0014912954261056596,0.9999996710655646,12.724642960284571
150.0,99.94565555966524,0.001345644098606311,0.9999996339466599,12.564592071754067
151.0,99.9456488018712,0.0012141417622914717,0.9999995928443792,12.402985470088376
152.0,99.94564134805667,0.0010954195125654218,0.9999995472949867,12.240007924238421
153.0,99.94563311440778,0.0009882391902343982,0.9999994967773154,12.075842501318828
154.0,99.94562400623433,0.0008914835308666793,0.9999994407053204,11.910670073763821
155.0,99.94561391648429,0.0008041422182807509,0.9999993784197712,11.744668855529536
156.0,99.94560272408597,0.000725303273974837,0.9999993091790754,11.578013968674485
157.0,99.94559029195916,0.0006541424697309062,0.9999992321483576,11.410877018624312
158.0,99.9455764649161,0.0005899153391158699,0.9999991463881077,11.243425731839213
159.0,99.9455610670249,0.0005319495727203616,0.9999990508399902,11.07582357694963
160.0,99.94554389891057,0.0004796374913284329,0.9999989443125937,10.908229473829792
161.0,99.94552473432014,0.00043243069632819566,0.9999988254633616,10.740797474262658
162.0,99.94550331657786,0.00038983328424898407,0.9999986927803152,10.573676532373662
163.0,99.94547935418967,0.00035139787456977097,0.9999985445595219,10.407010260125032
164.0,99.94545251611311,0.00031671989417893627,0.9999983788812823,10.240936746651288
165.0,99.94544827708198,0.0002977678932818199,0.9999981935821548,10.075588396150383
166.0,99.94547718405167,0.00029654572256774723,0.999997986227221,9.911091804378584
167.0,99.94550417909767,0.00029529541422921625,0.9999977541048574,9.747568030104523
168.0,99.94552875276162,0.00029401619412533026,0.9999974940551655,9.585130765856059
169.0,99.94555033942432,0.000292707281625249,0.9999972026347616,9.423889566831846
170.0,99.94556829085299,0.00029136789453575494,0.9999968759892024,9.26394723763506
171.0,99.94558179406366,0.0002899972398687228,0.9999965094634874,9.10539844083389
172.0,99.94559000051959,0.000288594523934097,0.9999960982314531,8.94833601291954
173.0,99.94559189825691,0.0002871589539335592,0.9999956366846118,8.792844053567295
174.0,99.94554282004185,0.0003338268232647828,0.9999951184997842,8.639001156261962
175.0,99.94548025802457,0.0004052106723876041,0.9999945365811557,8.486880338202113
176.0,99.94542824497222,0.00047904295204439785,0.9999938829280366,8.336548880554437
177.0,99.94538745345861,0.0005553509282417175,0.9999931485857084,8.188068645153754
178.0,99.9453584531509,0.0006341544234936395,0.9999923234635226,8.041496114408446
179.0,99.94534167629796,0.0007154648585926558,0.9999913961750115,7.896882073202672
180.0,99.94533737059724,0.0007992852867817089,0.9999903539641984,7.754273004153408
181.0,99.94534552362923,0.000885673398947086,0.99998918260571,7.613709982002045
182.0,99.94535298155714,0.0009895077055858774,0.9999878660600222,7.475229256251784
183.0,99.94535445241722,0.0011248565336820853,0.9999863863662979,7.338862605634892
184.0,99.94535867814538,0.0012948412653988213,0.9999847234059769,7.204637416705569
185.0,99.94537624198826,0.0015027266492118468,0.9999828546593835,7.072576865672077
186.0,99.94541972934526,0.0017519118323401405,0.9999807549373864,6.942700107458393
187.0,99.9455038833037,0.0020459149876262653,0.9999783960865516,6.8150224646360105
188.0,99.94564566474916,0.002388438459490316,0.999975746664875,6.6895556172512345
189.0,99.94585989231,0.002788688065228466,0.9999727715905455,6.5663077886897
190.0,99.94615906772947,0.00326607606870761,0.999969431753643,6.4452839308373955
191.0,99.94656338184252,0.0038441341409696217,0.9999656835939781,6.326485909925677
192.0,99.94710384841396,0.004550116758390654,0.9999614786433749,6.209912686369176
193.0,99.94782503841977,0.005415264482816269,0.9999567630276593,6.095560491654614
194.0,99.94878814111138,0.00647504246394771,0.9999514769262967,5.98342300073026
195.0,99.95007324114383,0.007770607337308644,0.9999455539907226,5.873491500338722
196.0,99.95177848017435,0.00935583428517943,0.9999389207174201,5.765755053015648
197.0,99.95402449426079,0.011303550513305696,0.999931495773438,5.660200655666466
198.0,99.95696433442156,0.013709826624897326,0.9999231892730166,5.556813392360677
199.0,99.96079651950632,0.016698563960738218,0.9999139020081605,5.4555765822848725
200.0,99.96578146681765,0.02042644696974567,0.9999035246289166,5.356471922244666
201.0,99.97226035396055,0.025089727118489048,0.9998919367725447,5.259479623329073
202.0,99.9806743220556,0.03093742088048263,0.9998790061426321,5.164578541618323
203.0,99.99158831778377,0.0382907561290511,0.9998645875482308,5.071746302877054
204.0,100.00572427764683,0.04756771401399702,0.9998485218872953,4.980959422779346
205.0,100.02400635410379,0.059312775943481444,0.9998306350931019,4.892193420517631
206.0,100.04761988396949,0.07423254870396959,0.9998107370403755,4.805422927125588
207.0,100.07808241954626,0.0932412613194258,0.9997886204182135,4.720621788234716
208.0,100.11732403504159,0.11752285322668311,0.9997640595754197,4.637763161467535
209.0,100.16777614265355,0.1486146733849535,0.9997368093462009,4.556819608571722
210.0,100.23246613404751,0.18851643286290928,0.9997066038654838,4.477763182423955
211.0,100.31510810160525,0.2398268756838055,0.999673155384675,4.400565509022281
212.0,100.42016424930797,0.30591163606727645,0.9996361531000099,4.325197864684871
213.0,100.55282746417633,0.39110789771894333,0.9995952620090743,4.251631248603751
214.0,100.7188457739073,0.5009686205146548,0.9995501218112447,4.17983645080796
215.0,100.9240718724645,0.642538291377151,0.9995003458700144,4.1097841158112445
216.0,101.17357969334329,0.8246311776709986,0.999445520257772,4.041444802084146
217.0,101.47016412367927,1.058051156155734,0.9993852029053755,3.974789037519543
218.0,101.8120820822567,1.3556450519361511,0.9993189228806665,3.9097873710384685
219.0,102.19009639918463,1.732011781319702,0.9992461798221062,3.846410420609018
220.0,102.58435510891552,2.2026013146554675,0.9991664435574946,3.7846289176888392
221.0,102.96239075893283,2.7818656555381365,0.9990791539342356,3.7244137481916657
222.0,103.28029525140464,3.480159837939662,0.9989837209017063,3.6657359901061337
223.0,103.48918850178167,4.29935466389959,0.998879524844433,3.60856695043645
224.0,103.54735255809244,5.2278658293643305,0.9987659172713503,3.552878196149516
225.0,103.43478564256114,6.236831745778727,0.998642221809976,3.498641581774293
226.0,103.16332122239264,7.28015514975674,0.9985077355996296,3.445829277818916
227.0,102.77543821483546,8.300731126550328,0.9983617310866805,3.3944137957363556
228.0,102.33051938912364,9.2424935383202,0.9982034582671862,3.344368009272923
229.0,101.88531519522702,10.063727300915794,0.9980321474143803,3.29566517437784
230.0,101.47881888147516,10.745211327407107,0.9978470122780356,3.2482789462646555
231.0,101.12771344885341,11.289622761697078,0.9976472538874266,3.2021834017961686
232.0,100.83116968015749,11.714134750504932,0.9974320647991954,3.157353044619553
233.0,100.57894432581726,12.041614200846986,0.9972006339859842,3.113762822557049
234.0,100.35816237620463,12.294170429163673,0.9969521522903836,3.0713881394308675
235.0,100.1570747194357,12.490111393049325,0.9966858184369748,3.030204862818607
236.0,99.96633666312219,12.643375568953678,0.9964008455804397,2.9901893319874655
237.0,99.77898185093358,12.764123728452015,0.9960964686304483,2.9513183688454774
238.0,99.58989188640122,12.859692626257512,0.9957719517098048,2.9135692786778313
239.0,99.39525205762205,12.935416613295471,0.9954265965783338,2.8769198584563513
240.0,99.19210430649616,12.995266630337008,0.9950597513178717,2.8413484006739114
241.0,98.97804101639218,13.042283143453487,0.9946708193983618,2.8068336951111577
242.0,98.75100789489251,13.078859210003658,0.9942592691433809,2.7733550308461985
243.0,98.50918113396446,13.106924759010692,0.9938246429896049,2.740892195077288
244.0,98.25089386829724,13.128063036941647,0.9933665680563468,2.709425480134367
245.0,97.9745933249356,13.143589018064409,0.992884767451875,2.6789356851717603
246.0,97.67881469830947,13.154608051995064,0.9923790685170879,2.649404104184139
247.0,97.36216500629632,13.162056121647367,0.9918494076625216,2.6208125132958666
