Time,J,A,S,tau
0.0,100.0,100.0,0.8228028060380973,2.247191011235955
1.0,91.35175379314684,93.0782260274635,0.8251142568370708,2.1723264209059003
2.0,83.4540418036228,86.64631224908845,0.8273904786466924,2.098780808529412
3.0,76.24427774698704,80.67136348515423,0.8275208133785005,2.094522991240362
4.0,69.66209343618193,75.12020947002702,0.8274348812541455,2.0972397940243224
5.0,63.65257916241566,69.96217493602327,0.8273475491106884,2.1000032644388567
6.0,58.16559875921142,65.16880953624796,0.8272588401903768,2.1028127839097794
7.0,53.15550547834405,60.71377759791782,0.8271687781458406,2.105667720172119
8.0,48.58067458871681,56.572665517762935,0.8270773870344286,2.1085674272948354
9.0,44.403270523372875,52.72288846514799,0.8269846913172648,2.1115112455431944
10.0,40.5889662955933,49.143573705838655,0.8268907158520044,2.114498501456021
11.0,37.10668773288231,45.81546138101514,0.8267954858895431,2.117528507787858
12.0,33.92852925678647,42.72089521181264,0.8266990270707757,2.1206005634457314
13.0,31.02956778454705,39.84379081972106,0.8266013654191234,2.12371395357831
14.0,28.387773443692062,37.169689500089326,0.826502527338594,2.126867949465511
15.0,25.98392428181236,34.68586081793776,0.8264025396074317,2.1300618085669134
16.0,23.80142293156304,32.38142094855886,0.826301429372517,2.133294774545311
17.0,21.826064428954744,30.247497692429803,0.8261992241459951,2.1365660772051815
18.0,20.045664561931776,28.277375524825494,0.8260959517986547,2.1398749325538056
19.0,18.449502765232182,26.46658211670298,0.8259916405545794,2.1432205428153286
20.0,17.027521950150383,24.81284215566329,0.8258863189852836,2.14660209646616
21.0,15.769353070793654,23.315843861580223,0.8257800160048933,2.150018768228049
22.0,14.663290247832117,21.976722273172822,0.8256727608642765,2.1534697191017775
23.0,13.695321271986105,20.79718942278348,0.8255645831436197,2.1569540964682856
24.0,12.848540801713195,19.77834001383221,0.8254555127467497,2.16047103411938
25.0,12.103460498109207,18.919236199191584,0.8253455798962763,2.16401965225056
26.0,11.439064381167936,18.21550117483957,0.8252348151248684,2.1675990576224407
27.0,10.834842889812052,17.658253663370726,0.8251232492704461,2.1712083435527236
28.0,10.272963084347115,17.233768086390377,0.8250109134684536,2.174846590037375
29.0,9.740166494097238,16.924076807364628,0.8248978391448308,2.1785128638429176
30.0,9.228593382260092,16.708452430193518,0.824784058009824,2.1822062185602515
31.0,8.735368077186475,16.565459054633045,0.8246696020496325,2.1859256947607273
32.0,8.261293717412336,16.475010702504164,0.824554503519646,2.1896703200787098
33.0,7.809077684187274,16.419960584314527,0.824438794937036,2.1934391093259626
34.0,7.381799997480561,16.386912933523554,0.8243225090720725,2.1972310646708726
35.0,6.981858855160789,16.366311756530866,0.8242056789418066,2.2010451756997043
36.0,6.610512217383699,16.351934695657835,0.8240883378007591,2.2048804196311407
37.0,6.267850944348114,16.34013940938559,0.823970519132829,2.2087357614736023
38.0,5.95302908404358,16.329081520526884,0.8238522566450512,2.2126101540727383
39.0,5.664573770952873,16.318021117472597,0.8237335842559724,2.216502538466594
40.0,5.400667156758018,16.306836310740163,0.8236145360886641,2.2204118439831038
41.0,5.1593720959905935,16.295689746296745,0.8234951464614036,2.224336988466862
42.0,4.938765861114519,16.284833299046802,0.8233754498797425,2.2282768784338156
43.0,4.7370344205091826,16.27450900801342,0.8232554810265308,2.232230409334022
44.0,4.552506480869146,16.264909197294376,0.8231352747529205,2.2361964657691513
45.0,4.383663675073896,16.256169004318316,0.8230148660689839,2.240173921731622
46.0,4.229134969504654,16.248374170780327,0.8228942901341838,2.2441616408544047
47.0,4.087683871559741,16.24157366353071,0.8227735822477007,2.2481584766715748
48.0,3.958193361544779,16.235791914762338,0.8226527778385855,2.2521632728923726
49.0,3.839650900188873,16.2310385072944,0.8225319124559455,2.256174863672473
50.0,3.7311383617263454,16.227315053973523,0.8224110217585597,2.2601920739258894
51.0,3.6318183689385544,16.224619330088288,0.8222901415048829,2.2642137196153165
52.0,3.540924919577008,16.22294759111783,0.8221693075425526,2.268238608082702
53.0,3.4577614406743393,16.22229586593863,0.8220485557980269,2.2722655383406285
54.0,3.381688091418734,16.222660057474403,0.8219279222658806,2.276293301435252
55.0,3.312118205656996,16.22403597490787,0.8218074429979051,2.2803206808114433
56.0,3.248515593367262,16.22641919611419,0.8216871540924807,2.2843464526096144
57.0,3.1903883250102925,16.22980479883647,0.8215670916831065,2.288369386138278
58.0,3.1372857738431272,16.23418719743965,0.8214472919277404,2.2923882442011005
59.0,3.088795425680662,16.239559984442643,0.8213277909975439,2.2964017834681982
60.0,3.0445413104335626,16.24591590599468,0.8212086250650459,2.3004087548121004
61.0,3.0041747166937096,16.253246542756603,0.8210898302930373,2.3044079038955116
62.0,2.9673746990321734,16.261542440244035,0.820971442823917,2.3083979715678025
63.0,2.933857265493668,16.27079367215079,0.8208534987656477,2.3123776941154115
64.0,2.903351929578558,16.280988699586295,0.820736034181183,2.3163458038320126
65.0,2.8756082530618894,16.292114927077808,0.8206190850798647,2.3203010296139737
66.0,2.8504114291401588,16.30415964506116,0.8205026873989751,2.3242420971510485
67.0,2.8275491187803206,16.31710816988988,0.8203868769943955,2.32816772954544
68.0,2.80682825698234,16.33094513702904,0.8202716896382731,2.3320766479190773
69.0,2.7880847670426547,16.345654894862363,0.8201571609818649,2.3359675715939914
70.0,2.7711476306179263,16.36121964980861,0.8200433265756326,2.3398392189322434
71.0,2.7558799889927434,16.377622068168318,0.8199302218323717,2.3436903076143545
72.0,2.742134014387726,16.394842224265794,0.8198178820197305,2.3475195553066297
73.0,2.7297995291826287,16.412861348240245,0.819706342264985,2.3513256800303037
74.0,2.718746007265813,16.431657428067144,0.8195956375077014,2.355107400990023
75.0,2.708887085104741,16.451210306210058,0.8194858025308216,2.3588634386819107
76.0,2.700102093440316,16.471495744650216,0.8193768719120539,2.362592515897075
77.0,2.6923307334605537,16.492492387232247,0.8192688800062046,2.3662933583363883
78.0,2.685480127714098,16.514175470269006,0.8191618609973629,2.3699646942701333
79.0,2.6794630276392186,16.53651927399423,0.8190558488184067,2.3736052560383274
80.0,2.674208984734675,16.55949772409259,0.8189508771393514,2.3772137808155334
81.0,2.669664421369839,16.58308504765997,0.818846979402355,2.380789010215322
82.0,2.6657605134164095,16.607253344960082,0.8187441887765688,2.384329691533603
83.0,2.6624339106157664,16.631974036593036,0.8186425381607758,2.3878345780036243
84.0,2.659645439554759,16.65721909439181,0.8185420601112532,2.391302430813072
85.0,2.6573459078650874,16.68295906335285,0.8184427869460871,2.394732016935028
86.0,2.655485275509247,16.70916347750376,0.8183447506399915,2.398122111925858
87.0,2.654015988718369,16.73580103669204,0.8182479828384767,2.4014714999449365
88.0,2.6529131999925335,16.76284115938282,0.8181525147952721,2.4047789756973623
89.0,2.6521385686824606,16.790251779133435,0.8180583774980584,2.408043341305102
90.0,2.6516545957065283,16.818000094026658,0.8179656015170523,2.4112634107274333
91.0,2.6514239744423125,16.846052584748588,0.8178742170952142,2.414438007449922
92.0,2.6514246552399556,16.87437589324756,0.8177842539278277,2.4175659713953555
93.0,2.651636108959532,16.902936496815645,0.8176957414936055,2.420646149090873
94.0,2.6520262066162594,16.931699520723477,0.8176087087710752,2.423677402626444
95.0,2.652570929238197,16.96063005379108,0.8175231843175608,2.4266586074481045
96.0,2.6532482260021144,16.989692792652132,0.8174391962530884,2.429588653124535
97.0,2.6540374557434427,17.018852169313217,0.8173567722497384,2.4324664439218595
98.0,2.654919142895408,17.048072338236274,0.8172759395138945,2.4352908996257914
99.0,2.655875123500791,17.077317228800666,0.8171967247793542,2.4380609560001933
100.0,2.656888368361697,17.10655057434827,0.8171191542946264,2.440775565441223
101.0,2.6579429252993956,17.135735955385368,0.817043253812031,2.4434336975711077
102.0,2.659023853131254,17.16483683995807,0.8169690485756991,2.446034339871313
103.0,2.660117137955396,17.193816625479997,0.8168965633115204,2.448576498247286
104.0,2.6612096454595693,17.222638686299142,0.8168258222165431,2.4510591976114813
105.0,2.662289072429546,17.251266420373128,0.8167568489486745,2.45348148245462
106.0,2.66334389265304,17.27966329589134,0.8166896666159746,2.4558424174312097
107.0,2.664363338161849,17.307792902187746,0.8166242977667928,2.4581410879130727
108.0,2.6653373671188936,17.33561899899402,0.8165607643793925,2.4603766005606604
109.0,2.666256601470905,17.36310556295676,0.8164990878520709,2.4625480838749048
110.0,2.6671122832360044,17.39021683589084,0.8164392889940124,2.4646546887192433
111.0,2.6678962738540712,17.416917378305737,0.8163813880159451,2.4666955888467275
112.0,2.6686010174631187,17.44317211838683,0.8163254045211407,2.468669981411657
113.0,2.6692195218519514,17.468946403433613,0.8162713574964034,2.470577087479113
114.0,2.669745340316337,17.494206050878507,0.8162192653035686,2.4724161525119435
115.0,2.6701725446096383,17.518917398548016,0.816169145670988,2.4741864468552346
116.0,2.670495720046833,17.54304735686112,0.8161210156854924,2.475887266198844
117.0,2.6707099729702297,17.56656346201708,0.8160748917844209,2.4775179320337273
118.0,2.6708108865038187,17.589433923854745,0.8160307897477609,2.479077792100513
119.0,2.670794473265772,17.6116276723914,0.8159887246909675,2.4805662208070776
120.0,2.6706572005848015,17.633114411474494,0.8159487110579858,2.4819826196335963
121.0,2.6703959697715502,17.65386466685026,0.8159107626144785,2.483326417525043
122.0,2.670008110622073,17.673849835307077,0.8158748924412642,2.4845970712706578
123.0,2.6694913694115527,17.69304223197486,0.8158411129281524,2.4857940658626716
124.0,2.66884389652149,17.711415136884444,0.8158094357679406,2.486916914843545
125.0,2.66806424426678,17.7289428412014,0.8157798719508639,2.487965160629713
126.0,2.6671513451106277,17.745600690491564,0.8157524317591827,2.4889383748244747
127.0,2.6661045223877746,17.761365129791283,0.8157271247622505,2.489836158505818
128.0,2.664923500926814,17.77621374730595,0.8157039598117258,2.490658142502752
129.0,2.663608364108629,17.79012531162985,0.8156829450370202,2.4914039876565104
130.0,2.6621595053243134,17.803079805944343,0.8156640878413806,2.4920733850496517
131.0,2.660577676138616,17.815058470674767,0.8156473948982118,2.492666056219118
132.0,2.6588639510634393,17.82604383549583,0.8156328721477253,2.493181753349947
133.0,2.657019739318859,17.836019754828932,0.8156205247937567,2.4936202594557297
134.0,2.6550467632882087,17.844971437117547,0.8156103573011653,2.4939813885287743
135.0,2.6529470526624244,17.85288547449102,0.8156023733932422,2.494264985683646
136.0,2.650722943258233,17.859749869694163,0.8155965760498585,2.4944709272634302
137.0,2.648377046917416,17.865554058816645,0.8155929675054915,2.49459912094489
138.0,2.6459122766921475,17.870288936249118,0.8155915492481084,2.4946495058011298
139.0,2.6433317869481607,17.873946869509773,0.8155923220178458,2.494622052366641
140.0,2.6406390296617728,17.876521722524497,0.8155952858066035,2.4945167626572924
141.0,2.6378376606804257,17.878008861776618,0.8156004398574199,2.4943336701933654
142.0,2.634931631455072,17.878405178208794,0.815607782664743,2.4940728399782066
143.0,2.6319250743598865,17.87770908568327,0.8156173119745521,2.4937343684770834
144.0,2.628822391098013,17.875920537605484,0.8156290247852153,2.493318383558455
145.0,2.6256281134682937,17.8730410169982,0.8156429173484473,2.4928250444249835
146.0,2.622347038853705,17.869073552674017,0.8156589851708013,2.492254541515454
147.0,2.6189840782552114,17.864022702211866,0.8156772230153976,2.4916070963909585
148.0,2.6155443857215492,17.85789456236197,0.8156976249039778,2.490882961600839
149.0,2.612033204661709,17.850696745959926,0.815720184119439,2.4900824205228975
150.0,2.6084560009079643,17.842438387454745,0.8157448932084771,2.4892057871925455
151.0,2.6048183016365263,17.83313011328006,0.8157717439848957,2.4882534060988037
152.0,2.601125840463377,17.822784043360624,0.8158007275328641,2.48722565197607
153.0,2.59738437810292,17.811413753985438,0.8158318342109533,2.486122929558454
154.0,2.593599873785447,17.799034276821665,0.8158650536560524,2.4849456733328688
155.0,2.5897782702497363,17.78566205280122,0.8159003747880541,2.4836943472555952
156.0,2.585925713055983,17.771314930867533,0.8159377858145166,2.482369444463805
157.0,2.5820482748306897,17.756012110684075,0.8159772742358627,2.4809714869606254
158.0,2.5781522497369513,17.739774143931733,0.816018826850956,2.479501025279079
159.0,2.5742437493431862,17.722622859582074,0.816062429762449,2.4779586381511525
160.0,2.5703291303791724,17.704581373823075,0.8161080683834661,2.4763449321172977
161.0,2.5664145789575032,17.685674010431097,0.8161557274430705,2.474660541181136
162.0,2.5625064866607863,17.665926300035437,0.8162053909942626,2.4729061263576946
163.0,2.558611084598827,17.645364902740393,0.8162570424192946,2.4710823753250684
164.0,2.5547347264159317,17.624017592731853,0.8163106644390273,2.4691900019113104
165.0,2.550883693900483,17.60191319590636,0.816366239118315,2.467229745734706
166.0,2.5470642382074264,17.57908154520202,0.8164237478764299,2.4652023716428553
167.0,2.5432827253950396,17.555553449978234,0.8164831714934726,2.463108669305548
168.0,2.5395451738932238,17.531360596863998,0.8165444901205023,2.4609494526610907
169.0,2.5358570110138845,17.50653548124315,0.8166076832822854,2.4587255596398783
170.0,2.5322248916223833,17.48111153271221,0.8166727298952311,2.45643785130649
171.0,2.528655169398112,17.455122913448456,0.8167396082733603,2.454087211460045
172.0,2.5251531874868656,17.428604399294954,0.8168082961302309,2.4516745463749907
173.0,2.5217284094702728,17.401591814694353,0.8168787706515954,2.4492007819741413
174.0,2.518409077795863,17.374123535357064,0.8169510085713201,2.4466668609266677
175.0,2.515183313148391,17.346234589885523,0.8170249854641544,2.4440737678153903
176.0,2.5120303214946316,17.31795917015854,0.8171006767470597,2.4414224929075017
177.0,2.508951592177667,17.28933375749513,0.8171780577678293,2.4387140291107015
178.0,2.505990429316821,17.260400003998306,0.8172571027895476,2.4359494078003547
179.0,2.5031371843333377,17.231194996324888,0.8173377852843415,2.4331296876042776
180.0,2.5003789627435444,17.201755510701492,0.8174200787092427,2.4302559276490605
181.0,2.4977298161878085,17.17212105093491,0.8175039563062058,2.4273291947325357
182.0,2.4952086788892878,17.142331862780534,0.8175893901105732,2.424350596047592
183.0,2.4928115297911573,17.1124259884476,0.8176763517749616,2.4213212511575546
184.0,2.490535030929947,17.08244154874135,0.8177648129521662,2.418242279665763
185.0,2.4883884913360754,17.052417988622185,0.8178547448352824,2.415114816356341
186.0,2.4863799913889406,17.022394315786052,0.8179461175712293,2.4119400285590347
187.0,2.4845146509047695,16.992409159368986,0.8180389011721207,2.4087190876102573
188.0,2.482794262956035,16.96250088047433,0.8181330656212735,2.405453165871784
189.0,2.4812134890169353,16.93270694046583,0.8182285801977636,2.402143456913285
190.0,2.47978439848602,16.90306577854761,0.8183254134921435,2.3987911737687466
191.0,2.478520909980084,16.873615961328174,0.8184235340683206,2.3953975301641677
192.0,2.47741176245293,16.844393691855316,0.81852291034759,2.3919637441323536
193.0,2.4764502772053363,16.815434631618142,0.8186235099133666,2.388491055946401
194.0,2.475658954916556,16.786776679737105,0.8187253000686104,2.3849807127684213
195.0,2.475057003655896,16.758457420314667,0.8188282480913723,2.381433962379501
196.0,2.4746299679386077,16.730510844306888,0.8189323208164291,2.3778520633828486
197.0,2.4743742484227274,16.70297092910676,0.8190374847202587,2.374236282629259
198.0,2.4742923845258495,16.675871392416486,0.8191437060253293,2.3705878923652492
199.0,2.4743865399689247,16.649245511358888,0.8192509506808533,2.366908170425745
200.0,2.4746586175817935,16.62312599045285,0.8193591843762854,2.363198399613245
201.0,2.4751102725022425,16.59754485659145,0.8194683725543312,2.3594598670918216
202.0,2.475742976376108,16.57253339273424,0.8195784804244245,2.355693863779001
203.0,2.4765580163125174,16.5481220842832,0.8196894729757574,2.3519016837507145
204.0,2.477556518325555,16.524340584251203,0.8198013149907502,2.3480846236468014
205.0,2.478739458935712,16.501217684526736,0.8199139710580742,2.34424398208863
206.0,2.4801076442758476,16.47878129040677,0.8200274055860642,2.3403810591001273
207.0,2.481661756495372,16.457058403886112,0.820141582815728,2.3364971555395377
208.0,2.4834022874683623,16.43607509756116,0.8202564668340497,2.3325935725375264
209.0,2.4853296255696593,16.415856505134514,0.8203720215869706,2.3286716109447667
210.0,2.4874439268993784,16.396426789981554,0.8204882108925495,2.3247325707881665
211.0,2.489745199683929,16.37780913699797,0.8206049984538611,2.320777750735404
212.0,2.4922333059843997,16.360025735789453,0.8207223478719722,2.3168084475685182
213.0,2.4949080013592324,16.343097770603887,0.8208402226588419,2.3128259556687842
214.0,2.4977688669702407,16.3270453981766,0.8209585862501245,2.308831566510437
215.0,2.5008153473867365,16.311887739266115,0.8210774020178939,2.3048265681662765
216.0,2.5040467406154443,16.29764286501953,0.8211966332832562,2.3008122448215893
217.0,2.507462186064672,16.284327785136007,0.8213162433288971,2.296789876301244
218.0,2.5110606913835434,16.271958440788275,0.8214361954115018,2.292760737605148
219.0,2.514840963151547,16.260549677459654,0.821556452774105,2.2887260984554425
220.0,2.5188016528763217,16.250115262756573,0.8216769786583155,2.2846872228486714
221.0,2.5229413037146,16.240667874535742,0.8217977363164607,2.28064536862932
222.0,2.527258325382267,16.23221909308503,0.8219186890235792,2.2766017870727153
223.0,2.5317509794938524,16.22477939440176,0.8220398000892919,2.2725577224773548
224.0,2.5364173822275045,16.21835814669064,0.8221610328695361,2.26851441177008
225.0,2.541255506735416,16.212963607379525,0.8222823507781782,2.2644730841215748
226.0,2.546263031131672,16.208602903970466,0.8224037172985114,2.2604349605728693
227.0,2.5514375438372867,16.205282053513898,0.8225250959946943,2.256401253664545
228.0,2.556776577622214,16.2030059663813,0.8226464505229049,2.252373167094636
229.0,2.562277520898311,16.201778436875983,0.8227677446423721,2.248351895384247
230.0,2.5679376155349756,16.201602143437956,0.8228889422262723,2.2443386235526943
231.0,2.573753963314513,16.202478650409947,0.8230100072724889,2.2403345268031227
232.0,2.579723506614062,16.204408407640802,0.8231309039142003,2.2363407702214304
233.0,2.5858429189599224,16.20739074042383,0.8232515964303675,2.2323585084831694
234.0,2.5921087657531876,16.211423869032643,0.8233720492561707,2.228388885564845
235.0,2.5985175752115373,16.216504921299126,0.8234922269930239,2.224433034484931
236.0,2.605065716220178,16.22262992320564,0.8236120944185115,2.220492077050425
237.0,2.6117494158872323,16.229793805722505,0.8237316164961496,2.2165671236143747
238.0,2.6185647647647525,16.23799041029941,0.8238507583850714,2.2126592728394154
239.0,2.625507683636584,16.247212490982793,0.8239694854494305,2.208769611479244
240.0,2.6325739850094174,16.257451727591388,0.8240877632677689,2.204899214163133
241.0,2.6397591828107743,16.26869871056549,0.8242055576421055,2.2010491431983343
242.0,2.647058778861939,16.280942980828392,0.8243228346070575,2.197220448371157
243.0,2.6544681248162734,16.2941730222866,0.8244395604384991,2.1934141667755354
244.0,2.661982480281,16.3083762777838,0.8245557016620979,2.189631322647998
245.0,2.6695969328213414,16.32353914852628,0.8246712250618409,2.1858729272050383
246.0,2.6773064476427,16.339647010163752,0.8247860976881582,2.182139978501485
247.0,2.685105859423236,16.356684221822672,0.8249002868662033,2.1784334612829293
248.0,2.692989843047128,16.374634134235166,0.8250137602035322,2.1747543468682347
