Time,J,A,S,tau
0.0,100.0,10.0,0.5787670053422341,19.459505069760688
1.0,97.94406399037308,13.408420135757606,0.5790399121239101,19.397153897533915
2.0,93.982300664449,16.600458646180922,0.5793217009000795,19.332846699158562
3.0,88.90139298703451,19.589526197625183,0.5796122842004028,19.266608456346052
4.0,83.22811526569681,22.38852434537079,0.5799116094274396,19.198456186306547
5.0,77.27960106901982,25.0095572922202,0.580219620951433,19.12840757037002
6.0,71.23952419941261,27.463979693845754,0.5805362600983262,19.05648095032592
7.0,65.21263199497749,29.76244147878974,0.5808614651337903,18.98269532558085
8.0,59.258294555228254,31.91493437180654,0.5811951712617491,18.90707034721787
9.0,53.40975559205573,33.93082398525258,0.5815373105965073,18.82962631753389
10.0,47.685307289074935,35.818893375687985,0.5818878121734024,18.750384181497036
11.0,42.09449517514981,37.58737298708004,0.582246601929749,18.66936552437305
12.0,36.64172397280884,39.243971815243285,0.5826136026930153,18.586592567745523
13.0,31.328350763772576,40.79592495026555,0.5829887342009541,18.502088159208963
14.0,26.153884231433494,42.25000961448734,0.5833719130659,18.415875773118795
15.0,21.11672700460326,43.61257581692773,0.5837630528128377,18.327979496676893
16.0,16.214604026649248,44.88958439477359,0.5841620638704018,18.23842402562401
17.0,11.444847167158201,46.08656569213157,0.5845688534943299,18.147234672135195
18.0,6.804548362827582,47.2087512419971,0.5849833258956314,18.05443733436322
19.0,3.5258017723895674,47.045143704052386,0.5851353577333704,18.02108041931792
20.0,1.5925164637043925,45.66813924212889,0.5852714638596058,17.99135354957866
21.0,0.47399551772080495,43.64194039925348,0.5854055274419049,17.962114485116096
22.0,0.0,41.31667036403387,0.5855375106095768,17.933369533163976
23.0,0.0,38.89528972468574,0.5856673762140093,17.905124831575066
24.0,0.0,36.48951142400885,0.5857950878367372,17.87738634992618
25.0,0.0,34.15847752104386,0.5859206097971859,17.850159890673325
26.0,0.0,31.931833960720514,0.5860439071601121,17.823451090348925
27.0,0.0,29.822822265086128,0.5861649457427636,17.79726542079258
28.0,0.0,27.8355906309188,0.5862836921218278,17.771608190398183
29.0,0.0,25.969274083576806,0.5864001136396744,17.746484545483003
30.0,0.27589232823299964,24.220287120669127,0.5865141784107812,17.721899471578652
31.0,0.8604116018446166,22.583623265160767,0.5866258553276452,17.69785779479737
32.0,1.640476664385843,21.053598828982075,0.586735114066446,17.674364183210965
33.0,2.6556031159124647,19.624280886160655,0.5868419250923925,17.65142314825507
34.0,3.947080788738328,18.289733898631756,0.5869462596648207,17.62903904614234
35.0,5.556051450747312,17.044160588891078,0.5870480898419174,17.607216079306433
36.0,7.521455153326921,15.882012589682764,0.5871473884853772,17.58595829781566
37.0,9.877358353257094,14.798566830464058,0.5872441292643865,17.565269600869332
38.0,12.65110888946851,13.789579084193385,0.5873382866598891,17.54515373819427
39.0,15.861563955615583,12.851225791231409,0.5874298359680548,17.525614311541826
40.0,19.516960935525404,11.980511424366687,0.5875187533020751,17.506654776438577
41.0,23.613133447961232,11.175624021646097,0.5876050156036522,17.48827844214545
42.0,28.131799567429837,10.436252656363475,0.5876886006327543,17.470488475430333
43.0,33.038768504224834,9.763970598161139,0.5877694869785295,17.453287900580676
44.0,38.282930469529994,9.162611610477539,0.5878476540613654,17.43667960087212
45.0,43.79573579765242,8.638568604139575,0.5879230821328055,17.420666320372902
46.0,49.49168665089355,8.200991084244297,0.5879957522785288,17.405250665146692
47.0,55.269710880700806,7.861802708360056,0.5880656464214075,17.39043510443209
48.0,61.015383039428585,7.635492144614183,0.5881327473199479,17.37622197248445
49.0,66.6027313187205,7.538679400810617,0.5881970385723748,17.362613469453446
50.0,71.89454692905923,7.589421719269692,0.5882585046160373,17.34961166297103
51.0,76.74098749293876,7.806327789364805,0.5883171307288158,17.33721848933351
52.0,80.97790589045694,8.207512000336155,0.588372903029541,17.325435754796914
53.0,84.4291256525495,8.809475891640446,0.5884258084783498,17.314265136817127
54.0,86.91753309083934,9.625970022400367,0.5884758348768269,17.30370818526172
55.0,88.28712768452543,10.66680174630519,0.5885229708677662,17.293766323620403
56.0,88.431617909088,11.936862971743269,0.5885672059342184,17.284440850256356
57.0,87.31984240242097,13.435310618812363,0.5886085304028892,17.275732938953425
58.0,85.0056685453364,15.15495251596376,0.5886469354386524,17.267643640663408
59.0,81.61839462981557,17.08161452520015,0.5886824130446902,17.260173884510102
60.0,77.33781547062456,19.193774428178433,0.5887149560625966,17.253324478570857
61.0,72.36317009316251,21.462367627684905,0.5887445581711297,17.247096110859722
62.0,66.88708547031992,23.85092850405751,0.5887712138842757,17.241489350354037
63.0,61.080178663031475,26.316198038857788,0.5887949185495992,17.236504647903818
64.0,55.08627543801502,28.809227467692658,0.5888156683464256,17.232142337103454
65.0,49.02487794232745,31.276770299747138,0.588833460283874,17.22840263512076
66.0,42.997134150855054,33.66243246951534,0.5888482921989701,17.225285643451045
67.0,37.09289063844928,35.90689465348351,0.5888601627541016,17.22279134870622
68.0,31.397651901594898,37.94686604662978,0.5888690714343594,17.22091962335001
69.0,25.99839550822324,39.71351923214188,0.5888750185449649,17.21967022635622
70.0,20.986309001674982,41.132588366397975,0.5888780052081738,17.219042803888584
71.0,16.4539065128993,42.128956415943044,0.5888780333606457,17.219036889844862
72.0,12.48511757824562,42.637302497697476,0.5888751057500387,17.21965190644378
73.0,9.140240666655272,42.61699148163311,0.5888692259316807,17.220887164746987
74.0,6.441414992873279,42.06568880400062,0.5888603982648701,17.222741865174637
75.0,4.36534616312654,41.02525652566341,0.5888486279103584,17.22521509776135
76.0,2.847484787787373,39.576347580129486,0.5888339208245497,17.228305842886364
77.0,1.796186942289893,37.823510831554024,0.588816283756922,17.232012971411947
78.0,1.111576530191296,35.87651983270261,0.588795724245624,17.236335245058985
79.0,0.702598441595931,33.83437855355133,0.588772250613199,17.24127131670031
80.0,0.4981174969343959,31.775878674277998,0.5887458719621578,17.246819730616387
81.0,0.4512864410947639,29.757082906881514,0.5887165981704323,17.25297892271115
82.0,0.5388267692144273,27.81371242274622,0.588684439886641,17.259747220699264
83.0,0.7576208915508603,25.96578159443526,0.5886494085254637,17.267122844217177
84.0,1.1205045962013114,24.222439943606172,0.5886115162624125,17.27510390497314
85.0,1.652297286044032,22.585950637847183,0.588570776028863,17.28368840680301
86.0,2.3863519110374907,21.054536901441637,0.5885272015068067,17.292874245711783
87.0,3.361545664195177,19.624233688431772,0.5884808071234727,17.302659209884233
88.0,4.619536905822868,18.290018312641077,0.5884316080458286,17.31304097966151
89.0,6.202157856893609,17.046474675573126,0.5883796201749922,17.32401712748139
90.0,8.148904131752687,15.888181166459779,0.588324860140461,17.33558511779535
91.0,10.49453441436909,14.809948657910612,0.5882673452940702,17.34774230698247
92.0,13.266849526401487,13.806995011578241,0.5882070937043264,17.36048594315385
93.0,16.484664318538176,12.875111595987065,0.5881441241501794,17.373813166002275
94.0,20.156006884186528,12.010861221224665,0.588078456112927,17.387721006908297
95.0,24.27654962626701,11.211863508941141,0.5880101097761704,17.402206387686803
96.0,28.8282228110235,10.477114750324025,0.587939106011914,17.41726612152907
97.0,33.777797983978715,9.807369226526104,0.5878654663759959,17.43289691246232
98.0,39.075990344044314,9.205537686331192,0.5877892131040028,17.449095354613537
99.0,44.65724875469674,8.676999867814365,0.5877103691010167,17.465857932451456
100.0,50.440236434036,8.229815938423107,0.5876289579382229,17.483181019877232
101.0,56.32937055392429,7.874729504254763,0.5875450038428476,17.50106088040024
102.0,62.217249193773384,7.624993632519086,0.5874585316926201,17.519493666491265
103.0,67.98675308018358,7.4959509754851865,0.5873695670084107,17.53847541924056
104.0,73.51197899568798,7.504402861606949,0.5872781359460597,17.558002068111175
105.0,78.65711771161232,7.667796675952586,0.5871842652896517,17.57806943040844
106.0,83.27401531022711,8.003265981219439,0.5870879824437689,17.598673210907002
107.0,87.20159929037305,8.526596721303028,0.5869893154259697,17.619809001407617
108.0,90.27168941166705,9.2511882026004,0.5868882928589243,17.641472280333414
109.0,92.32452340396678,10.187081543495509,0.586784943962463,17.663658412319254
110.0,93.2326910417433,11.340102703102366,0.5866792985457585,17.68636264775497
111.0,92.92654223320866,12.711178651336605,0.586571386998483,17.70958012251065
112.0,91.41163003562616,14.295779848727769,0.5864612402856485,17.733305856891793
113.0,88.76932905351346,16.083551555528196,0.5863488899358593,17.757534755921792
114.0,85.14181207088765,18.05803565770789,0.5862343680340928,17.78226160869811
115.0,80.70679483313808,20.1965687210388,0.5861177072137238,17.807481087871782
116.0,75.65098994502294,22.470342874456506,0.5859989406483083,17.833187749163297
117.0,70.14993586677542,24.844753595229967,0.5858781020426328,17.859376031030916
118.0,64.35713840625543,27.280122064433332,0.5857552256240214,17.886040254277088
119.0,58.40140677177232,29.732785905333067,0.5856303461336403,17.913174621649997
120.0,52.389450485805014,32.1563514898606,0.5855034988178858,17.94077321741844
121.0,46.4109697602269,34.502660478473246,0.5853747194196378,17.968830006971004
122.0,40.544558985765946,36.72191060117526,0.5852440441690512,17.997338836526946
123.0,34.86363246930764,38.761646152951826,0.5851115097745471,18.02629343280285
124.0,29.441677737356898,40.56512135103196,0.5849771534137627,18.055687402692453
125.0,24.355494740359212,42.07054918452909,0.5848410127248257,18.08551423285999
126.0,19.684495186574786,43.21341995051094,0.5847031257964487,18.115767289653068
127.0,15.504753044001182,43.93329409268348,0.584563531159152,18.146439818725046
128.0,11.878407841220934,44.18457452259888,0.5844222677757939,18.177524944851378
129.0,8.841656155663376,43.94807853159963,0.5842793750321006,18.20901567176112
130.0,6.396030685426119,43.2388605654425,0.5841348927275694,18.240904881869866
131.0,4.506971809673398,42.106680697528866,0.5839888610653926,18.273185336321404
132.0,3.1105206495465856,40.62853637680527,0.5838413206431871,18.30584967480791
133.0,2.125892850243593,38.89588069053186,0.5836923124434021,18.338890415503904
134.0,1.4697038016260195,37.00085532073788,0.5835418778236102,18.372299955059013
135.0,1.06791311767722,35.02538970058787,0.5833900585067834,18.406070568619384
136.0,0.863341016444195,33.03507998538884,0.5832368965715153,18.44019440989346
137.0,0.8186081242432298,31.077703564247102,0.5830824344422005,18.47466351126025
138.0,0.9156360876157725,29.184965409964132,0.5829267148791581,18.50946978392662
139.0,1.1532132160500923,27.37579436188119,0.5827697809688213,18.544605018089413
140.0,1.543809395447049,25.65988662603024,0.5826116761136478,18.58006088323827
141.0,2.1103755103340087,24.040752420425804,0.5824524440221862,18.61582892843539
142.0,2.88338911144739,22.518022476535954,0.5822921286990953,18.651900582646995
143.0,3.898169780198343,21.089047004426796,0.5821307744350097,18.68826715517881
144.0,5.192406121244383,19.749936674699388,0.5819684257964818,18.724919836121458
145.0,6.803840657078265,18.496214719719465,0.5818051276158349,18.76184969687496
146.0,8.768089801441663,17.323216376132883,0.5816409249810129,18.799047690720776
147.0,11.116632091581092,16.226336798669575,0.5814758632253022,18.836504653501283
148.0,13.874983241265365,15.20119547568856,0.5813099879172468,18.874211304254683
149.0,17.061130141356887,14.243765321540604,0.5811433448501453,18.91215824611426
150.0,20.684205211104608,13.350503315156338,0.5809759800322067,18.950335966903285
151.0,24.743420348053135,12.518499451274867,0.5808079396753666,18.988734840560657
152.0,29.22752040496505,11.745713708487866,0.5806392701868898,19.027345126721432
153.0,34.11349118861662,11.03115540309016,0.5804700181560086,19.066156974022302
154.0,39.36656103093043,10.375234532184948,0.5803002303463569,19.10516041911481
155.0,44.93992421461045,9.780029438956355,0.5801299536835379,19.14434538928365
156.0,50.774801092672476,9.24956491361684,0.579959235246079,19.18370170279497
157.0,56.801387291286886,8.789997846225125,0.57978812225411,19.22321907077693
158.0,62.940167202608215,8.409685799774605,0.5796166620594787,19.262887098255817
159.0,69.1040334686452,8.119107199139352,0.5794449021346701,19.302695286077338
160.0,75.20019678725285,7.9306236301408735,0.579272890062899,19.342633032006052
161.0,81.1315603521396,7.8580809888031204,0.579100673526965,19.382689632879476
162.0,86.79615267455605,7.916256590687556,0.5789283002991904,19.422854285979625
163.0,92.08493863110473,8.120199032708117,0.5787558182305719,19.463116091049
164.0,96.87858614871814,8.484481791157775,0.5785832752402292,19.503464052201014
165.0,101.04579685928609,9.022424501576268,0.5784107193048104,19.543887079873997
166.0,104.4463143693494,9.745323463752042,0.5782381984478688,19.58437399290014
167.0,106.9410044660368,10.66174732935129,0.578065760729176,19.62491352076342
168.0,108.40854126956215,11.776936204668095,0.5778934542340426,19.66549430592934
169.0,108.76506589191669,13.092306578464482,0.5777213270626361,19.70610490593146
170.0,107.97988439886106,14.605114958931953,0.5775494273193956,19.74673379632552
171.0,106.08375385744027,16.30826337955355,0.5773778031015007,19.787369372488694
172.0,103.16299862008678,18.190124456812317,0.5772065024893822,19.827999952966632
173.0,99.34661206899388,20.234621964089346,0.5770355735350853,19.86861378203382
174.0,94.78728443165103,22.42128905864347,0.5768650642516644,19.90919903228481
175.0,89.64311293201597,24.72551641703983,0.5766950226023705,19.949743807853896
176.0,84.0636429436799,27.118914844685087,0.576525496489575,19.99023614712444
177.0,78.18188349527347,29.569931687675314,0.5763565337442536,20.03066402619343
178.0,72.11139490790609,32.04465705254536,0.5761881821146293,20.071015361795208
179.0,65.94714387284039,34.50779485915667,0.576020489255541,20.111278014774637
180.0,59.76825617130656,36.92353612925138,0.5758535027173843,20.15143979349378
181.0,53.64165652293707,39.256007680494115,0.5756872699348247,20.191488457196137
182.0,47.62616683293811,41.46893846132347,0.5755218382163162,20.23141171983241
183.0,41.77673572186855,43.52439712450755,0.5753572547322553,20.27119725352554
184.0,36.14854471629795,45.38099876260383,0.5751935665045462,20.31083269254275
185.0,30.800086613856987,46.99246862647202,0.5750308203949918,20.350305637101982
186.0,25.794004697443206,48.307998156543604,0.574869063094187,20.38960365736595
187.0,21.194593442360336,49.27550394270231,0.5747083411104291,20.428714297552556
188.0,17.06177750792655,49.84800391842565,0.5745487007582415,20.467625080091356
189.0,13.44275542640595,49.99194017948597,0.5743901881470876,20.506323509899595
190.0,10.363767251328456,49.69502806087001,0.5742328491700177,20.544797078747084
191.0,7.824729926643672,48.97099703359188,0.5740767294918326,20.583033269714758
192.0,5.798852852983976,47.85934745992218,0.5739218745384235,20.62101956174959
193.0,4.237141094298137,46.42035576306774,0.5737683294845299,20.658743434294735
194.0,3.0766600823838224,44.72666459953742,0.573616139242411,20.696192372023496
195.0,2.2500737936674864,42.85400872220027,0.573465348450133,20.73335386965582
196.0,1.6942441192468591,40.873253121397184,0.5733160014598851,20.77021543686079
197.0,1.3564436373399886,38.845071946759845,0.5731681423262094,20.806764603245057
198.0,1.1977541003803458,36.81753195714086,0.5730218147941839,20.842988923423334
199.0,1.1940022491573172,34.826062372870794,0.5728770622875585,20.87887598216905
200.0,1.3349631364956729,32.894947631156406,0.5727339278968415,20.91441339964175
201.0,1.622592818439328,31.039502039385653,0.5725924543670929,20.94958883672115
202.0,2.0688306661038487,29.26832304792226,0.5724526840862144,20.984390000347222
203.0,2.69336334600979,27.585255969180157,0.572314659072581,21.018804649007013
204.0,3.521479033729434,25.99095346807666,0.5721784209629344,21.05282059825012
205.0,4.582067461753047,24.484022719863884,0.5720440110001399,21.086425726281696
206.0,5.90576162722423,23.061828201290567,0.5719114700208908,21.119607979618134
207.0,7.523207406749022,21.72103319789751,0.5717808384433396,21.152355378807112
208.0,9.463469151544336,20.4579579036475,0.5716521562547384,21.1846560241915
209.0,11.752564005261032,19.26881401393668,0.571525462998863,21.21649810176087
210.0,14.412170028730143,18.149864206505196,0.5714007977634314,21.247869889046367
211.0,17.458510958064053,17.09753680639181,0.5712781991681717,21.27875976091184
212.0,20.901432892148616,16.10852537333373,0.5711577053506047,21.309156195869672
213.0,24.743647002115253,15.179878679275225,0.5710393539570322,21.33904778128161
214.0,28.98043002083784,14.309149105098106,0.5709231821211525,21.368423221358178
215.0,33.59880730172014,13.494486352318527,0.5708092264633204,21.39727134052745
216.0,38.57754256709032,12.734851610783672,0.5706975230692547,21.425581091462487
217.0,43.88678027124607,12.030210929468938,0.5705881074802243,21.45334156052972
218.0,49.488130127881874,11.381779754461226,0.5704810146785417,21.480541974334027
219.0,55.33475342925337,10.792235843588687,0.5703762790770729,21.507171705276463
220.0,61.37171974317422,10.265907080769546,0.5702739345050168,21.53322027805034
221.0,67.53683916867051,9.808902732831225,0.5701740141930417,21.558677376343038
222.0,73.7618664180026,9.429131180889193,0.5700765507631645,21.583532848263424
223.0,79.97388911213525,9.136216147956944,0.5699815762158191,21.607776712488093
224.0,86.09650467963874,8.941294160259348,0.5698891219139399,21.631399165249817
225.0,92.05053757629567,8.8566967032048,0.5697992185740667,21.654390585338643
226.0,97.75334838676773,8.895526259327335,0.5697118962488475,21.676741541524407
227.0,103.11690229675673,9.071142930024587,0.5696271843191334,21.69844279720393
228.0,108.04492777238376,9.396593006105913,0.5695451114758159,21.719485317999364
229.0,112.43074634266809,9.884011485337318,0.569465705712462,21.739860276158964
230.0,116.157712383903,10.544020230080125,0.569388994306968,21.7595590581822
231.0,119.10412711023804,11.385175220478514,0.5693150038143849,21.77857326906173
232.0,121.1535237773287,12.413460686646221,0.5692437600488356,21.796894739786598
233.0,122.20838972094367,13.631888314763543,0.5691752880767936,21.814515531327913
234.0,122.20515833131381,15.040171599152313,0.5691096121989286,21.831427942103684
235.0,121.12536620145028,16.63452954926077,0.5690467559394455,21.847624513097852
236.0,118.99969186290156,18.407571137293903,0.56898674203478,21.86309803310516
237.0,115.90397105381038,20.348269332247728,0.5689295924251071,21.877841542997782
238.0,111.94931788545698,22.441987293319517,0.5688753282347471,21.891848343497536
239.0,107.26787271787799,24.670616629208673,0.5688239697640036,21.905111999263173
240.0,101.99872650857883,27.0127581689206,0.5687755364798687,21.91762634322801
241.0,96.27652861548583,29.443989847057917,0.5687300469991798,21.92938548334291
242.0,90.22409514847187,31.93728778686243,0.5686875190826429,21.940383805714198
243.0,83.94882791969167,34.46357553961233,0.5686479696191116,21.950615980853698
244.0,77.54230284976676,36.99243170186879,0.5686114146182106,21.96007696711942
245.0,71.08164096058458,39.49281560316934,0.568577869197194,21.968762015988485
246.0,64.63197194245593,41.93363844111614,0.5685473475718301,21.976666675909847
247.0,58.249358404251026,44.28386447861742,0.5685198630452655,21.983786796773042
248.0,51.984103203595865,46.51191862534655,0.568495427999288,21.990118533472817
249.0,45.88430396894829,48.584286385946896,0.568474053881893,21.995658350650743
250.0,39.99936119465162,50.46372333874118,0.5684557512031027,22.000403024582454
251.0,34.38277003227492,52.107718774026274,0.5684405295180484,22.004349649245196
