Time,J,A,S,tau
0.0,100.0,10.0,0.7552382865523293,26.352308690091764
1.0,97.86657523864973,15.3371694882973,0.7532178654090029,26.29217375716117
2.0,92.72638970846974,20.463833767733316,0.7511310791160257,26.23016122377775
3.0,86.40385829334089,25.386224462754097,0.7489787516131844,26.16629275803815
4.0,79.69179961632022,30.11073479934386,0.7467615671921453,26.10058505040221
5.0,72.89615178444966,34.6435731209279,0.7444802626412076,26.03305541842111
6.0,66.13132073298469,38.99076812997255,0.7421356269047467,25.963721803251445
7.0,59.44031962355054,43.158175960874246,0.7397285006898924,25.89260276616197
8.0,52.83980088497624,47.15148199680141,0.7372597758979027,25.819717484222107
9.0,46.33657705379424,50.97620430800857,0.7347303952091846,25.74508574849063
10.0,39.933704383077654,54.63770523797311,0.7321413514825243,25.668727960166446
11.0,33.63274191083347,58.141193900534866,0.7294936853322892,25.590665106062453
12.0,27.434601244875257,61.491698048848214,0.7267884875698817,25.51091879698675
13.0,21.339910746657644,64.69413973923015,0.7240268957294527,25.429511225482784
14.0,15.349138541684862,67.7533023748175,0.7212100916786076,25.346465146017064
15.0,9.462647433885778,70.67377366482742,0.7183393051713545,25.261803934626595
16.0,3.680716938649102,73.46007596156211,0.715415808785102,25.175551522144644
17.0,0.0,76.11656458681236,0.7124409155519237,25.087732382448774
18.0,0.0,78.64746494799333,0.709415983364237,24.998371600199945
19.0,0.0,81.05693319009838,0.7063424067959289,24.90749476743354
20.0,0.0,83.34890928916805,0.7032216197214397,24.815128048038854
21.0,0.0,85.52731567245837,0.7000550935124107,24.721298149004586
22.0,0.0,87.59590488802326,0.696844330802301,24.626032258184853
23.0,0.0,89.55833988092905,0.6935908734301337,24.529358179671902
24.0,0.0,91.4181284617078,0.6902962883259582,24.431304137648475
25.0,0.0,92.38161056915371,0.688128121236088,24.36999853835566
26.0,0.0,90.66409368383607,0.686699573584921,24.332903736918794
27.0,0.0,87.76286902742254,0.6852896814368188,24.296475895865747
28.0,0.0,84.5079910349328,0.6838990919178938,24.26072253633656
29.0,0.0,81.21149869872549,0.6825284451484476,24.225650955205715
30.0,0.0,77.98256894184428,0.6811783737420615,24.191268226804528
31.0,0.0,74.85720653540973,0.6798495023295121,24.157581205204444
32.0,0.0,71.84548943973545,0.6785424470570036,24.124596525560484
33.0,0.0,68.94837029094045,0.6772578151436941,24.092320606803785
34.0,0.0,66.16355925967468,0.6759962041578252,24.060759648488258
35.0,0.0,63.48764911962472,0.6747582025328006,24.029919652335458
36.0,0.0,60.916920631457,0.6735443868740143,23.999806379127964
37.0,0.0,58.44753776180778,0.6723553248029351,23.970425416650816
38.0,0.0,56.075801625122004,0.6711915713154413,23.941782117724834
39.0,0.0,53.798017678052844,0.6700536704840458,23.913881645232205
40.0,0.0,51.61068723046873,0.6689421545635245,23.88672896047012
41.0,0.0,49.51037185540553,0.66785754225281,23.86032880803257
42.0,0.0,47.49376900706115,0.6668003414026318,23.83468576286639
43.0,0.0,45.55771098628457,0.6657710442208727,23.80980416743417
44.0,0.0,43.699089720051525,0.6647701319073266,23.785688206296978
45.0,0.0,41.91497833781186,0.6637980696673155,23.762341841641323
46.0,0.0,40.20247774443633,0.662855309824117,23.739768864481135
47.0,0.0,38.55887015495059,0.6619422895889567,23.717972868929607
48.0,0.0,36.98147337451722,0.6610594315132348,23.69695726593932
49.0,0.0,35.46771770020044,0.660207143165641,23.676725283765993
50.0,0.0,34.01514033156783,0.6593858166004293,23.657279966931533
51.0,0.0,32.621354320971456,0.6585958282086994,23.63862417985704
52.0,0.0,31.28406479139686,0.6578375384770216,23.620760608722136
53.0,0.0,30.001062656882873,0.6571112916941655,23.603691762770918
54.0,0.0,28.770217900672804,0.656417415970957,23.587419978683865
55.0,0.0,27.58948074858015,0.6557562227491014,23.57194741937829
56.0,0.0,26.456879957997174,0.6551280067394518,23.55727607717753
57.0,0.0,25.370522298085984,0.6545330456983462,23.54340777509639
58.0,0.0,24.328588616770485,0.6539716003883829,23.53034416976484
59.0,0.0,23.329339380826944,0.6534439142553704,23.51808675139918
60.0,0.0,22.37111670291242,0.6529502133973668,23.506636846444877
61.0,0.0,21.452350132800927,0.6524907064556822,23.49599561925454
62.0,0.0,20.571564503205376,0.6520655844914242,23.48616407347414
63.0,0.0,19.727396416693413,0.651675020856475,23.4771430532014
64.0,0.0,18.918610748577063,0.6513191712024344,23.46893324522723
65.0,0.0,18.144128505901037,0.6509981732933432,23.461535179350456
66.0,0.0,17.40305604941344,0.6507121471094187,23.454949231095284
67.0,0.0,16.69472727329382,0.650461194695934,23.44917562201977
68.0,0.0,16.018750303542184,0.6502454001806106,23.44421442133934
69.0,1.5315933520526501,15.375061919871099,0.6500648297824334,23.440065547297493
70.0,5.289042683746036,14.763988451879037,0.6499195318184122,23.43672876835844
71.0,9.352042949355756,14.186309763672025,0.6498095367615938,23.434203704668896
72.0,13.7185004516156,13.643341824274254,0.6497348569689072,23.432489826598346
73.0,18.38017950317511,13.136983887022412,0.6496954872345864,23.431586460018437
74.0,23.32175846297533,12.66979612792175,0.6496914045026267,23.43149278442283
75.0,28.51990486509088,12.245054962931126,0.6497225680024417,23.43220783440765
76.0,33.94252265989784,11.866797024558734,0.649788919395136,23.43373050106556
77.0,39.54793257055583,11.539850788987884,0.6498903828126681,23.43605953237853
78.0,45.28443319327903,11.269851424272517,0.6500268649443739,23.439193533819232
79.0,51.08997480347463,11.063224247208232,0.6501982552631514,23.44313096997804
80.0,56.8921306122588,10.927159894285321,0.6504044259916935,23.447870163886474
81.0,62.60843932484711,10.869546043494783,0.6506452324287819,23.453409299172744
82.0,68.14700574979443,10.89888881451503,0.6509205129515979,23.459746419396293
83.0,73.40774784436802,11.024198280634078,0.6512300892890452,23.466879429482624
84.0,78.28436349961552,11.254857791804287,0.6515737666217274,23.474806095572053
85.0,82.6672989134174,11.600462301785859,0.6519513338119987,23.483524045827064
86.0,86.44825902001442,12.070643796251876,0.6523625636145715,23.49303077093362
87.0,89.52623309654017,12.674872307086186,0.6528072128290014,23.503323623966804
88.0,91.8147524921499,13.422240095946352,0.6532850226114003,23.514399821507975
89.0,93.24998455161985,14.321230059965648,0.65379571859102,23.52625644289835
90.0,93.79748719882141,15.379465861098653,0.6543390112258696,23.538890431493865
91.0,93.4567637019809,16.60342857870401,0.6549145959943284,23.552298594340932
92.0,92.26186349590267,17.998161181887895,0.6555221536009004,23.56647760176611
93.0,90.27700865721464,19.566948684769077,0.6561613503620477,23.581423988576397
94.0,87.58870539968267,21.310944005523126,0.6568318384579519,23.59713415389759
95.0,84.2954895834195,23.22878399404108,0.6575332561849419,23.613604360839666
96.0,80.49757812839523,25.31616581782277,0.6582652282352485,23.630830736281943
97.0,76.28875402835467,27.565433142054648,0.6590273660950076,23.648809271779385
98.0,71.75147250286652,29.96511957410974,0.6598192682658562,23.667535822523188
99.0,66.95555171847599,32.49956126577722,0.6606405206273511,23.6870061076136
100.0,61.95966560502667,35.14855861747743,0.6614906968141026,23.70721571046038
101.0,56.814352189305495,37.887078488106866,0.6623693584610281,23.728160077537623
102.0,51.56563309812458,40.685132704977185,0.6632760556314935,23.74983451910992
103.0,46.258221331494454,43.50774697656657,0.6642103271624572,23.7722342089496
104.0,40.9380141323724,46.31505582778034,0.66517170096621,23.795354183313425
105.0,35.65368844765008,49.06261828166199,0.6661596944789586,23.819189341704273
106.0,30.4574954536307,51.70188765938859,0.6671738149894719,23.843734446008764
107.0,25.405284069592614,54.180987017959964,0.6682135600413435,23.868984120475115
108.0,20.555789776520214,56.44589908419734,0.6692784177965349,23.89493285105996
109.0,15.969083407042318,58.44227105426498,0.6703678674510188,23.921574985442547
110.0,11.704111347513617,60.11796616198483,0.6714813796210406,23.948904732515352
111.0,7.8152866379754595,61.42643790938321,0.6726184167477385,23.97691616207472
112.0,4.348318977300304,62.33074119509393,0.6737784334997436,24.005603204387672
113.0,1.3357782281814439,62.80769735841142,0.6749608771857896,24.034959649865115
114.0,0.0,62.851442756398264,0.676165188167063,24.064979148660342
115.0,0.0,62.475472326151035,0.6773908002732442,24.09565521028073
116.0,0.0,61.71243995009757,0.67863714122013,24.126981203169457
117.0,0.0,60.61141083867806,0.6799036330304186,24.158950354309678
118.0,0.0,59.23290644754732,0.6811896924556934,24.191555748819773
119.0,0.0,57.64265524241085,0.6824947313995511,24.22479032954888
120.0,0.0,55.905279512766626,0.6838181573414103,24.258646896674595
121.0,0.0,54.07908167160198,0.6851593737606196,24.293118107308974
122.0,0.0,52.212679852518164,0.6865177805601157,24.328196475101798
123.0,0.0,50.34368187749823,0.6878927744893414,24.363874369849675
124.0,0.0,48.49908734677044,0.689283749566663,24.40014401714133
125.0,0.0,46.69681321450308,0.690690097499209,24.43699749801221
126.0,0.0,44.94770576240564,0.6921112081009506,24.47442674857923
127.0,0.0,43.25753494429992,0.6935464697065246,24.5124235595065
128.0,0.0,41.62869256480729,0.6949952695877576,24.55097957622214
129.0,0.0,40.061451016409784,0.6964569943550214,24.59008629828743
130.0,0.0,38.55484759529196,0.6979310303698603,24.629735079036934
131.0,0.0,37.10724707092554,0.6994167641485443,24.669917124717426
132.0,0.0,35.716682344826154,0.7009135827603401,24.710623494475833
133.0,0.0,34.38104639658946,0.7024208741869405,24.75184510282931
134.0,0.0,33.09820136927134,0.7039380277381834,24.793572715922224
135.0,0.0,31.866038315397645,0.7054644344283807,24.835796952690483
136.0,0.0,30.68250148659807,0.7069994873218395,24.878508285598787
137.0,0.0,29.545605589970084,0.7085425819304982,24.921697039009082
138.0,0.0,28.45344093230546,0.71009311655935,24.965353390033926
139.0,0.0,27.404172645068616,0.7116504926338657,25.009467369060886
140.0,0.0,26.39604272310988,0.713214115078051,25.0540288584851
141.0,0.0,25.427367491756236,0.7147833926174466,25.099027593936178
142.0,0.0,24.49653649288011,0.7163577381152867,25.144453163887242
143.0,0.0,23.60201172954845,0.7179365688902385,25.190295009825395
144.0,0.0,22.742326763649036,0.7195193070100679,25.236542426768718
145.0,0.0,21.91608796086647,0.7211053795975939,25.2831845632953
146.0,0.0,21.12197618228423,0.7226942191084883,25.33021042204378
147.0,0.0,20.35875090533228,0.7242852636117627,25.37760886000779
148.0,0.6490312342391469,19.625255810127015,0.7258779570506791,25.425368589058248
149.0,2.0264215085604236,18.920426883436495,0.7274717494973976,25.47347817644561
150.0,3.5878072988795893,18.243303061149227,0.7290660973971792,25.521926045363106
151.0,5.3484013688059235,17.593039647576784,0.7306604638012327,25.570700475578125
152.0,7.322992396398278,16.96892469330286,0.732254318584901,25.619789604183804
153.0,9.52564369428406,16.370399010629544,0.7338471386613632,25.66918142631032
154.0,11.969350600284095,15.797079342058408,0.7354384081740417,25.718863796083028
155.0,14.665655685526003,15.24878530712036,0.7370276186874319,25.768824427477544
156.0,17.624203026880394,14.72556924839201,0.7386142693628996,25.819050895263562
157.0,20.852264236639027,14.227749619053892,0.740197867126573,25.869530636087894
158.0,24.354192763533863,13.755943870551647,0.7417779267838798,25.920250950155744
159.0,28.13085273509175,13.311105821873019,0.7433539711848902,25.971199002088355
160.0,32.17886749156888,12.894577732712449,0.7449255316138228,26.02236181831193
161.0,36.49039457238366,12.508095568469793,0.7464921472941187,26.07372629839482
162.0,41.051797045426056,12.153843710869078,0.7480533660369306,26.125279206768788
163.0,45.843488008570006,11.834482782117465,0.7496087441324552,26.177007178735177
164.0,50.83913549983578,11.553172583666168,0.7511578464564542,26.228896721249345
165.0,56.00523436569585,11.313593805832866,0.7527002465499494,26.28093421478792
166.0,61.3006889969165,11.119959005999693,0.7542355266746087,26.33310591522729
167.0,66.67659763393671,10.977017036655491,0.7557632778709252,26.385397955738906
168.0,72.07611875153762,10.890042691609958,0.7572830999745389,26.43779634902716
169.0,77.43473306099128,10.86482626384747,0.7587946017056796,26.4902869888662
170.0,82.68074088367133,10.907640498222348,0.7602974006195549,26.542855653216304
171.0,87.73605110312845,11.025201785924674,0.761791123152358,26.59548800605447
172.0,92.51763999870302,11.224621604425808,0.7632754046427199,26.648169599669263
173.0,96.93957629985502,11.513339884805307,0.7647498892648507,26.70088587790039
174.0,100.91580908782294,11.899050082260361,0.7662142300528089,26.753622178257324
175.0,104.36398525065657,12.3896142674538,0.7676680888819861,26.80636373469269
176.0,107.20982606180144,12.992961325369333,0.7691111363802456,26.859095681061994
177.0,109.3920639389387,13.716973648474111,0.7705430519319344,26.911803053562494
178.0,110.86724159876171,14.569363135223679,0.7719635236165677,26.964470794022187
179.0,111.61339247168571,15.557530757999517,0.7733722481244236,27.017083753384856
180.0,111.63200925390154,16.688406794110765,0.7747689306947358,27.069626694950195
181.0,110.94766419720757,17.968277999483746,0.7761532850658878,27.122084297671066
182.0,109.60484493089723,19.402589158995013,0.7775250333715537,27.174441159942006
183.0,107.66265388058213,20.9957284408006,0.778883906043636,27.22668180341933
184.0,105.18827527729444,22.75078178966123,0.7802296417235336,27.27879067678324
185.0,102.25034908697964,24.66926668364461,0.7815619871579467,27.33075215974758
186.0,98.9134533262862,26.750840643005215,0.7828806970898544,27.382550567175716
187.0,95.23448208433202,28.992991721053276,0.7841855341439072,27.43417015332389
188.0,91.26119831472282,31.390700567771137,0.7854762687065406,27.485595116212767
189.0,87.03268395082281,33.93611482940546,0.786752678801123,27.536809602128045
190.0,82.58113755887985,36.618219182146014,0.7880145499583777,27.587797710250715
191.0,77.93433312854245,39.422525083067306,0.7892616750829028,27.638543497413817
192.0,73.11815650709045,42.33079840048758,0.7904938543167471,27.689030982992296
193.0,68.15883310186886,45.320841529976605,0.7917108948960033,27.739244153935147
194.0,63.084662764226394,48.36634422931623,0.7929126110099973,27.789166969910635
195.0,57.92722026116804,51.436834100501926,0.7940988236408834,27.83878336862475
196.0,52.72209276503294,54.49772382674973,0.7952693604250564,27.888077271192916
197.0,47.509199146235,57.510503833634196,0.796424055484485,27.937032587720406
198.0,42.33277660420705,60.43308667124135,0.7975627492887238,27.985633222942887
199.0,37.24101016569769,63.22038726338704,0.7986852884966399,28.033863082068116
200.0,32.285280463921666,65.82519620910215,0.7997915257693716,28.08170607667445
201.0,27.51900685398762,68.19940794133065,0.8008813196471305,28.1291461308358
202.0,22.99595419020495,70.29572338239548,0.8019545343570288,28.17616718724812
203.0,18.7680153501338,72.06981834853178,0.8030110396604869,28.222753213566865
204.0,14.88246368322544,73.48298161267552,0.8040507106941674,28.268888208893017
205.0,11.37887350563551,74.50501113507532,0.8050734277975999,28.314556210298477
206.0,8.286018438923367,75.11705906275925,0.8060790763467716,28.359741299481882
207.0,5.619154315601792,75.31402692807525,0.8070675465956858,28.404427609645605
208.0,3.3782542877865858,75.10596428946857,0.8080387335097243,28.448599332417604
209.0,1.547647800502406,74.5180497221844,0.8089925365946211,28.492240724774803
210.0,0.09722978765732859,73.58901931401599,0.8099288597405558,28.535336116318398
211.0,0.0,72.3680414946004,0.810847611054931,28.577869916471265
212.0,0.0,70.91051576092715,0.811748702701306,28.619826621859634
213.0,0.0,69.27344033193319,0.8126320507382039,28.661190823777073
214.0,0.0,67.51109498327152,0.813497574959371,28.701947215744152
215.0,0.0,65.67166669846412,0.8143451987358344,28.742080601173477
216.0,0.0,63.795185995021974,0.8151748488591598,28.781575901109157
217.0,0.0,61.912820181695615,0.8159864553873233,28.8204181620772
218.0,0.0,60.047301941934144,0.8167799514919046,28.85859256399978
219.0,0.0,58.21410997680676,0.8175552733072028,28.896084428157568
220.0,0.0,56.42298828467783,0.8183123597832097,28.932879225313577
221.0,0.0,54.679477525142644,0.8190511525385962,28.968962583774456
222.0,0.0,52.98623746689713,0.8197715957204882,29.004320297770448
223.0,0.0,51.3440805202464,0.820473635855865,29.03893833507431
224.0,0.0,49.752698947601544,0.8211572217262088,29.072802846078798
225.0,0.0,48.211154269945425,0.8218223042291465,29.10590017219924
226.0,0.0,46.71817643381327,0.8224688362461424,29.13821685233172
227.0,0.0,45.272351856745104,0.8230967724798965,29.16973963658758
228.0,0.0,43.87220256709338,0.8237060693950078,29.20045548742248
229.0,0.0,42.5162518031685,0.8242966850560848,29.23035159345246
230.0,0.0,41.20304828544611,0.8248685789973542,29.259415373645442
231.0,0.0,39.93117783353656,0.8254217121444758,29.287634490115124
232.0,0.0,38.69927099348567,0.8259560466755388,29.314996854504308
233.0,0.0,37.506003648563436,0.8264715459175712,29.341490635610196
234.0,0.0,36.35009695787419,0.8269681742503046,29.3671042690498
235.0,0.0,35.23031715581802,0.8274458969976525,29.391826464828615
236.0,0.0,34.145473834681894,0.8279046803390298,29.41564621675224
237.0,0.0,33.09441896043727,0.8283444912067179,29.43855280888491
238.0,0.0,32.07604517214999,0.8287652972057498,29.46053582549992
239.0,0.0,31.089284211837533,0.8291670665262078,29.481585157676008
240.0,0.0,30.133106112658144,0.8295497678617677,29.501691012620174
241.0,0.0,29.206517378471922,0.8299133703364012,29.520843920546685
242.0,0.0,28.308560357912093,0.8302578434297805,29.539034743141833
243.0,0.0,27.43831212823752,0.8305831569112799,29.556254680800937
244.0,0.0,26.59488405310622,0.8308892807758458,29.57249528057441
245.0,0.0,25.777421465158064,0.8311761851855297,29.58774844336419
246.0,0.2031021944983565,24.985103876676025,0.8314438404151265,29.602006431275512
247.0,0.8372714359602962,24.217145726014202,0.8316922168023158,29.615261874690322
248.0,1.5671933920542218,23.472797850382335,0.8319212847019086,29.627507779272506
249.0,2.403133060100804,22.75134975184544,0.8321310144452294,29.638737532761624
250.0,3.355759764973202,22.052132879410753,0.8323213763041236,29.648944911432356
251.0,4.436068677872221,21.37452519928013,0.832492340459427,29.658124086686946
252.0,5.655287515881992,20.717957165173218,0.8326438769743933,29.66626963095914
253.0,7.024767832962958,20.081919434096562,0.8327759557728577,29.673376523813495
254.0,8.555859222617828,19.465972517120136,0.8328885466218816,29.67944015764651
255.0,10.2597632727529,18.869758577453393,0.8329816191196665,29.684456343312387
256.0,12.147364845844095,18.293015316232125,0.8330551426893396,29.688421314788293
257.0,14.229043042801099,17.735592869931583,0.8331090865729243,29.69133173482871
258.0,16.514439174052857,17.197472092059517,0.8331434198412826,29.693184698901852
259.0,19.012211028862914,16.678787135265715,0.833158111392555,29.693977740936564
260.0,21.729736637038606,16.179848104730397,0.83315312997118,29.693708835456487
261.0,24.672778048886713,15.701167237970298,0.8331284441855848,29.69237640238795
262.0,27.84510893588167,15.243485924892871,0.8330840225314882,29.68997930962357
263.0,31.248109074108473,14.807804333038609,0.8330198334136956,29.686516876830005
264.0,34.88017719419378,14.395423403243937,0.8329358451827813,29.68198889341034
265.0,38.7365986451751,14.007946672815534,0.8328320261485992,29.676395580527227
266.0,42.80854473800211,13.647331986285815,0.8327083446921126,29.669737634257046
267.0,47.08281700462517,13.315917280502182,0.8325647692476077,29.662016212812123
268.0,51.54123637680475,13.016433757062682,0.8324012683984432,29.653232931853616
269.0,56.16015607243052,12.752038350245947,0.8322178109117623,29.643389873720942
270.0,60.91001062987703,12.526327356387435,0.8320143658108148,29.63248958537472
271.0,65.75497009000064,12.343349596340865,0.831790902441773,29.620535079323233
