Time,J,A,S,tau
0.0,100.0,100.0,0.7123692841050466,30.3030303030303
1.0,98.54672425029956,96.25600478034845,0.7103854498955781,30.243387342447956
2.0,97.10147425280591,92.64137330276922,0.7083335226285211,30.181790120089246
3.0,95.66581925498828,89.15501997929664,0.7062165835652933,30.1183264073889
4.0,94.23999638245239,85.79270884461232,0.7040353213659492,30.053012682540825
5.0,92.824246834711,82.5504381269414,0.7017904832920724,29.98586612999997
6.0,91.41881471163643,79.42419338812633,0.6994828641404337,29.91690448144861
7.0,90.02395583668331,76.41019771741291,0.6971133124686661,29.846146123074927
8.0,88.63994274451674,73.50468040090333,0.694682729566543,29.773610055694768
9.0,87.26707344858279,70.70406766994246,0.6921920627469497,29.699315845608307
10.0,85.90569697573856,68.00483586394913,0.6896423165334442,29.623283741328144
11.0,84.5562119985149,65.40358996983127,0.6870345352418752,29.545534482368378
12.0,83.21913714582045,62.89704930880464,0.6843698216125916,29.46608952822332
13.0,81.89508777474843,60.48198804604723,0.6816493153526472,29.38497079549241
14.0,80.58490950061575,58.15534802655611,0.6788742112249316,29.302200906494424
15.0,79.28964361490694,55.91407946620673,0.6760457417306246,29.21780295756358
16.0,78.01070439660704,53.75531640483146,0.6731651875258846,29.131800688921206
17.0,76.74989057810937,51.676192713209616,0.6702338695771436,29.044218366138715
18.0,75.5095310888705,49.674009464401436,0.6672531487760841,28.955080813359746
19.0,74.29264649386676,47.74608782721998,0.6642244285297784,28.864413439758454
20.0,73.10293781665005,45.88987535040218,0.6611491446268248,28.772242129467678
21.0,71.9452204930677,44.10288036184209,0.6580287754762173,28.67859339556784
22.0,70.82519001231448,42.38269665977505,0.6548648272691757,28.58349418243047
23.0,69.74991531170474,40.72698811393477,0.6516588428670501,28.486972015571435
24.0,68.72780125221196,39.133486990348636,0.6484123946644405,28.389054913972014
25.0,67.76873941426706,37.600007900023215,0.6451270830156799,28.28977138609089
26.0,66.8842737861266,36.12443026719464,0.6418045358687329,28.189150445481577
27.0,66.08765937032548,34.70470283465459,0.6384464059253281,28.087221588881043
28.0,65.39391117941884,33.33884172628591,0.6351058653439616,27.985752181600365
29.0,64.81975299698337,32.024927694086806,0.6334786156493782,27.94204771426246
30.0,64.38359354302618,30.761098457446018,0.6319196250728326,27.900675763794712
31.0,64.10548436569601,29.545560237210676,0.6303835228257242,27.86009006655981
32.0,64.0069026220701,28.376578533771127,0.6288709812468016,27.82029860076191
33.0,64.11055332184785,27.252479761817273,0.6273826626819712,27.781309084637037
34.0,64.44010298073565,26.171652084479025,0.6259192190131138,27.743128978768308
35.0,65.01986309021102,25.132547649493006,0.6244812911982854,27.705765488444584
36.0,65.87442796985272,24.13368678502119,0.6230695088239108,27.669225566062412
37.0,67.02827237943218,23.173664863208057,0.6216844896693973,27.63351591356602
38.0,68.50531427745685,22.251162693177417,0.6203268392845601,27.59864298492053
39.0,70.32844736628547,21.364961423494556,0.6189971505802109,27.564612988613476
40.0,72.51904653525067,20.51396302086854,0.6176960034322271,27.531431890179963
41.0,75.09643549426862,19.69721649822104,0.6164239643247162,27.49910541519147
42.0,78.0773624903821,18.913954401305283,0.6151815859298335,27.46763905086118
43.0,81.47540870424982,18.16363502163515,0.613969406788304,27.43703804925035
44.0,85.30035874738844,17.44599525466183,0.6127879509359034,27.407307429320824
45.0,89.55746855949842,16.761113134189998,0.6116377275343252,27.378451979007515
46.0,94.24698408640418,16.109451063452344,0.6105192312655505,27.35047626772778
47.0,99.3633063911556,15.492022471252167,0.6094329398861434,27.323384618082482
48.0,104.89401661036493,14.910340225534366,0.6083793169511865,27.297181151860325
49.0,110.8191339520972,14.366579565807857,0.6073588096180326,27.271869764392374
50.0,117.11061765718945,13.863666039099053,0.606371848551907,27.24745412994229
51.0,123.73111955886806,13.405305393678674,0.6054188482775715,27.22393771203241
52.0,130.6337813955862,12.996078941803539,0.6045002065458202,27.201323760416205
53.0,137.7616830642748,12.64148783754492,0.6036163041793161,27.17961531434767
54.0,145.04741891130394,12.347966494232905,0.6027675050578406,27.15881520714155
55.0,152.4130076048222,12.122899881887104,0.6019541557554154,27.138926066338318
56.0,159.7698976842958,11.974596941180293,0.6011765854075312,27.119950316499082
57.0,167.01905416692867,11.91223440252335,0.6004351055969224,27.101890181955962
58.0,174.0510326504649,11.94576781786211,0.5997300102344626,27.08474768927979
59.0,180.74632535317758,12.085814549298219,0.5990615754379868,27.06852466952245
60.0,186.976197981032,12.343510020576135,0.5984300593234252,27.05322275936539
61.0,192.60453938217628,12.730328884903711,0.5978357020218061,27.038843404496475
62.0,197.49111425232576,13.257882746013241,0.5972787255964443,27.02538786167705
63.0,201.49740663159963,13.937703672925801,0.596759333859309,27.01285719964613
64.0,204.4948254647911,14.78101055808757,0.5962777124246119,27.001252302269695
65.0,206.3747746886871,15.798460809829228,0.5958340286735172,26.990573870548623
66.0,207.05998614154603,16.99989767893561,0.5954284316022118,26.980822423345526
67.0,206.513892712321,18.394098723774736,0.5950610519250302,26.97199830044037
68.0,204.74647392618516,19.988516205016587,0.5947320020291313,26.96410166393843
69.0,201.814462384688,21.789012294937198,0.5944413759563829,26.957132499781547
70.0,197.81515470848248,23.799603767388714,0.5941892493649629,26.951090618950865
71.0,192.87477093345143,26.02216421268202,0.5939756797075328,26.94597566042699
72.0,187.1342565564877,28.456155571996348,0.5938007061381354,26.94178709156278
73.0,180.73510870199348,31.098327550293174,0.5936643496244922,26.93852421014176
74.0,173.80813410153223,33.942391166695465,0.5935666130072602,26.936186145788874
75.0,166.4664836172988,36.97869612744455,0.5935074810195953,26.934771860862845
76.0,158.80341134977863,40.19391156169161,0.5934869203738041,26.934280151821802
77.0,150.89385101998255,43.570726124029605,0.5935048798919649,26.93470965081569
78.0,142.79821609952583,47.08759042144762,0.5935612906065487,26.936058826852932
79.0,134.56705917142583,50.71850955937567,0.5936560658526449,26.93832598673414
80.0,126.24555557825342,54.432912973161024,0.5937891013394001,26.94150927566013
81.0,117.87717821408765,58.19563320541196,0.5939602753326529,26.945606678694258
82.0,109.50635352396642,61.966947257919855,0.5941694488020595,26.950616021754378
83.0,101.18023640945059,65.70266424461431,0.59441646556795,26.956534972457558
84.0,92.94982715619294,69.35422332419519,0.5947011524073615,26.963361040443658
85.0,84.87059191450604,72.8688296793469,0.5950233192350683,26.97109157825063
86.0,77.00270137918514,76.1896737316518,0.5953827593125576,26.979723782303893
87.0,69.41085813159877,79.25638031120293,0.5957792494209624,26.989254693441797
88.0,62.16348863830191,82.00599894449887,0.5962125500534774,26.999681197464092
89.0,55.330985912645424,84.37482678417568,0.596682405569171,27.011000025210464
90.0,48.98269028605032,86.30144315585702,0.5971885445002086,27.023207753944472
91.0,43.18244959719636,87.73105571405013,0.5977306796343463,27.036300806441716
92.0,37.98316261607654,88.62075014570934,0.5983085083837358,27.050275452746547
93.0,33.42077517203531,88.94518304344204,0.5989217129222174,27.065127809507302
94.0,29.50911690877794,88.70128341145072,0.5995699604371675,27.08085384032289
95.0,26.2368618738549,87.91078615964527,0.6002529034413322,27.097449356584864
96.0,23.567308279858327,86.61991764163506,0.6009701799578898,27.11491001686932
97.0,21.441844165043438,84.89543875559234,0.601721413859171,27.13323132783883
98.0,19.78610339063005,82.8181204620291,0.6025062150829606,27.152408643703765
99.0,18.517929668419168,80.474588455143,0.6033241799410234,27.17243716655459
100.0,17.555391272880414,77.9492991887907,0.6041748914059417,27.193311946341677
101.0,16.82343345802943,75.31804338688262,0.6050579194102519,27.215027880876146
102.0,16.2582594424272,72.64384006945384,0.6059728211459774,27.2375797157119
103.0,15.809200081285958,69.9754057893593,0.606919141385434,27.26096204416637
104.0,15.438472459051278,67.34774325343861,0.6078964127984547,27.285169307186102
105.0,15.119530183077705,64.78410951352183,0.6089041562793983,27.310195793219993
106.0,14.834772124745262,62.29857607277408,0.609941881271366,27.336035637929104
107.0,14.573194692961911,59.898591815276895,0.6110090861377421,27.36268282445102
108.0,14.328410926540094,57.58712881170404,0.6121052584767404,27.390131182762595
109.0,14.097120375056358,55.36434599765622,0.6132298754791751,27.418374389516057
110.0,13.878064213978966,53.22874132152564,0.6143824042569482,27.44740596724888
111.0,13.67134871266943,51.1779094306905,0.6155623024417279,27.477219288153584
112.0,13.47814730754582,49.20899961226719,0.6167690178822156,27.507807562157623
113.0,13.300421898238797,47.31896748078376,0.6180019899531175,27.53916385276124
114.0,13.140932676834895,45.50473272421862,0.6192606493295385,27.57128106636274
115.0,13.003237782666266,43.76326291915994,0.6205444185327369,27.60415195470648
116.0,12.891741910424226,42.09160022454473,0.6218527122955514,27.637769114173544
117.0,12.811775622456937,40.48688987181305,0.62318493796737,27.672124985576062
118.0,12.769673955542006,38.94638495209502,0.6245404959124533,27.7072118538767
119.0,12.77284300790623,37.46744364307127,0.6259187799148996,27.74302184805386
120.0,12.829835781999812,36.047532554254836,0.6273191775752834,27.779546940506933
121.0,12.950403021587581,34.68422282263162,0.628741070719852,27.816778946793722
122.0,13.145510842860286,33.37518426067125,0.6301838358263236,27.85470952599408
123.0,13.427370517067379,32.118184920551485,0.6316468443927791,27.893330178960444
124.0,13.809414535047726,30.911086760597563,0.6331294633894579,27.932632249260898
125.0,14.306247365759345,29.751841228103828,0.6346310556602216,27.97260692269498
126.0,14.933590964539551,28.63848830374805,0.636150980320875,28.013245226160485
127.0,15.708175331857767,27.569153153045697,0.6376885931988014,28.054538028583124
128.0,16.64760682475639,26.542044292627807,0.6392432472288041,28.096476040000375
129.0,17.770229810849184,25.55545470441107,0.6408142928672923,28.13904981098427
130.0,19.094932382330107,24.60776141544106,0.6424010785152736,28.1822497334844
131.0,20.64093831028789,23.69742841038457,0.644002950913996,28.22606603959649
132.0,22.42759390970455,22.82301214858426,0.6456192555620754,28.270488801632418
133.0,24.474100101717827,21.983167111589236,0.6472493371189855,28.315507932691528
134.0,26.79923977955418,21.176656568665734,0.6488925398037736,28.361113185322083
135.0,29.421096332768528,20.402365530510924,0.6505482078001373,28.40729415220876
136.0,32.356708894851295,19.65931578016467,0.6522156856416584,28.454040266389068
137.0,35.62174051587237,18.946688129741982,0.6538943186117692,28.501340800154605
138.0,39.23009278635734,18.263845852111874,0.6555834531252005,28.549184865773025
139.0,43.19349688356667,17.6103632156349,0.6572824371066456,28.59756141555805
140.0,47.521052250453074,16.986057936640513,0.6589906203638286,28.646459241812963
141.0,52.21872935457863,16.391027587635797,0.6607073549570418,28.69586697683631
142.0,57.288764043310785,15.825693990197736,0.6624319956017578,28.74577309123646
143.0,62.72922887264348,15.290823913206237,0.6641638998567981,28.796165901552524
144.0,68.53345437802106,14.78762192723295,0.665902428857059,28.847033555952187
145.0,74.68900027374568,14.317707716645586,0.6676469471603212,28.898364050894042
146.0,81.1773037735457,13.883199551429506,0.6693968233949301,28.950145221363602
147.0,87.97313203746428,13.486740072735081,0.6711514304835563,29.00236474496132
148.0,95.04372447774242,13.131531552776943,0.6729101459845248,29.055010140498695
149.0,102.34849283077443,12.821363442180722,0.6746723523894078,29.108068769556912
150.0,109.8385424890048,12.560631314032626,0.6764374374208744,29.16152783674663
151.0,117.45640685484906,12.354346180299434,0.6782047943110837,29.215374390594754
152.0,125.13574167023641,12.208132182977572,0.6799738220802078,29.269595323889252
153.0,132.80141414752094,12.128216295593292,0.6817439258055497,29.324177374663286
154.0,140.36957801202067,12.121402286657977,0.6835145168723911,29.379107127004833
155.0,147.74802157030794,12.195033011638085,0.6852850132180563,29.434371011950034
156.0,154.83684887897647,12.356939583692313,0.6870548395679584,29.489955308363385
157.0,161.52978663033034,12.615379461120327,0.6888234276687617,29.54584614383797
158.0,167.71628348636506,12.978960193591705,0.6905902164905534,29.602029496011536
159.0,173.2846972435966,13.456552517594263,0.6923546524252802,29.658491193791775
160.0,178.12676650233294,14.057193221293172,0.6941161894757035,29.715216918634365
161.0,182.1433296821652,14.789978396070612,0.6958742894330041,29.772192205904847
162.0,185.25091376559368,15.663947157649371,0.6976284220429734,29.829402446303895
163.0,187.3885287965735,16.687957978747132,0.6993780651735657,29.88683288721721
164.0,188.5234035198596,17.870557198467843,0.701122704951951,29.944468634485464
165.0,188.6544737351588,19.219838726277537,0.7028618358906752,30.00229465420373
166.0,187.81269046734712,20.74329536841782,0.7045949609993184,30.060295774646093
167.0,186.05779403154162,22.447660923346554,0.7063215919203819,30.118456687817485
168.0,183.47163942385055,24.338740389304288,0.7080412490028961,30.176761951803005
169.0,180.14941548198115,26.421226031521137,0.7097534613989226,30.235195992729807
170.0,176.19019755536328,28.698499177166603,0.7114577671370508,30.2937431070177
171.0,171.68851420237064,31.17241451661046,0.713153713188712,30.35238746367785
172.0,166.72819444724652,33.84306670230633,0.7148408555223149,30.411113106749635
173.0,161.37912419339577,36.7085359336316,0.7165187591436328,30.469903957870038
174.0,155.69677842863226,39.764626914961525,0.7181869981214741,30.52874381900174
175.0,149.7238909921879,43.004573664035235,0.7198451556228525,30.587616375025963
176.0,143.49339784646003,46.41876873848717,0.7214928239262971,30.646505196654793
177.0,137.03183632365472,49.99448682876654,0.7231296043992321,30.705393743716023
178.0,130.36253584147215,53.715609848117836,0.7247551075092311,30.76426536799586
179.0,123.50829058498836,57.56239399294427,0.726368952802282,30.823103316557987
180.0,116.49339696895967,61.51126177679028,0.7279707688920317,30.881890735004628
181.0,109.34506992877861,65.53466230581789,0.7295601933799873,30.940610671246247
182.0,102.09439820144972,69.60095564740023,0.7311368728534655,30.999246078861344
183.0,94.77692101678039,73.67437537480487,0.7327004628169985,31.057779820945015
184.0,87.43295504590246,77.71504424014691,0.7342506276309376,31.11619467398769
185.0,80.10773388961475,81.67905991272653,0.7357870404536176,31.174473331796662
186.0,72.85134741925796,85.51870881852243,0.737309383130553,31.232598409918687
187.0,65.71851249114513,89.1828125355193,0.7388173461361067,31.29055244967641
188.0,58.76804885305019,92.61733794313912,0.7403106284899064,31.34831792254008
189.0,52.06194246329815,95.76638525364316,0.7417889376585886,31.40587723471878
190.0,45.663863074059854,98.57369400487948,0.743251989409785,31.463212732103113
191.0,39.63702305424039,100.9847645376747,0.744699507765643,31.520306704672777
192.0,34.04133362082385,102.94960609865117,0.7461312248267847,31.57714139185863
193.0,28.929886454452696,104.42610969489802,0.7475468807028359,31.63369898732633
194.0,24.34517160006874,105.38357452271043,0.7489462233389041,31.689961644494776
195.0,20.315291625575515,105.80617933117654,0.7503290084253045,31.745911481714746
196.0,16.851047225532437,105.69549822116423,0.7516949992190236,31.801530587971907
197.0,13.944078305169555,105.07188033790734,0.7530439664612013,31.856801028435267
198.0,11.567195544008914,103.9737344238113,0.7543756881714624,31.911704850362952
199.0,9.676360029570553,102.45509994724905,0.7556899495308523,31.966224089036555
200.0,8.214572544467142,100.58144552673026,0.7569865427311716,32.0203407738627
201.0,7.116979867489092,98.42436279904167,0.7582652668163989,32.07403693463139
202.0,6.316376870578662,96.05599892673767,0.7595259275273014,32.12729460790846
203.0,5.748268241683491,93.54406052292246,0.760768337141279,32.18009584356707
204.0,5.354804314144215,90.94804952837734,0.7619923143121399,32.232422711466036
205.0,5.0872115639470765,88.31707608684441,0.7631976839068487,32.284257308264586
206.0,4.906687697964775,85.6892383306701,0.7643842768408912,32.335581764375355
207.0,4.784020376712599,83.09227501807841,0.7655519299130975,32.386378251061444
208.0,4.698345296686741,80.54505003652528,0.766700485637016,32.43662898764588
209.0,4.63549975845142,78.05939818811052,0.7678297920767272,32.486316248906434
210.0,4.586326948939044,75.64197423343538,0.7689397026768221,32.5354223725576
211.0,4.545181419657851,73.29585760502194,0.7700300760904505,32.58392976679591
212.0,4.508753264803764,71.02180527317812,0.7711007760241574,32.6318209183004
213.0,4.47520284450142,68.81916673746402,0.7721516710468289,32.67907839965336
214.0,4.443593328317187,66.68648603932324,0.7731826344478275,32.7256848777768
215.0,4.413525745542346,64.62188854223972,0.774193544015354,32.771623120521085
216.0,4.384941442472653,62.62331472858211,0.775184282000664,32.816876009203796
217.0,4.357999686576626,60.688636744052566,0.7761547348887764,32.86142654450732
218.0,4.3330321135999394,58.81574955659684,0.7771047929845744,32.90525784859855
219.0,4.310537879196058,57.002574251946726,0.7780343507329764,32.94835318617462
220.0,4.291186006786969,55.24709344289812,0.7789433062098807,32.99069596397704
221.0,4.275838658827688,53.54735899736894,0.779831561001098,33.03226973997331
222.0,4.265586155734809,51.90148543456413,0.7806990201763899,33.07305823646155
223.0,4.261785586016868,50.307657792139466,0.7815455920404175,33.11304534682695
224.0,4.2660986801889385,48.764123358000425,0.7823711880023635,33.152215143722216
225.0,4.2805419171944825,47.2691939629389,0.783175722426292,33.19055188926988
226.0,4.307534572396321,45.821242911241264,0.783959112481624,33.228040043863736
227.0,4.349946859219933,44.41870101218407,0.7847212780105572,33.264664275385016
228.0,4.411152516227262,43.060056309994394,0.7854621413749348,33.30040946841215
229.0,4.495077534363398,41.74385134440979,0.7861816273192305,33.33526073322575
230.0,4.60624603149818,40.46868007861776,0.7868796628488556,33.36920341548846
231.0,4.749829169275851,39.23318758895767,0.7875561770890842,33.4022231059337
232.0,4.931678240115372,38.0360667504868,0.7882111011578031,33.43430564852181
233.0,5.158365465447957,36.876057460494344,0.7888443680498971,33.465437151743565
234.0,5.437202131770759,35.75194415218078,0.789455912504969,33.495603995655564
235.0,5.776262759226399,34.66255459458461,0.7900456709062745,33.524792843766775
236.0,6.184386233402954,33.606758104469485,0.7906135811546553,33.5529906499695
237.0,6.67117686944985,32.58346424481398,0.7911595825732157,33.580184669948586
238.0,7.246986279859596,31.59162152864418,0.7916836157958737,33.60636246905263
239.0,7.92288984475837,30.63021662310036,0.792185622669345,33.63151193221758
240.0,8.71064545906108,29.698273311649164,0.792665546161932,33.655621273434825
241.0,9.622640409358832,28.79485202537239,0.7931233302694304,33.67867904394529
242.0,10.671830928563514,27.91905004608556,0.7935589199300406,33.70067414220621
243.0,11.871661581137484,27.070001703533574,0.7939722609461622,33.7215958227535
244.0,13.235977124750791,26.2468795842037,0.7943632999047062,33.7414337042658
245.0,14.778923866225162,25.448896686564837,0.7947319841070083,33.76017777942379
246.0,16.5148329737842,24.675309238045255,0.7950782615038329,33.777818423116415
247.0,18.458099863595425,23.925421132811334,0.7954020806297215,33.794346400355344
248.0,20.623041422533248,23.198589657641726,0.7957033905523586,33.80975287595228
249.0,23.02375147383475,22.494233206950707,0.7959821408150347,33.82402942153496
250.0,25.67392896019407,21.81184050395475,0.7962382813960738,33.8371680234307
